t	x	y	pressure	penup	azimuth	inclination	v_x	v_y
0.000000	18.250000	86.540000	54.000000	1.000000	114.000000	62.000000	0.000000	0.000000
0.010000	18.250000	86.540000	249.000000	0.000000	114.000000	62.000000	0.000000	0.000000
0.020000	18.250000	86.540000	362.000000	0.000000	114.000000	62.000000	0.000000	0.000000
0.030000	18.250000	86.540000	519.000000	0.000000	115.000000	63.000000	0.000000	0.000000
0.040000	18.200000	86.800000	617.000000	0.000000	113.000000	63.000000	-5.000000	26.000000
0.050000	18.130000	86.800000	693.000000	0.000000	113.000000	63.000000	-7.000000	0.000000
0.060000	18.130000	86.800000	768.000000	0.000000	113.000000	63.000000	0.000000	0.000000
0.070000	18.130000	86.800000	817.000000	0.000000	113.000000	63.000000	0.000000	0.000000
0.080000	18.130000	86.800000	854.000000	0.000000	112.000000	62.000000	0.000000	0.000000
0.090000	18.130000	86.800000	891.000000	0.000000	112.000000	62.000000	0.000000	0.000000
0.100000	18.130000	86.800000	903.000000	0.000000	112.000000	62.000000	0.000000	0.000000
0.110000	18.130000	86.800000	932.000000	0.000000	111.000000	61.000000	0.000000	0.000000
0.120000	18.290000	86.220000	934.000000	0.000000	111.000000	61.000000	16.000000	-58.000000
0.130000	18.420000	85.680000	950.000000	0.000000	111.000000	61.000000	13.000000	-54.000000
0.140000	18.560000	85.110000	958.000000	0.000000	111.000000	61.000000	14.000000	-57.000000
0.150000	18.700000	84.380000	965.000000	0.000000	110.000000	60.000000	14.000000	-73.000000
0.160000	18.830000	83.550000	959.000000	0.000000	112.000000	60.000000	13.000000	-83.000000
0.170000	18.830000	82.680000	955.000000	0.000000	112.000000	60.000000	0.000000	-87.000000
0.180000	18.830000	81.820000	950.000000	0.000000	112.000000	60.000000	0.000000	-86.000000
0.190000	18.830000	81.030000	941.000000	0.000000	113.000000	60.000000	0.000000	-79.000000
0.200000	18.710000	80.290000	941.000000	0.000000	113.000000	60.000000	-12.000000	-74.000000
0.210000	18.540000	79.680000	947.000000	0.000000	113.000000	59.000000	-17.000000	-61.000000
0.220000	18.320000	79.270000	947.000000	0.000000	114.000000	59.000000	-22.000000	-41.000000
0.230000	18.040000	78.990000	955.000000	0.000000	113.000000	59.000000	-28.000000	-28.000000
0.240000	17.720000	78.820000	961.000000	0.000000	113.000000	59.000000	-32.000000	-17.000000
0.250000	17.400000	78.890000	964.000000	0.000000	113.000000	59.000000	-32.000000	7.000000
0.260000	17.100000	79.120000	967.000000	0.000000	113.000000	59.000000	-30.000000	23.000000
0.270000	16.850000	79.590000	959.000000	0.000000	113.000000	59.000000	-25.000000	47.000000
0.280000	16.670000	80.140000	958.000000	0.000000	111.000000	59.000000	-18.000000	55.000000
0.290000	16.670000	80.740000	959.000000	0.000000	111.000000	59.000000	0.000000	60.000000
0.300000	16.670000	81.160000	959.000000	0.000000	111.000000	59.000000	0.000000	42.000000
0.310000	16.780000	81.390000	946.000000	0.000000	111.000000	59.000000	11.000000	23.000000
0.320000	16.830000	81.500000	897.000000	0.000000	113.000000	59.000000	5.000000	11.000000
0.330000	16.890000	81.500000	824.000000	0.000000	113.000000	59.000000	6.000000	0.000000
0.340000	17.020000	81.430000	670.000000	0.000000	113.000000	59.000000	13.000000	-7.000000
0.350000	17.230000	81.280000	336.000000	0.000000	113.000000	59.000000	21.000000	-15.000000
0.360000	17.230000	81.280000	0.000000	1.000000	113.000000	59.000000	0.000000	0.000000
0.370000	17.830000	80.810000	0.000000	0.000000	113.000000	59.000000	60.000000	-47.000000
0.380000	18.110000	80.590000	0.000000	0.000000	111.000000	59.000000	28.000000	-22.000000
0.390000	18.320000	80.410000	0.000000	0.000000	111.000000	59.000000	21.000000	-18.000000
0.400000	18.520000	80.260000	0.000000	0.000000	111.000000	59.000000	20.000000	-15.000000
0.410000	18.740000	80.140000	0.000000	0.000000	109.000000	60.000000	22.000000	-12.000000
0.420000	18.980000	80.060000	0.000000	0.000000	109.000000	60.000000	24.000000	-8.000000
0.430000	19.260000	80.060000	0.000000	0.000000	107.000000	59.000000	28.000000	0.000000
0.440000	19.470000	80.060000	0.000000	0.000000	107.000000	59.000000	21.000000	0.000000
0.450000	19.630000	80.140000	0.000000	0.000000	105.000000	58.000000	16.000000	8.000000
0.460000	19.750000	80.240000	0.000000	0.000000	105.000000	58.000000	12.000000	10.000000
0.470000	19.850000	80.380000	0.000000	0.000000	104.000000	57.000000	10.000000	14.000000
0.480000	19.930000	80.500000	0.000000	0.000000	104.000000	57.000000	8.000000	12.000000
0.490000	20.070000	80.620000	0.000000	0.000000	105.000000	58.000000	14.000000	12.000000
0.500000	20.230000	80.760000	0.000000	0.000000	106.000000	58.000000	16.000000	14.000000
0.510000	20.400000	80.920000	0.000000	0.000000	106.000000	58.000000	17.000000	16.000000
0.520000	20.400000	80.920000	34.000000	1.000000	109.000000	59.000000	0.000000	0.000000
0.530000	20.680000	81.080000	108.000000	0.000000	109.000000	59.000000	28.000000	16.000000
0.540000	20.750000	81.080000	213.000000	0.000000	109.000000	59.000000	7.000000	0.000000
0.550000	20.820000	81.080000	274.000000	0.000000	111.000000	59.000000	7.000000	0.000000
0.560000	20.880000	81.080000	329.000000	0.000000	111.000000	59.000000	6.000000	0.000000
0.570000	20.880000	81.080000	379.000000	0.000000	111.000000	59.000000	0.000000	0.000000
0.580000	20.960000	81.020000	446.000000	0.000000	113.000000	59.000000	8.000000	-6.000000
0.590000	20.960000	81.020000	520.000000	0.000000	113.000000	59.000000	0.000000	0.000000
0.600000	20.960000	81.070000	592.000000	0.000000	113.000000	59.000000	0.000000	5.000000
0.610000	20.960000	81.070000	655.000000	0.000000	113.000000	59.000000	0.000000	0.000000
0.620000	20.960000	81.120000	710.000000	0.000000	113.000000	59.000000	0.000000	5.000000
0.630000	20.960000	81.170000	752.000000	0.000000	113.000000	59.000000	0.000000	5.000000
0.640000	20.900000	81.250000	760.000000	0.000000	113.000000	59.000000	-6.000000	8.000000
0.650000	20.840000	81.340000	794.000000	0.000000	114.000000	59.000000	-6.000000	9.000000
0.660000	20.750000	81.430000	827.000000	0.000000	114.000000	59.000000	-9.000000	9.000000
0.670000	20.630000	81.430000	870.000000	0.000000	114.000000	59.000000	-12.000000	0.000000
0.680000	20.560000	81.430000	900.000000	0.000000	114.000000	59.000000	-7.000000	0.000000
0.690000	20.440000	81.430000	896.000000	0.000000	114.000000	59.000000	-12.000000	0.000000
0.700000	20.270000	81.290000	911.000000	0.000000	114.000000	59.000000	-17.000000	-14.000000
0.710000	20.080000	81.120000	915.000000	0.000000	113.000000	59.000000	-19.000000	-17.000000
0.720000	19.870000	80.780000	915.000000	0.000000	113.000000	59.000000	-21.000000	-34.000000
0.730000	19.680000	80.330000	918.000000	0.000000	113.000000	59.000000	-19.000000	-45.000000
0.740000	19.520000	79.950000	918.000000	0.000000	113.000000	59.000000	-16.000000	-38.000000
0.750000	19.440000	79.550000	917.000000	0.000000	113.000000	59.000000	-8.000000	-40.000000
0.760000	19.440000	79.240000	914.000000	0.000000	113.000000	59.000000	0.000000	-31.000000
0.770000	19.490000	79.000000	902.000000	0.000000	113.000000	59.000000	5.000000	-24.000000
0.780000	19.630000	78.810000	902.000000	0.000000	113.000000	59.000000	14.000000	-19.000000
0.790000	19.770000	78.740000	902.000000	0.000000	113.000000	59.000000	14.000000	-7.000000
0.800000	19.900000	78.740000	906.000000	0.000000	113.000000	59.000000	13.000000	0.000000
0.810000	20.180000	78.960000	906.000000	0.000000	113.000000	59.000000	28.000000	22.000000
0.820000	20.390000	79.270000	908.000000	0.000000	113.000000	59.000000	21.000000	31.000000
0.830000	20.550000	79.650000	908.000000	0.000000	113.000000	59.000000	16.000000	38.000000
0.840000	20.750000	80.210000	892.000000	0.000000	113.000000	59.000000	20.000000	56.000000
0.850000	20.850000	80.630000	894.000000	0.000000	113.000000	59.000000	10.000000	42.000000
0.860000	20.850000	80.950000	899.000000	0.000000	113.000000	59.000000	0.000000	32.000000
0.870000	20.920000	81.130000	908.000000	0.000000	113.000000	59.000000	7.000000	18.000000
0.880000	20.920000	81.260000	918.000000	0.000000	113.000000	59.000000	0.000000	13.000000
0.890000	20.920000	81.260000	926.000000	0.000000	113.000000	59.000000	0.000000	0.000000
0.900000	20.920000	81.260000	933.000000	0.000000	113.000000	59.000000	0.000000	0.000000
0.910000	20.920000	81.210000	942.000000	0.000000	113.000000	59.000000	0.000000	-5.000000
0.920000	20.850000	81.010000	945.000000	0.000000	113.000000	59.000000	-7.000000	-20.000000
0.930000	20.850000	80.720000	950.000000	0.000000	113.000000	59.000000	0.000000	-29.000000
0.940000	20.770000	80.280000	950.000000	0.000000	113.000000	59.000000	-8.000000	-44.000000
0.950000	20.640000	79.880000	933.000000	0.000000	113.000000	59.000000	-13.000000	-40.000000
0.960000	20.640000	79.510000	950.000000	0.000000	113.000000	59.000000	0.000000	-37.000000
0.970000	20.720000	79.160000	944.000000	0.000000	113.000000	59.000000	8.000000	-35.000000
0.980000	20.800000	78.930000	930.000000	0.000000	113.000000	59.000000	8.000000	-23.000000
0.990000	20.900000	78.770000	921.000000	0.000000	113.000000	59.000000	10.000000	-16.000000
1.000000	21.070000	78.770000	911.000000	0.000000	113.000000	59.000000	17.000000	0.000000
1.010000	21.290000	78.840000	906.000000	0.000000	111.000000	59.000000	22.000000	7.000000
1.020000	21.500000	79.040000	908.000000	0.000000	112.000000	60.000000	21.000000	20.000000
1.030000	21.720000	79.430000	902.000000	0.000000	112.000000	60.000000	22.000000	39.000000
1.040000	21.960000	79.940000	900.000000	0.000000	112.000000	60.000000	24.000000	51.000000
1.050000	22.110000	80.530000	906.000000	0.000000	112.000000	60.000000	15.000000	59.000000
1.060000	22.190000	80.970000	908.000000	0.000000	112.000000	60.000000	8.000000	44.000000
1.070000	22.190000	81.240000	924.000000	0.000000	112.000000	60.000000	0.000000	27.000000
1.080000	22.190000	81.410000	935.000000	0.000000	113.000000	61.000000	0.000000	17.000000
1.090000	22.190000	81.410000	942.000000	0.000000	113.000000	61.000000	0.000000	0.000000
1.100000	22.190000	81.410000	944.000000	0.000000	114.000000	61.000000	0.000000	0.000000
1.110000	22.190000	81.350000	951.000000	0.000000	114.000000	61.000000	0.000000	-6.000000
1.120000	22.190000	81.190000	940.000000	0.000000	114.000000	61.000000	0.000000	-16.000000
1.130000	22.120000	80.810000	947.000000	0.000000	114.000000	61.000000	-7.000000	-38.000000
1.140000	22.040000	80.300000	952.000000	0.000000	114.000000	61.000000	-8.000000	-51.000000
1.150000	21.930000	79.860000	953.000000	0.000000	114.000000	61.000000	-11.000000	-44.000000
1.160000	21.930000	79.520000	953.000000	0.000000	114.000000	61.000000	0.000000	-34.000000
1.170000	21.930000	79.250000	949.000000	0.000000	114.000000	61.000000	0.000000	-27.000000
1.180000	21.990000	79.060000	933.000000	0.000000	114.000000	61.000000	6.000000	-19.000000
1.190000	22.100000	79.000000	939.000000	0.000000	113.000000	61.000000	11.000000	-6.000000
1.200000	22.230000	79.000000	930.000000	0.000000	112.000000	60.000000	13.000000	0.000000
1.210000	22.410000	79.220000	920.000000	0.000000	112.000000	60.000000	18.000000	22.000000
1.220000	22.620000	79.590000	908.000000	0.000000	112.000000	60.000000	21.000000	37.000000
1.230000	22.830000	80.100000	908.000000	0.000000	112.000000	60.000000	21.000000	51.000000
1.240000	22.970000	80.540000	909.000000	0.000000	113.000000	61.000000	14.000000	44.000000
1.250000	23.070000	80.950000	911.000000	0.000000	113.000000	61.000000	10.000000	41.000000
1.260000	23.130000	81.180000	914.000000	0.000000	113.000000	61.000000	6.000000	23.000000
1.270000	23.130000	81.310000	923.000000	0.000000	113.000000	61.000000	0.000000	13.000000
1.280000	23.080000	81.310000	926.000000	0.000000	113.000000	61.000000	-5.000000	0.000000
1.290000	23.080000	81.310000	930.000000	0.000000	114.000000	61.000000	0.000000	0.000000
1.300000	23.080000	81.220000	935.000000	0.000000	114.000000	61.000000	0.000000	-9.000000
1.310000	23.080000	80.950000	944.000000	0.000000	114.000000	61.000000	0.000000	-27.000000
1.320000	23.080000	80.540000	933.000000	0.000000	114.000000	61.000000	0.000000	-41.000000
1.330000	23.130000	80.080000	941.000000	0.000000	114.000000	61.000000	5.000000	-46.000000
1.340000	23.130000	79.690000	938.000000	0.000000	114.000000	61.000000	0.000000	-39.000000
1.350000	23.220000	79.430000	951.000000	0.000000	114.000000	61.000000	9.000000	-26.000000
1.360000	23.280000	79.230000	926.000000	0.000000	113.000000	61.000000	6.000000	-20.000000
1.370000	23.280000	79.230000	906.000000	0.000000	113.000000	61.000000	0.000000	0.000000
1.380000	23.370000	79.300000	897.000000	0.000000	113.000000	61.000000	9.000000	7.000000
1.390000	23.450000	79.480000	887.000000	0.000000	113.000000	61.000000	8.000000	18.000000
1.400000	23.560000	79.890000	855.000000	0.000000	113.000000	61.000000	11.000000	41.000000
1.410000	23.650000	80.330000	869.000000	0.000000	113.000000	61.000000	9.000000	44.000000
1.420000	23.700000	80.790000	854.000000	0.000000	113.000000	61.000000	5.000000	46.000000
1.430000	23.750000	81.010000	858.000000	0.000000	113.000000	61.000000	5.000000	22.000000
1.440000	23.750000	81.180000	863.000000	0.000000	113.000000	61.000000	0.000000	17.000000
1.450000	23.750000	81.230000	861.000000	0.000000	113.000000	61.000000	0.000000	5.000000
1.460000	23.750000	81.180000	854.000000	0.000000	113.000000	61.000000	0.000000	-5.000000
1.470000	23.750000	81.020000	858.000000	0.000000	114.000000	61.000000	0.000000	-16.000000
1.480000	23.750000	80.750000	823.000000	0.000000	114.000000	61.000000	0.000000	-27.000000
1.490000	23.750000	80.470000	753.000000	0.000000	114.000000	61.000000	0.000000	-28.000000
1.500000	23.750000	80.180000	619.000000	0.000000	114.000000	61.000000	0.000000	-29.000000
1.510000	23.750000	79.920000	284.000000	0.000000	114.000000	61.000000	0.000000	-26.000000
1.520000	23.750000	79.920000	0.000000	1.000000	114.000000	61.000000	0.000000	0.000000
1.530000	23.750000	79.600000	0.000000	0.000000	113.000000	61.000000	0.000000	-32.000000
1.540000	23.800000	79.660000	0.000000	0.000000	113.000000	61.000000	5.000000	6.000000
1.550000	23.800000	79.750000	0.000000	0.000000	113.000000	61.000000	0.000000	9.000000
1.560000	23.800000	79.750000	0.000000	0.000000	111.000000	61.000000	0.000000	0.000000
1.570000	23.800000	79.750000	0.000000	0.000000	110.000000	60.000000	0.000000	0.000000
1.580000	24.110000	80.060000	0.000000	0.000000	108.000000	61.000000	31.000000	31.000000
1.590000	24.310000	80.160000	0.000000	0.000000	108.000000	61.000000	20.000000	10.000000
1.600000	24.510000	80.270000	0.000000	0.000000	107.000000	61.000000	20.000000	11.000000
1.610000	24.610000	80.350000	0.000000	0.000000	106.000000	60.000000	10.000000	8.000000
1.620000	24.610000	80.420000	0.000000	0.000000	106.000000	60.000000	0.000000	7.000000
1.630000	24.660000	80.480000	0.000000	0.000000	107.000000	61.000000	5.000000	6.000000
1.640000	24.660000	80.480000	0.000000	0.000000	107.000000	61.000000	0.000000	0.000000
1.650000	24.660000	80.480000	163.000000	1.000000	108.000000	61.000000	0.000000	0.000000
1.660000	24.660000	80.480000	247.000000	0.000000	108.000000	61.000000	0.000000	0.000000
1.670000	24.660000	80.480000	299.000000	0.000000	109.000000	62.000000	0.000000	0.000000
1.680000	24.660000	80.480000	332.000000	0.000000	111.000000	61.000000	0.000000	0.000000
1.690000	24.660000	80.480000	344.000000	0.000000	111.000000	61.000000	0.000000	0.000000
1.700000	24.660000	80.480000	334.000000	0.000000	111.000000	61.000000	0.000000	0.000000
1.710000	24.660000	80.480000	341.000000	0.000000	114.000000	62.000000	0.000000	0.000000
1.720000	24.660000	80.480000	344.000000	0.000000	114.000000	62.000000	0.000000	0.000000
1.730000	24.660000	80.480000	343.000000	0.000000	114.000000	62.000000	0.000000	0.000000
1.740000	24.660000	80.480000	349.000000	0.000000	114.000000	62.000000	0.000000	0.000000
1.750000	24.660000	80.480000	364.000000	0.000000	114.000000	62.000000	0.000000	0.000000
1.760000	24.660000	80.480000	422.000000	0.000000	115.000000	62.000000	0.000000	0.000000
1.770000	24.660000	80.480000	495.000000	0.000000	115.000000	62.000000	0.000000	0.000000
1.780000	24.660000	80.480000	564.000000	0.000000	115.000000	62.000000	0.000000	0.000000
1.790000	24.660000	80.480000	609.000000	0.000000	114.000000	61.000000	0.000000	0.000000
1.800000	24.660000	80.480000	641.000000	0.000000	114.000000	61.000000	0.000000	0.000000
1.810000	24.660000	80.480000	664.000000	0.000000	114.000000	61.000000	0.000000	0.000000
1.820000	24.660000	80.480000	664.000000	0.000000	114.000000	61.000000	0.000000	0.000000
1.830000	24.660000	80.480000	670.000000	0.000000	114.000000	61.000000	0.000000	0.000000
1.840000	24.660000	80.480000	675.000000	0.000000	114.000000	61.000000	0.000000	0.000000
1.850000	24.920000	80.410000	684.000000	0.000000	114.000000	61.000000	26.000000	-7.000000
1.860000	24.920000	80.470000	699.000000	0.000000	114.000000	61.000000	0.000000	6.000000
1.870000	24.990000	80.530000	707.000000	0.000000	114.000000	61.000000	7.000000	6.000000
1.880000	24.990000	80.530000	722.000000	0.000000	114.000000	61.000000	0.000000	0.000000
1.890000	24.990000	80.580000	731.000000	0.000000	114.000000	61.000000	0.000000	5.000000
1.900000	25.050000	80.580000	725.000000	0.000000	114.000000	61.000000	6.000000	0.000000
1.910000	25.050000	80.650000	748.000000	0.000000	114.000000	61.000000	0.000000	7.000000
1.920000	25.160000	80.720000	751.000000	0.000000	114.000000	61.000000	11.000000	7.000000
1.930000	25.280000	80.890000	765.000000	0.000000	114.000000	61.000000	12.000000	17.000000
1.940000	25.480000	81.270000	762.000000	0.000000	115.000000	62.000000	20.000000	38.000000
1.950000	25.740000	81.790000	762.000000	0.000000	115.000000	62.000000	26.000000	52.000000
1.960000	26.010000	82.440000	749.000000	0.000000	115.000000	62.000000	27.000000	65.000000
1.970000	26.190000	83.240000	728.000000	0.000000	115.000000	62.000000	18.000000	80.000000
1.980000	26.310000	84.140000	725.000000	0.000000	117.000000	61.000000	12.000000	90.000000
1.990000	26.420000	84.880000	731.000000	0.000000	116.000000	63.000000	11.000000	74.000000
2.000000	26.420000	85.210000	751.000000	0.000000	116.000000	63.000000	0.000000	33.000000
2.010000	26.340000	85.270000	758.000000	0.000000	116.000000	63.000000	-8.000000	6.000000
2.020000	26.210000	85.210000	753.000000	0.000000	116.000000	63.000000	-13.000000	-6.000000
2.030000	26.010000	84.910000	760.000000	0.000000	115.000000	63.000000	-20.000000	-30.000000
2.040000	25.770000	84.460000	767.000000	0.000000	115.000000	63.000000	-24.000000	-45.000000
2.050000	25.550000	83.760000	790.000000	0.000000	115.000000	63.000000	-22.000000	-70.000000
2.060000	25.390000	83.020000	806.000000	0.000000	115.000000	63.000000	-16.000000	-74.000000
2.070000	25.300000	82.200000	843.000000	0.000000	115.000000	63.000000	-9.000000	-82.000000
2.080000	25.300000	81.320000	854.000000	0.000000	116.000000	63.000000	0.000000	-88.000000
2.090000	25.240000	80.450000	861.000000	0.000000	116.000000	63.000000	-6.000000	-87.000000
2.100000	25.240000	79.720000	867.000000	0.000000	115.000000	62.000000	0.000000	-73.000000
2.110000	25.310000	79.080000	817.000000	0.000000	115.000000	62.000000	7.000000	-64.000000
2.120000	25.360000	78.610000	757.000000	0.000000	115.000000	62.000000	5.000000	-47.000000
2.130000	25.420000	78.380000	516.000000	0.000000	115.000000	62.000000	6.000000	-23.000000
2.140000	25.490000	78.310000	50.000000	0.000000	114.000000	62.000000	7.000000	-7.000000
2.150000	25.490000	78.310000	0.000000	1.000000	114.000000	62.000000	0.000000	0.000000
2.160000	25.800000	79.340000	0.000000	0.000000	114.000000	62.000000	31.000000	103.000000
2.170000	26.050000	80.370000	0.000000	0.000000	112.000000	62.000000	25.000000	103.000000
2.180000	26.360000	81.330000	0.000000	0.000000	112.000000	62.000000	31.000000	96.000000
2.190000	26.740000	81.990000	0.000000	0.000000	112.000000	62.000000	38.000000	66.000000
2.200000	27.160000	82.450000	0.000000	0.000000	112.000000	62.000000	42.000000	46.000000
2.210000	27.590000	82.570000	0.000000	0.000000	112.000000	62.000000	43.000000	12.000000
2.220000	27.980000	82.640000	0.000000	0.000000	111.000000	61.000000	39.000000	7.000000
