t	x	y	pressure	penup	azimuth	inclination	v_x	v_y
0.000000	17.370000	17.930000	60.000000	1.000000	112.000000	56.000000	0.000000	0.000000
0.010000	17.370000	18.420000	132.000000	0.000000	112.000000	55.000000	0.000000	49.000000
0.020000	17.320000	18.900000	260.000000	0.000000	112.000000	55.000000	-5.000000	48.000000
0.030000	17.320000	19.250000	366.000000	0.000000	112.000000	54.000000	0.000000	35.000000
0.040000	17.260000	19.560000	465.000000	0.000000	112.000000	54.000000	-6.000000	31.000000
0.050000	17.260000	19.780000	536.000000	0.000000	111.000000	53.000000	0.000000	22.000000
0.060000	17.200000	19.930000	614.000000	0.000000	111.000000	53.000000	-6.000000	15.000000
0.070000	17.200000	19.930000	655.000000	0.000000	112.000000	53.000000	0.000000	0.000000
0.080000	17.200000	19.930000	673.000000	0.000000	112.000000	53.000000	0.000000	0.000000
0.090000	17.200000	19.930000	685.000000	0.000000	112.000000	53.000000	0.000000	0.000000
0.100000	17.200000	19.790000	693.000000	0.000000	112.000000	53.000000	0.000000	-14.000000
0.110000	17.310000	19.410000	710.000000	0.000000	112.000000	53.000000	11.000000	-38.000000
0.120000	17.450000	18.870000	725.000000	0.000000	113.000000	54.000000	14.000000	-54.000000
0.130000	17.610000	17.900000	727.000000	0.000000	113.000000	54.000000	16.000000	-97.000000
0.140000	17.810000	16.890000	734.000000	0.000000	114.000000	53.000000	20.000000	-101.000000
0.150000	18.010000	15.830000	745.000000	0.000000	115.000000	54.000000	20.000000	-106.000000
0.160000	18.060000	14.720000	745.000000	0.000000	115.000000	54.000000	5.000000	-111.000000
0.170000	17.990000	13.570000	748.000000	0.000000	117.000000	54.000000	-7.000000	-115.000000
0.180000	17.860000	12.400000	754.000000	0.000000	117.000000	55.000000	-13.000000	-117.000000
0.190000	17.660000	11.360000	754.000000	0.000000	117.000000	55.000000	-20.000000	-104.000000
0.200000	17.420000	10.630000	754.000000	0.000000	118.000000	56.000000	-24.000000	-73.000000
0.210000	17.140000	10.070000	777.000000	0.000000	120.000000	55.000000	-28.000000	-56.000000
0.220000	16.800000	9.800000	777.000000	0.000000	120.000000	55.000000	-34.000000	-27.000000
0.230000	16.430000	9.740000	791.000000	0.000000	121.000000	56.000000	-37.000000	-6.000000
0.240000	16.140000	9.820000	793.000000	0.000000	121.000000	56.000000	-29.000000	8.000000
0.250000	15.880000	10.160000	785.000000	0.000000	122.000000	57.000000	-26.000000	34.000000
0.260000	15.680000	10.650000	780.000000	0.000000	124.000000	57.000000	-20.000000	49.000000
0.270000	15.680000	11.230000	762.000000	0.000000	127.000000	59.000000	0.000000	58.000000
0.280000	15.680000	12.000000	746.000000	0.000000	128.000000	59.000000	0.000000	77.000000
0.290000	15.820000	12.760000	717.000000	0.000000	129.000000	60.000000	14.000000	76.000000
0.300000	15.910000	13.210000	661.000000	0.000000	129.000000	61.000000	9.000000	45.000000
0.310000	16.000000	13.460000	539.000000	0.000000	130.000000	62.000000	9.000000	25.000000
0.320000	16.120000	13.460000	369.000000	0.000000	130.000000	62.000000	12.000000	0.000000
0.330000	16.310000	13.460000	131.000000	0.000000	127.000000	62.000000	19.000000	0.000000
0.340000	16.310000	13.460000	0.000000	1.000000	125.000000	60.000000	0.000000	0.000000
0.350000	16.870000	13.040000	0.000000	0.000000	123.000000	59.000000	56.000000	-42.000000
0.360000	17.080000	12.740000	0.000000	0.000000	121.000000	58.000000	21.000000	-30.000000
0.370000	17.340000	12.450000	0.000000	0.000000	120.000000	57.000000	26.000000	-29.000000
0.380000	17.610000	12.160000	0.000000	0.000000	122.000000	57.000000	27.000000	-29.000000
0.390000	17.920000	11.880000	0.000000	0.000000	121.000000	56.000000	31.000000	-28.000000
0.400000	18.250000	11.660000	0.000000	0.000000	122.000000	56.000000	33.000000	-22.000000
0.410000	18.560000	11.440000	0.000000	0.000000	122.000000	56.000000	31.000000	-22.000000
0.420000	18.800000	11.330000	0.000000	0.000000	122.000000	56.000000	24.000000	-11.000000
0.430000	18.990000	11.330000	0.000000	0.000000	124.000000	55.000000	19.000000	0.000000
0.440000	19.100000	11.330000	0.000000	0.000000	124.000000	55.000000	11.000000	0.000000
0.450000	19.180000	11.410000	0.000000	0.000000	122.000000	56.000000	8.000000	8.000000
0.460000	19.250000	11.530000	0.000000	0.000000	121.000000	55.000000	7.000000	12.000000
0.470000	19.320000	11.620000	0.000000	0.000000	122.000000	56.000000	7.000000	9.000000
0.480000	19.320000	11.620000	107.000000	1.000000	121.000000	56.000000	0.000000	0.000000
0.490000	19.320000	11.620000	163.000000	0.000000	119.000000	56.000000	0.000000	0.000000
0.500000	19.320000	11.620000	218.000000	0.000000	119.000000	56.000000	0.000000	0.000000
0.510000	19.320000	11.620000	259.000000	0.000000	118.000000	57.000000	0.000000	0.000000
0.520000	19.320000	11.620000	287.000000	0.000000	116.000000	57.000000	0.000000	0.000000
0.530000	19.410000	11.910000	287.000000	0.000000	116.000000	57.000000	9.000000	29.000000
0.540000	19.460000	12.030000	301.000000	0.000000	115.000000	58.000000	5.000000	12.000000
0.550000	19.510000	12.130000	342.000000	0.000000	115.000000	58.000000	5.000000	10.000000
0.560000	19.510000	12.240000	364.000000	0.000000	115.000000	58.000000	0.000000	11.000000
0.570000	19.580000	12.360000	394.000000	0.000000	115.000000	58.000000	7.000000	12.000000
0.580000	19.580000	12.500000	433.000000	0.000000	115.000000	58.000000	0.000000	14.000000
0.590000	19.520000	12.660000	478.000000	0.000000	115.000000	58.000000	-6.000000	16.000000
0.600000	19.460000	12.770000	512.000000	0.000000	115.000000	58.000000	-6.000000	11.000000
0.610000	19.370000	12.840000	562.000000	0.000000	115.000000	58.000000	-9.000000	7.000000
0.620000	19.320000	12.840000	578.000000	0.000000	115.000000	58.000000	-5.000000	0.000000
0.630000	19.260000	12.840000	586.000000	0.000000	115.000000	58.000000	-6.000000	0.000000
0.640000	19.160000	12.720000	595.000000	0.000000	115.000000	58.000000	-10.000000	-12.000000
0.650000	19.040000	12.550000	591.000000	0.000000	115.000000	58.000000	-12.000000	-17.000000
0.660000	18.960000	12.300000	620.000000	0.000000	115.000000	58.000000	-8.000000	-25.000000
0.670000	18.880000	11.980000	622.000000	0.000000	115.000000	58.000000	-8.000000	-32.000000
0.680000	18.810000	11.570000	627.000000	0.000000	115.000000	58.000000	-7.000000	-41.000000
0.690000	18.740000	11.100000	630.000000	0.000000	115.000000	58.000000	-7.000000	-47.000000
0.700000	18.670000	10.760000	636.000000	0.000000	116.000000	57.000000	-7.000000	-34.000000
0.710000	18.670000	10.470000	631.000000	0.000000	116.000000	57.000000	0.000000	-29.000000
0.720000	18.750000	10.220000	634.000000	0.000000	116.000000	57.000000	8.000000	-25.000000
0.730000	18.850000	10.040000	614.000000	0.000000	116.000000	57.000000	10.000000	-18.000000
0.740000	18.960000	9.980000	617.000000	0.000000	118.000000	57.000000	11.000000	-6.000000
0.750000	19.090000	9.980000	620.000000	0.000000	118.000000	57.000000	13.000000	0.000000
0.760000	19.220000	10.120000	611.000000	0.000000	118.000000	57.000000	13.000000	14.000000
0.770000	19.340000	10.430000	617.000000	0.000000	118.000000	57.000000	12.000000	31.000000
0.780000	19.530000	10.880000	620.000000	0.000000	118.000000	57.000000	19.000000	45.000000
0.790000	19.670000	11.430000	611.000000	0.000000	118.000000	57.000000	14.000000	55.000000
0.800000	19.780000	12.050000	600.000000	0.000000	116.000000	57.000000	11.000000	62.000000
0.810000	19.780000	12.710000	602.000000	0.000000	116.000000	57.000000	0.000000	66.000000
0.820000	19.840000	13.040000	606.000000	0.000000	115.000000	58.000000	6.000000	33.000000
0.830000	19.840000	13.320000	610.000000	0.000000	115.000000	58.000000	0.000000	28.000000
0.840000	19.840000	13.400000	627.000000	0.000000	113.000000	58.000000	0.000000	8.000000
0.850000	19.780000	13.400000	628.000000	0.000000	113.000000	58.000000	-6.000000	0.000000
0.860000	19.780000	13.300000	636.000000	0.000000	113.000000	58.000000	0.000000	-10.000000
0.870000	19.780000	13.210000	645.000000	0.000000	113.000000	57.000000	0.000000	-9.000000
0.880000	19.780000	12.900000	637.000000	0.000000	113.000000	57.000000	0.000000	-31.000000
0.890000	19.780000	12.470000	641.000000	0.000000	113.000000	57.000000	0.000000	-43.000000
0.900000	19.780000	11.860000	644.000000	0.000000	113.000000	58.000000	0.000000	-61.000000
0.910000	19.780000	11.350000	650.000000	0.000000	113.000000	58.000000	0.000000	-51.000000
0.920000	19.840000	10.900000	649.000000	0.000000	115.000000	58.000000	6.000000	-45.000000
0.930000	19.940000	10.600000	644.000000	0.000000	115.000000	58.000000	10.000000	-30.000000
0.940000	20.040000	10.360000	641.000000	0.000000	115.000000	58.000000	10.000000	-24.000000
0.950000	20.160000	10.160000	631.000000	0.000000	115.000000	58.000000	12.000000	-20.000000
0.960000	20.300000	10.090000	617.000000	0.000000	115.000000	58.000000	14.000000	-7.000000
0.970000	20.440000	10.150000	620.000000	0.000000	115.000000	58.000000	14.000000	6.000000
0.980000	20.600000	10.290000	620.000000	0.000000	116.000000	57.000000	16.000000	14.000000
0.990000	20.780000	10.630000	620.000000	0.000000	115.000000	58.000000	18.000000	34.000000
1.000000	20.970000	11.110000	617.000000	0.000000	115.000000	58.000000	19.000000	48.000000
1.010000	21.090000	11.680000	620.000000	0.000000	115.000000	58.000000	12.000000	57.000000
1.020000	21.150000	12.250000	620.000000	0.000000	113.000000	58.000000	6.000000	57.000000
1.030000	21.150000	12.620000	610.000000	0.000000	113.000000	58.000000	0.000000	37.000000
1.040000	21.150000	12.860000	614.000000	0.000000	113.000000	58.000000	0.000000	24.000000
1.050000	21.150000	12.960000	627.000000	0.000000	112.000000	58.000000	0.000000	10.000000
1.060000	21.150000	13.010000	631.000000	0.000000	112.000000	58.000000	0.000000	5.000000
1.070000	21.150000	12.950000	642.000000	0.000000	112.000000	58.000000	0.000000	-6.000000
1.080000	21.150000	12.840000	640.000000	0.000000	112.000000	58.000000	0.000000	-11.000000
1.090000	21.150000	12.520000	656.000000	0.000000	112.000000	58.000000	0.000000	-32.000000
1.100000	21.150000	12.080000	671.000000	0.000000	112.000000	58.000000	0.000000	-44.000000
1.110000	21.150000	11.510000	673.000000	0.000000	112.000000	58.000000	0.000000	-57.000000
1.120000	21.100000	10.940000	666.000000	0.000000	112.000000	58.000000	-5.000000	-57.000000
1.130000	21.100000	10.560000	664.000000	0.000000	113.000000	59.000000	0.000000	-38.000000
1.140000	21.180000	10.300000	668.000000	0.000000	114.000000	59.000000	8.000000	-26.000000
1.150000	21.300000	10.090000	641.000000	0.000000	114.000000	59.000000	12.000000	-21.000000
1.160000	21.420000	10.090000	641.000000	0.000000	114.000000	59.000000	12.000000	0.000000
1.170000	21.560000	10.090000	639.000000	0.000000	114.000000	59.000000	14.000000	0.000000
1.180000	21.710000	10.410000	634.000000	0.000000	114.000000	59.000000	15.000000	32.000000
1.190000	21.900000	10.860000	619.000000	0.000000	114.000000	59.000000	19.000000	45.000000
1.200000	22.090000	11.430000	616.000000	0.000000	114.000000	59.000000	19.000000	57.000000
1.210000	22.160000	12.000000	619.000000	0.000000	113.000000	59.000000	7.000000	57.000000
1.220000	22.160000	12.520000	636.000000	0.000000	113.000000	59.000000	0.000000	52.000000
1.230000	22.160000	12.750000	644.000000	0.000000	113.000000	59.000000	0.000000	23.000000
1.240000	22.160000	12.750000	662.000000	0.000000	111.000000	59.000000	0.000000	0.000000
1.250000	22.160000	12.750000	662.000000	0.000000	111.000000	59.000000	0.000000	0.000000
1.260000	22.160000	12.750000	665.000000	0.000000	111.000000	59.000000	0.000000	0.000000
1.270000	22.160000	12.750000	667.000000	0.000000	111.000000	59.000000	0.000000	0.000000
1.280000	22.210000	12.230000	663.000000	0.000000	111.000000	59.000000	5.000000	-52.000000
1.290000	22.210000	11.820000	669.000000	0.000000	111.000000	59.000000	0.000000	-41.000000
1.300000	22.210000	11.400000	669.000000	0.000000	111.000000	59.000000	0.000000	-42.000000
1.310000	22.210000	11.030000	667.000000	0.000000	111.000000	59.000000	0.000000	-37.000000
1.320000	22.210000	10.700000	661.000000	0.000000	111.000000	59.000000	0.000000	-33.000000
1.330000	22.320000	10.470000	611.000000	0.000000	111.000000	59.000000	11.000000	-23.000000
1.340000	22.320000	10.360000	452.000000	0.000000	111.000000	59.000000	0.000000	-11.000000
1.350000	22.390000	10.360000	144.000000	0.000000	113.000000	59.000000	7.000000	0.000000
1.360000	22.390000	10.360000	0.000000	1.000000	113.000000	59.000000	0.000000	0.000000
1.370000	22.450000	10.690000	0.000000	0.000000	113.000000	59.000000	6.000000	33.000000
1.380000	22.530000	11.070000	0.000000	0.000000	113.000000	59.000000	8.000000	38.000000
1.390000	22.530000	11.400000	0.000000	0.000000	113.000000	59.000000	0.000000	33.000000
1.400000	22.650000	11.730000	0.000000	0.000000	112.000000	58.000000	12.000000	33.000000
1.410000	22.740000	11.870000	0.000000	0.000000	112.000000	58.000000	9.000000	14.000000
1.420000	22.830000	11.870000	0.000000	0.000000	113.000000	58.000000	9.000000	0.000000
1.430000	22.830000	11.810000	0.000000	0.000000	113.000000	57.000000	0.000000	-6.000000
1.440000	22.830000	11.680000	0.000000	0.000000	113.000000	57.000000	0.000000	-13.000000
1.450000	22.880000	11.460000	0.000000	0.000000	113.000000	57.000000	5.000000	-22.000000
1.460000	22.880000	11.460000	187.000000	1.000000	112.000000	58.000000	0.000000	0.000000
1.470000	22.880000	11.070000	247.000000	0.000000	112.000000	58.000000	0.000000	-39.000000
1.480000	22.740000	10.990000	312.000000	0.000000	112.000000	58.000000	-14.000000	-8.000000
1.490000	22.740000	10.910000	338.000000	0.000000	113.000000	59.000000	0.000000	-8.000000
1.500000	22.740000	10.850000	353.000000	0.000000	113.000000	59.000000	0.000000	-6.000000
1.510000	22.820000	10.850000	354.000000	0.000000	113.000000	59.000000	8.000000	0.000000
1.520000	22.870000	10.850000	369.000000	0.000000	113.000000	60.000000	5.000000	0.000000
1.530000	22.950000	10.850000	398.000000	0.000000	113.000000	60.000000	8.000000	0.000000
1.540000	23.050000	11.020000	397.000000	0.000000	113.000000	60.000000	10.000000	17.000000
1.550000	23.160000	11.220000	409.000000	0.000000	113.000000	60.000000	11.000000	20.000000
1.560000	23.280000	11.440000	409.000000	0.000000	112.000000	60.000000	12.000000	22.000000
1.570000	23.370000	11.730000	397.000000	0.000000	111.000000	59.000000	9.000000	29.000000
1.580000	23.450000	12.070000	397.000000	0.000000	111.000000	59.000000	8.000000	34.000000
1.590000	23.450000	12.260000	402.000000	0.000000	111.000000	59.000000	0.000000	19.000000
1.600000	23.450000	12.380000	407.000000	0.000000	109.000000	60.000000	0.000000	12.000000
1.610000	23.450000	12.380000	423.000000	0.000000	109.000000	60.000000	0.000000	0.000000
1.620000	23.370000	12.290000	461.000000	0.000000	109.000000	60.000000	-8.000000	-9.000000
1.630000	23.290000	12.130000	488.000000	0.000000	109.000000	60.000000	-8.000000	-16.000000
1.640000	23.190000	11.740000	535.000000	0.000000	109.000000	60.000000	-10.000000	-39.000000
1.650000	23.100000	11.200000	542.000000	0.000000	109.000000	60.000000	-9.000000	-54.000000
1.660000	23.040000	10.770000	553.000000	0.000000	109.000000	60.000000	-6.000000	-43.000000
1.670000	23.040000	10.440000	559.000000	0.000000	111.000000	59.000000	0.000000	-33.000000
1.680000	23.150000	10.180000	556.000000	0.000000	111.000000	59.000000	11.000000	-26.000000
1.690000	23.310000	9.950000	551.000000	0.000000	111.000000	59.000000	16.000000	-23.000000
1.700000	23.490000	9.870000	542.000000	0.000000	112.000000	60.000000	18.000000	-8.000000
1.710000	23.670000	9.870000	546.000000	0.000000	113.000000	60.000000	18.000000	0.000000
1.720000	23.930000	10.080000	565.000000	0.000000	113.000000	60.000000	26.000000	21.000000
1.730000	24.180000	10.390000	570.000000	0.000000	113.000000	60.000000	25.000000	31.000000
1.740000	24.380000	10.780000	563.000000	0.000000	113.000000	60.000000	20.000000	39.000000
1.750000	24.540000	11.420000	560.000000	0.000000	112.000000	60.000000	16.000000	64.000000
1.760000	24.730000	12.370000	564.000000	0.000000	112.000000	60.000000	19.000000	95.000000
1.770000	24.950000	13.540000	512.000000	0.000000	112.000000	60.000000	22.000000	117.000000
1.780000	25.210000	14.820000	440.000000	0.000000	112.000000	60.000000	26.000000	128.000000
1.790000	25.210000	16.250000	418.000000	0.000000	112.000000	60.000000	0.000000	143.000000
1.800000	25.140000	17.790000	422.000000	0.000000	112.000000	60.000000	-7.000000	154.000000
1.810000	25.060000	18.480000	445.000000	0.000000	111.000000	59.000000	-8.000000	69.000000
1.820000	25.060000	18.630000	468.000000	0.000000	111.000000	59.000000	0.000000	15.000000
1.830000	24.960000	18.420000	477.000000	0.000000	111.000000	59.000000	-10.000000	-21.000000
1.840000	24.800000	18.140000	510.000000	0.000000	111.000000	59.000000	-16.000000	-28.000000
1.850000	24.750000	17.330000	521.000000	0.000000	113.000000	59.000000	-5.000000	-81.000000
1.860000	24.700000	16.160000	568.000000	0.000000	112.000000	58.000000	-5.000000	-117.000000
1.870000	24.700000	15.100000	605.000000	0.000000	112.000000	58.000000	0.000000	-106.000000
1.880000	24.700000	14.050000	630.000000	0.000000	113.000000	59.000000	0.000000	-105.000000
1.890000	24.860000	13.020000	634.000000	0.000000	113.000000	59.000000	16.000000	-103.000000
1.900000	24.990000	12.000000	639.000000	0.000000	111.000000	59.000000	13.000000	-102.000000
1.910000	25.080000	11.160000	628.000000	0.000000	111.000000	59.000000	9.000000	-84.000000
1.920000	25.140000	10.450000	595.000000	0.000000	112.000000	60.000000	6.000000	-71.000000
1.930000	25.230000	10.000000	485.000000	0.000000	112.000000	60.000000	9.000000	-45.000000
1.940000	25.320000	9.840000	241.000000	0.000000	112.000000	60.000000	9.000000	-16.000000
1.950000	25.320000	9.840000	0.000000	1.000000	111.000000	61.000000	0.000000	0.000000
1.960000	25.380000	10.170000	0.000000	0.000000	111.000000	61.000000	6.000000	33.000000
1.970000	25.490000	10.680000	0.000000	0.000000	111.000000	61.000000	11.000000	51.000000
1.980000	25.560000	11.340000	0.000000	0.000000	111.000000	61.000000	7.000000	66.000000
1.990000	25.760000	11.990000	0.000000	0.000000	113.000000	61.000000	20.000000	65.000000
2.000000	26.030000	12.600000	0.000000	0.000000	113.000000	61.000000	27.000000	61.000000
2.010000	26.320000	12.980000	0.000000	0.000000	113.000000	61.000000	29.000000	38.000000
2.020000	26.550000	13.220000	0.000000	0.000000	113.000000	61.000000	23.000000	24.000000
2.030000	26.640000	13.220000	0.000000	0.000000	113.000000	61.000000	9.000000	0.000000
2.040000	26.640000	13.110000	0.000000	0.000000	112.000000	60.000000	0.000000	-11.000000
2.050000	26.640000	12.870000	0.000000	0.000000	111.000000	59.000000	0.000000	-24.000000
2.060000	26.640000	12.870000	233.000000	1.000000	111.000000	59.000000	0.000000	0.000000
2.070000	26.580000	12.190000	322.000000	0.000000	111.000000	59.000000	-6.000000	-68.000000
2.080000	26.450000	11.920000	409.000000	0.000000	109.000000	59.000000	-13.000000	-27.000000
2.090000	26.450000	11.720000	474.000000	0.000000	109.000000	59.000000	0.000000	-20.000000
2.100000	26.450000	11.600000	492.000000	0.000000	109.000000	60.000000	0.000000	-12.000000
2.110000	26.540000	11.540000	535.000000	0.000000	108.000000	60.000000	9.000000	-6.000000
2.120000	26.590000	11.540000	565.000000	0.000000	108.000000	60.000000	5.000000	0.000000
2.130000	26.660000	11.540000	603.000000	0.000000	106.000000	60.000000	7.000000	0.000000
2.140000	26.790000	11.820000	619.000000	0.000000	106.000000	60.000000	13.000000	28.000000
2.150000	26.980000	12.280000	624.000000	0.000000	106.000000	60.000000	19.000000	46.000000
2.160000	27.230000	13.010000	628.000000	0.000000	106.000000	60.000000	25.000000	73.000000
2.170000	27.500000	14.060000	619.000000	0.000000	105.000000	59.000000	27.000000	105.000000
2.180000	27.790000	15.320000	560.000000	0.000000	105.000000	59.000000	29.000000	126.000000
2.190000	27.910000	16.900000	522.000000	0.000000	107.000000	59.000000	12.000000	158.000000
2.200000	27.910000	18.470000	520.000000	0.000000	106.000000	58.000000	0.000000	157.000000
2.210000	27.840000	19.540000	519.000000	0.000000	108.000000	58.000000	-7.000000	107.000000
