t	x	y	pressure	penup	azimuth	inclination	v_x	v_y
0.000000	14.500000	24.630000	172.000000	1.000000	122.000000	67.000000	0.000000	0.000000
0.010000	14.500000	24.630000	371.000000	0.000000	120.000000	67.000000	0.000000	0.000000
0.020000	14.500000	24.630000	433.000000	0.000000	119.000000	66.000000	0.000000	0.000000
0.030000	14.500000	24.630000	526.000000	0.000000	117.000000	67.000000	0.000000	0.000000
0.040000	14.500000	24.630000	589.000000	0.000000	117.000000	67.000000	0.000000	0.000000
0.050000	14.500000	24.630000	656.000000	0.000000	116.000000	66.000000	0.000000	0.000000
0.060000	14.500000	24.630000	710.000000	0.000000	114.000000	66.000000	0.000000	0.000000
0.070000	14.500000	24.630000	728.000000	0.000000	114.000000	66.000000	0.000000	0.000000
0.080000	15.050000	24.960000	770.000000	0.000000	114.000000	66.000000	55.000000	33.000000
0.090000	15.820000	26.100000	803.000000	0.000000	113.000000	65.000000	77.000000	114.000000
0.100000	17.400000	27.790000	818.000000	0.000000	113.000000	65.000000	158.000000	169.000000
0.110000	19.470000	29.860000	827.000000	0.000000	112.000000	64.000000	207.000000	207.000000
0.120000	21.870000	31.880000	828.000000	0.000000	113.000000	63.000000	240.000000	202.000000
0.130000	24.070000	33.810000	825.000000	0.000000	113.000000	63.000000	220.000000	193.000000
0.140000	26.040000	35.300000	825.000000	0.000000	112.000000	62.000000	197.000000	149.000000
0.150000	27.850000	36.540000	818.000000	0.000000	114.000000	62.000000	181.000000	124.000000
0.160000	28.980000	37.070000	790.000000	0.000000	113.000000	61.000000	113.000000	53.000000
0.170000	29.540000	37.220000	767.000000	0.000000	112.000000	60.000000	56.000000	15.000000
0.180000	29.710000	37.130000	788.000000	0.000000	112.000000	60.000000	17.000000	-9.000000
0.190000	29.470000	36.550000	805.000000	0.000000	112.000000	60.000000	-24.000000	-58.000000
0.200000	28.620000	35.440000	817.000000	0.000000	109.000000	60.000000	-85.000000	-111.000000
0.210000	27.360000	33.980000	824.000000	0.000000	109.000000	60.000000	-126.000000	-146.000000
0.220000	25.200000	32.060000	824.000000	0.000000	109.000000	60.000000	-216.000000	-192.000000
0.230000	22.790000	30.140000	863.000000	0.000000	109.000000	60.000000	-241.000000	-192.000000
0.240000	20.200000	28.270000	878.000000	0.000000	109.000000	60.000000	-259.000000	-187.000000
0.250000	17.750000	26.620000	909.000000	0.000000	110.000000	60.000000	-245.000000	-165.000000
0.260000	15.790000	25.080000	929.000000	0.000000	110.000000	60.000000	-196.000000	-154.000000
0.270000	14.160000	24.210000	958.000000	0.000000	111.000000	61.000000	-163.000000	-87.000000
0.280000	13.470000	23.860000	950.000000	0.000000	112.000000	62.000000	-69.000000	-35.000000
0.290000	13.620000	23.860000	934.000000	0.000000	111.000000	64.000000	15.000000	0.000000
0.300000	14.340000	24.230000	938.000000	0.000000	112.000000	64.000000	72.000000	37.000000
0.310000	16.270000	25.140000	941.000000	0.000000	112.000000	64.000000	193.000000	91.000000
0.320000	19.460000	26.410000	937.000000	0.000000	112.000000	64.000000	319.000000	127.000000
0.330000	23.490000	28.350000	942.000000	0.000000	112.000000	64.000000	403.000000	194.000000
0.340000	27.880000	30.280000	918.000000	0.000000	112.000000	64.000000	439.000000	193.000000
0.350000	31.810000	32.280000	875.000000	0.000000	112.000000	64.000000	393.000000	200.000000
0.360000	35.430000	34.330000	806.000000	0.000000	113.000000	63.000000	362.000000	205.000000
0.370000	38.060000	35.910000	684.000000	0.000000	112.000000	62.000000	263.000000	158.000000
0.380000	39.220000	36.970000	212.000000	0.000000	112.000000	62.000000	116.000000	106.000000
0.390000	39.220000	36.970000	0.000000	1.000000	111.000000	61.000000	0.000000	0.000000
0.400000	38.620000	37.760000	0.000000	0.000000	112.000000	60.000000	-60.000000	79.000000
0.410000	37.110000	37.400000	0.000000	0.000000	112.000000	60.000000	-151.000000	-36.000000
0.420000	35.110000	36.760000	0.000000	0.000000	111.000000	59.000000	-200.000000	-64.000000
0.430000	33.250000	36.000000	0.000000	0.000000	111.000000	59.000000	-186.000000	-76.000000
0.440000	31.580000	35.210000	0.000000	0.000000	112.000000	58.000000	-167.000000	-79.000000
0.450000	30.030000	34.410000	0.000000	0.000000	113.000000	58.000000	-155.000000	-80.000000
0.460000	29.500000	33.780000	0.000000	0.000000	114.000000	57.000000	-53.000000	-63.000000
0.470000	29.080000	33.150000	0.000000	0.000000	116.000000	55.000000	-42.000000	-63.000000
0.480000	28.740000	32.680000	0.000000	0.000000	117.000000	54.000000	-34.000000	-47.000000
0.490000	28.610000	32.320000	0.000000	0.000000	115.000000	51.000000	-13.000000	-36.000000
0.500000	28.410000	31.840000	0.000000	0.000000	115.000000	49.000000	-20.000000	-48.000000
0.510000	28.110000	31.310000	0.000000	0.000000	114.000000	46.000000	-30.000000	-53.000000
0.520000	27.770000	30.670000	0.000000	0.000000	110.000000	43.000000	-34.000000	-64.000000
0.530000	27.250000	29.950000	0.000000	0.000000	108.000000	42.000000	-52.000000	-72.000000
0.540000	26.730000	29.140000	0.000000	0.000000	105.000000	40.000000	-52.000000	-81.000000
0.550000	26.210000	28.270000	0.000000	0.000000	103.000000	38.000000	-52.000000	-87.000000
0.560000	25.630000	27.340000	0.000000	0.000000	101.000000	37.000000	-58.000000	-93.000000
0.570000	25.050000	26.400000	0.000000	0.000000	99.000000	37.000000	-58.000000	-94.000000
0.580000	24.620000	25.770000	0.000000	0.000000	98.000000	37.000000	-43.000000	-63.000000
0.590000	24.280000	25.350000	0.000000	0.000000	97.000000	38.000000	-34.000000	-42.000000
0.600000	23.760000	25.520000	0.000000	0.000000	96.000000	40.000000	-52.000000	17.000000
0.610000	23.250000	25.690000	0.000000	0.000000	97.000000	43.000000	-51.000000	17.000000
0.620000	22.710000	25.850000	0.000000	0.000000	100.000000	46.000000	-54.000000	16.000000
0.630000	22.050000	26.060000	0.000000	0.000000	104.000000	48.000000	-66.000000	21.000000
0.640000	21.340000	26.290000	0.000000	0.000000	109.000000	50.000000	-71.000000	23.000000
0.650000	20.750000	26.370000	0.000000	0.000000	114.000000	53.000000	-59.000000	8.000000
0.660000	20.190000	26.370000	0.000000	0.000000	118.000000	54.000000	-56.000000	0.000000
0.670000	19.690000	26.370000	0.000000	0.000000	122.000000	54.000000	-50.000000	0.000000
0.680000	19.530000	26.370000	0.000000	0.000000	124.000000	54.000000	-16.000000	0.000000
0.690000	19.610000	26.370000	0.000000	0.000000	123.000000	53.000000	8.000000	0.000000
0.700000	19.210000	26.370000	0.000000	0.000000	122.000000	54.000000	-40.000000	0.000000
0.710000	19.160000	26.520000	0.000000	0.000000	120.000000	54.000000	-5.000000	15.000000
0.720000	19.330000	26.670000	0.000000	0.000000	119.000000	54.000000	17.000000	15.000000
0.730000	19.520000	26.930000	0.000000	0.000000	117.000000	55.000000	19.000000	26.000000
0.740000	19.900000	27.190000	0.000000	0.000000	117.000000	56.000000	38.000000	26.000000
0.750000	20.400000	27.440000	0.000000	0.000000	114.000000	57.000000	50.000000	25.000000
0.760000	20.950000	27.550000	0.000000	0.000000	113.000000	57.000000	55.000000	11.000000
0.770000	21.490000	27.620000	0.000000	0.000000	111.000000	57.000000	54.000000	7.000000
0.780000	21.910000	27.620000	0.000000	0.000000	109.000000	57.000000	42.000000	0.000000
0.790000	22.260000	27.620000	0.000000	0.000000	108.000000	58.000000	35.000000	0.000000
0.800000	22.540000	27.690000	0.000000	0.000000	108.000000	58.000000	28.000000	7.000000
0.810000	22.730000	27.770000	0.000000	0.000000	106.000000	57.000000	19.000000	8.000000
0.820000	22.870000	27.900000	0.000000	0.000000	106.000000	57.000000	14.000000	13.000000
0.830000	22.970000	28.060000	0.000000	0.000000	106.000000	58.000000	10.000000	16.000000
0.840000	23.070000	28.250000	0.000000	0.000000	106.000000	58.000000	10.000000	19.000000
0.850000	23.180000	28.420000	0.000000	0.000000	106.000000	58.000000	11.000000	17.000000
0.860000	23.260000	28.560000	0.000000	0.000000	106.000000	58.000000	8.000000	14.000000
0.870000	23.350000	28.670000	0.000000	0.000000	108.000000	58.000000	9.000000	11.000000
0.880000	23.350000	28.670000	0.000000	0.000000	108.000000	58.000000	0.000000	0.000000
0.890000	23.290000	28.670000	0.000000	0.000000	108.000000	58.000000	-6.000000	0.000000
0.900000	23.190000	28.530000	0.000000	0.000000	108.000000	58.000000	-10.000000	-14.000000
0.910000	23.030000	28.370000	0.000000	0.000000	108.000000	58.000000	-16.000000	-16.000000
0.920000	22.820000	28.200000	0.000000	0.000000	108.000000	58.000000	-21.000000	-17.000000
0.930000	22.740000	28.110000	0.000000	0.000000	109.000000	57.000000	-8.000000	-9.000000
0.940000	22.740000	28.060000	0.000000	0.000000	109.000000	57.000000	0.000000	-5.000000
0.950000	22.740000	28.060000	0.000000	0.000000	109.000000	57.000000	0.000000	0.000000
0.960000	22.740000	28.060000	282.000000	1.000000	109.000000	57.000000	0.000000	0.000000
0.970000	23.090000	28.260000	312.000000	0.000000	112.000000	58.000000	35.000000	20.000000
0.980000	22.670000	28.410000	332.000000	0.000000	112.000000	58.000000	-42.000000	15.000000
0.990000	22.720000	28.570000	422.000000	0.000000	112.000000	58.000000	5.000000	16.000000
1.000000	22.810000	28.740000	481.000000	0.000000	114.000000	59.000000	9.000000	17.000000
1.010000	22.990000	29.010000	526.000000	0.000000	114.000000	59.000000	18.000000	27.000000
1.020000	23.240000	29.340000	557.000000	0.000000	114.000000	59.000000	25.000000	33.000000
1.030000	23.640000	29.790000	603.000000	0.000000	116.000000	58.000000	40.000000	45.000000
1.040000	24.130000	30.280000	647.000000	0.000000	116.000000	58.000000	49.000000	49.000000
1.050000	24.590000	30.790000	650.000000	0.000000	116.000000	58.000000	46.000000	51.000000
1.060000	24.890000	31.150000	661.000000	0.000000	117.000000	58.000000	30.000000	36.000000
1.070000	25.090000	31.320000	664.000000	0.000000	117.000000	58.000000	20.000000	17.000000
1.080000	25.090000	31.370000	678.000000	0.000000	117.000000	58.000000	0.000000	5.000000
1.090000	25.090000	31.370000	687.000000	0.000000	117.000000	58.000000	0.000000	0.000000
1.100000	25.090000	31.280000	681.000000	0.000000	117.000000	58.000000	0.000000	-9.000000
1.110000	24.970000	31.140000	673.000000	0.000000	119.000000	58.000000	-12.000000	-14.000000
1.120000	24.810000	30.910000	666.000000	0.000000	119.000000	58.000000	-16.000000	-23.000000
1.130000	24.610000	30.630000	666.000000	0.000000	119.000000	58.000000	-20.000000	-28.000000
1.140000	24.480000	30.320000	664.000000	0.000000	119.000000	58.000000	-13.000000	-31.000000
1.150000	24.480000	30.020000	673.000000	0.000000	119.000000	58.000000	0.000000	-30.000000
1.160000	24.630000	29.850000	673.000000	0.000000	119.000000	58.000000	15.000000	-17.000000
1.170000	24.830000	29.760000	672.000000	0.000000	117.000000	58.000000	20.000000	-9.000000
1.180000	25.060000	29.760000	694.000000	0.000000	117.000000	58.000000	23.000000	0.000000
1.190000	25.380000	29.900000	707.000000	0.000000	118.000000	59.000000	32.000000	14.000000
1.200000	25.710000	30.150000	725.000000	0.000000	118.000000	59.000000	33.000000	25.000000
1.210000	26.050000	30.450000	731.000000	0.000000	118.000000	59.000000	34.000000	30.000000
1.220000	26.230000	30.740000	722.000000	0.000000	118.000000	59.000000	18.000000	29.000000
1.230000	26.320000	31.010000	733.000000	0.000000	118.000000	59.000000	9.000000	27.000000
1.240000	26.320000	31.210000	722.000000	0.000000	118.000000	59.000000	0.000000	20.000000
1.250000	26.270000	31.340000	693.000000	0.000000	118.000000	59.000000	-5.000000	13.000000
1.260000	26.140000	31.410000	681.000000	0.000000	118.000000	59.000000	-13.000000	7.000000
1.270000	26.010000	31.410000	665.000000	0.000000	118.000000	59.000000	-13.000000	0.000000
1.280000	25.870000	31.310000	643.000000	0.000000	118.000000	59.000000	-14.000000	-10.000000
1.290000	25.750000	31.100000	645.000000	0.000000	120.000000	58.000000	-12.000000	-21.000000
1.300000	25.680000	30.850000	642.000000	0.000000	118.000000	59.000000	-7.000000	-25.000000
1.310000	25.680000	30.610000	641.000000	0.000000	118.000000	59.000000	0.000000	-24.000000
1.320000	25.770000	30.420000	647.000000	0.000000	118.000000	59.000000	9.000000	-19.000000
1.330000	25.880000	30.240000	636.000000	0.000000	118.000000	59.000000	11.000000	-18.000000
1.340000	26.020000	30.240000	664.000000	0.000000	118.000000	59.000000	14.000000	0.000000
1.350000	26.210000	30.240000	675.000000	0.000000	118.000000	59.000000	19.000000	0.000000
1.360000	26.470000	30.350000	696.000000	0.000000	118.000000	59.000000	26.000000	11.000000
1.370000	26.810000	30.600000	702.000000	0.000000	118.000000	59.000000	34.000000	25.000000
1.380000	27.200000	31.010000	702.000000	0.000000	118.000000	59.000000	39.000000	41.000000
1.390000	27.480000	31.530000	693.000000	0.000000	117.000000	58.000000	28.000000	52.000000
1.400000	27.690000	31.990000	685.000000	0.000000	117.000000	58.000000	21.000000	46.000000
1.410000	27.820000	32.440000	673.000000	0.000000	117.000000	58.000000	13.000000	45.000000
1.420000	27.820000	32.740000	652.000000	0.000000	117.000000	58.000000	0.000000	30.000000
1.430000	27.820000	32.950000	638.000000	0.000000	116.000000	57.000000	0.000000	21.000000
1.440000	27.690000	32.950000	647.000000	0.000000	116.000000	57.000000	-13.000000	0.000000
1.450000	27.580000	32.800000	644.000000	0.000000	115.000000	58.000000	-11.000000	-15.000000
1.460000	27.440000	32.540000	647.000000	0.000000	114.000000	57.000000	-14.000000	-26.000000
1.470000	27.260000	32.200000	637.000000	0.000000	114.000000	57.000000	-18.000000	-34.000000
1.480000	27.260000	31.920000	646.000000	0.000000	114.000000	57.000000	0.000000	-28.000000
1.490000	27.260000	31.680000	669.000000	0.000000	114.000000	57.000000	0.000000	-24.000000
1.500000	27.450000	31.570000	687.000000	0.000000	114.000000	57.000000	19.000000	-11.000000
1.510000	27.690000	31.520000	691.000000	0.000000	115.000000	58.000000	24.000000	-5.000000
1.520000	27.960000	31.520000	710.000000	0.000000	115.000000	58.000000	27.000000	0.000000
1.530000	28.240000	31.610000	724.000000	0.000000	115.000000	58.000000	28.000000	9.000000
1.540000	28.460000	31.790000	722.000000	0.000000	116.000000	57.000000	22.000000	18.000000
1.550000	28.630000	32.030000	721.000000	0.000000	116.000000	57.000000	17.000000	24.000000
1.560000	28.750000	32.300000	716.000000	0.000000	116.000000	57.000000	12.000000	27.000000
1.570000	28.750000	32.560000	717.000000	0.000000	115.000000	58.000000	0.000000	26.000000
1.580000	28.750000	32.870000	716.000000	0.000000	115.000000	58.000000	0.000000	31.000000
1.590000	28.750000	33.220000	727.000000	0.000000	115.000000	58.000000	0.000000	35.000000
1.600000	28.750000	33.340000	731.000000	0.000000	115.000000	58.000000	0.000000	12.000000
1.610000	28.750000	33.410000	755.000000	0.000000	115.000000	58.000000	0.000000	7.000000
1.620000	28.750000	33.410000	755.000000	0.000000	115.000000	58.000000	0.000000	0.000000
1.630000	28.750000	33.290000	749.000000	0.000000	115.000000	58.000000	0.000000	-12.000000
1.640000	28.750000	33.120000	743.000000	0.000000	115.000000	58.000000	0.000000	-17.000000
1.650000	28.820000	32.740000	728.000000	0.000000	115.000000	58.000000	7.000000	-38.000000
1.660000	28.820000	32.230000	721.000000	0.000000	114.000000	57.000000	0.000000	-51.000000
1.670000	28.820000	31.640000	728.000000	0.000000	115.000000	58.000000	0.000000	-59.000000
1.680000	28.770000	30.990000	724.000000	0.000000	115.000000	58.000000	-5.000000	-65.000000
1.690000	28.670000	30.310000	717.000000	0.000000	115.000000	58.000000	-10.000000	-68.000000
1.700000	28.480000	29.530000	710.000000	0.000000	115.000000	58.000000	-19.000000	-78.000000
1.710000	28.300000	28.870000	710.000000	0.000000	113.000000	58.000000	-18.000000	-66.000000
1.720000	28.130000	28.290000	717.000000	0.000000	113.000000	58.000000	-17.000000	-58.000000
1.730000	28.130000	28.140000	728.000000	0.000000	113.000000	58.000000	0.000000	-15.000000
1.740000	28.130000	28.200000	731.000000	0.000000	113.000000	58.000000	0.000000	6.000000
1.750000	28.200000	28.400000	728.000000	0.000000	113.000000	58.000000	7.000000	20.000000
1.760000	28.310000	28.920000	728.000000	0.000000	113.000000	58.000000	11.000000	52.000000
1.770000	28.520000	29.590000	728.000000	0.000000	113.000000	58.000000	21.000000	67.000000
1.780000	28.800000	30.370000	727.000000	0.000000	113.000000	58.000000	28.000000	78.000000
1.790000	29.040000	30.990000	728.000000	0.000000	113.000000	58.000000	24.000000	62.000000
1.800000	29.250000	31.540000	731.000000	0.000000	113.000000	58.000000	21.000000	55.000000
1.810000	29.440000	31.970000	728.000000	0.000000	113.000000	58.000000	19.000000	43.000000
1.820000	29.570000	32.310000	728.000000	0.000000	113.000000	58.000000	13.000000	34.000000
1.830000	29.660000	32.570000	728.000000	0.000000	113.000000	58.000000	9.000000	26.000000
1.840000	29.720000	32.700000	727.000000	0.000000	113.000000	58.000000	6.000000	13.000000
1.850000	29.720000	32.700000	724.000000	0.000000	113.000000	58.000000	0.000000	0.000000
1.860000	29.720000	32.700000	721.000000	0.000000	113.000000	58.000000	0.000000	0.000000
1.870000	29.720000	32.700000	711.000000	0.000000	113.000000	58.000000	0.000000	0.000000
1.880000	29.650000	32.560000	708.000000	0.000000	113.000000	58.000000	-7.000000	-14.000000
1.890000	29.600000	32.410000	707.000000	0.000000	113.000000	58.000000	-5.000000	-15.000000
1.900000	29.520000	32.190000	705.000000	0.000000	113.000000	58.000000	-8.000000	-22.000000
1.910000	29.460000	31.900000	705.000000	0.000000	113.000000	58.000000	-6.000000	-29.000000
1.920000	29.460000	31.650000	707.000000	0.000000	113.000000	58.000000	0.000000	-25.000000
1.930000	29.460000	31.440000	724.000000	0.000000	113.000000	58.000000	0.000000	-21.000000
1.940000	29.560000	31.360000	725.000000	0.000000	113.000000	58.000000	10.000000	-8.000000
1.950000	29.630000	31.360000	722.000000	0.000000	115.000000	58.000000	7.000000	0.000000
1.960000	29.710000	31.360000	727.000000	0.000000	115.000000	58.000000	8.000000	0.000000
1.970000	29.860000	31.570000	730.000000	0.000000	115.000000	58.000000	15.000000	21.000000
1.980000	30.070000	31.920000	731.000000	0.000000	115.000000	58.000000	21.000000	35.000000
1.990000	30.310000	32.390000	749.000000	0.000000	115.000000	58.000000	24.000000	47.000000
2.000000	30.560000	32.980000	757.000000	0.000000	113.000000	58.000000	25.000000	59.000000
2.010000	30.800000	33.640000	779.000000	0.000000	113.000000	58.000000	24.000000	66.000000
2.020000	30.990000	34.360000	796.000000	0.000000	113.000000	58.000000	19.000000	72.000000
2.030000	31.140000	35.030000	785.000000	0.000000	112.000000	58.000000	15.000000	67.000000
2.040000	31.290000	35.810000	773.000000	0.000000	112.000000	58.000000	15.000000	78.000000
2.050000	31.440000	36.660000	774.000000	0.000000	113.000000	59.000000	15.000000	85.000000
2.060000	31.580000	37.220000	768.000000	0.000000	113.000000	59.000000	14.000000	56.000000
2.070000	31.580000	37.550000	760.000000	0.000000	114.000000	59.000000	0.000000	33.000000
2.080000	31.580000	37.730000	759.000000	0.000000	114.000000	59.000000	0.000000	18.000000
2.090000	31.580000	37.680000	754.000000	0.000000	114.000000	59.000000	0.000000	-5.000000
2.100000	31.580000	37.580000	757.000000	0.000000	114.000000	59.000000	0.000000	-10.000000
2.110000	31.580000	37.130000	759.000000	0.000000	114.000000	59.000000	0.000000	-45.000000
2.120000	31.430000	36.480000	759.000000	0.000000	114.000000	59.000000	-15.000000	-65.000000
2.130000	31.240000	35.610000	765.000000	0.000000	114.000000	59.000000	-19.000000	-87.000000
2.140000	31.060000	34.800000	768.000000	0.000000	114.000000	59.000000	-18.000000	-81.000000
2.150000	30.890000	34.030000	771.000000	0.000000	114.000000	59.000000	-17.000000	-77.000000
2.160000	30.790000	33.340000	771.000000	0.000000	114.000000	59.000000	-10.000000	-69.000000
2.170000	30.790000	32.840000	765.000000	0.000000	114.000000	59.000000	0.000000	-50.000000
2.180000	30.900000	32.460000	757.000000	0.000000	112.000000	58.000000	11.000000	-38.000000
2.190000	31.120000	32.320000	714.000000	0.000000	112.000000	58.000000	22.000000	-14.000000
2.200000	31.320000	32.320000	641.000000	0.000000	112.000000	58.000000	20.000000	0.000000
2.210000	31.500000	32.480000	491.000000	0.000000	113.000000	59.000000	18.000000	16.000000
