t	x	y	pressure	penup	azimuth	inclination	v_x	v_y
0.000000	12.010000	4.240000	222.000000	1.000000	157.000000	60.000000	0.000000	0.000000
0.010000	12.090000	3.970000	301.000000	0.000000	156.000000	61.000000	8.000000	-27.000000
0.020000	12.090000	3.970000	394.000000	0.000000	154.000000	63.000000	0.000000	0.000000
0.030000	12.220000	4.220000	515.000000	0.000000	153.000000	63.000000	13.000000	25.000000
0.040000	12.370000	4.760000	586.000000	0.000000	151.000000	64.000000	15.000000	54.000000
0.050000	12.590000	5.520000	666.000000	0.000000	150.000000	65.000000	22.000000	76.000000
0.060000	12.890000	6.660000	739.000000	0.000000	148.000000	65.000000	30.000000	114.000000
0.070000	13.280000	8.110000	763.000000	0.000000	148.000000	65.000000	39.000000	145.000000
0.080000	13.750000	9.770000	787.000000	0.000000	148.000000	63.000000	47.000000	166.000000
0.090000	14.260000	12.160000	788.000000	0.000000	148.000000	63.000000	51.000000	239.000000
0.100000	14.810000	14.780000	790.000000	0.000000	147.000000	62.000000	55.000000	262.000000
0.110000	15.360000	17.560000	784.000000	0.000000	146.000000	62.000000	55.000000	278.000000
0.120000	15.600000	18.700000	800.000000	0.000000	144.000000	61.000000	24.000000	114.000000
0.130000	15.600000	18.760000	811.000000	0.000000	142.000000	61.000000	0.000000	6.000000
0.140000	15.470000	18.110000	809.000000	0.000000	139.000000	61.000000	-13.000000	-65.000000
0.150000	15.180000	16.300000	787.000000	0.000000	139.000000	61.000000	-29.000000	-181.000000
0.160000	14.800000	14.490000	794.000000	0.000000	139.000000	61.000000	-38.000000	-181.000000
0.170000	14.850000	12.690000	785.000000	0.000000	138.000000	61.000000	5.000000	-180.000000
0.180000	14.910000	11.010000	785.000000	0.000000	138.000000	61.000000	6.000000	-168.000000
0.190000	14.970000	9.990000	785.000000	0.000000	138.000000	61.000000	6.000000	-102.000000
0.200000	15.080000	9.410000	762.000000	0.000000	140.000000	62.000000	11.000000	-58.000000
0.210000	15.190000	9.150000	743.000000	0.000000	143.000000	62.000000	11.000000	-26.000000
0.220000	15.270000	9.150000	717.000000	0.000000	144.000000	62.000000	8.000000	0.000000
0.230000	15.340000	9.240000	700.000000	0.000000	144.000000	62.000000	7.000000	9.000000
0.240000	15.480000	9.650000	678.000000	0.000000	146.000000	63.000000	14.000000	41.000000
0.250000	15.620000	10.220000	641.000000	0.000000	146.000000	63.000000	14.000000	57.000000
0.260000	15.770000	10.910000	620.000000	0.000000	146.000000	63.000000	15.000000	69.000000
0.270000	15.870000	11.540000	617.000000	0.000000	145.000000	64.000000	10.000000	63.000000
0.280000	15.930000	11.830000	614.000000	0.000000	143.000000	63.000000	6.000000	29.000000
0.290000	15.930000	11.890000	595.000000	0.000000	143.000000	63.000000	0.000000	6.000000
0.300000	15.930000	11.640000	540.000000	0.000000	140.000000	63.000000	0.000000	-25.000000
0.310000	15.860000	11.390000	477.000000	0.000000	140.000000	63.000000	-7.000000	-25.000000
0.320000	15.860000	11.210000	417.000000	0.000000	140.000000	63.000000	0.000000	-18.000000
0.330000	15.860000	11.080000	384.000000	0.000000	138.000000	63.000000	0.000000	-13.000000
0.340000	15.940000	11.010000	362.000000	0.000000	138.000000	63.000000	8.000000	-7.000000
0.350000	15.940000	11.010000	366.000000	0.000000	138.000000	63.000000	0.000000	0.000000
0.360000	16.020000	11.070000	351.000000	0.000000	138.000000	63.000000	8.000000	6.000000
0.370000	16.090000	11.230000	348.000000	0.000000	138.000000	63.000000	7.000000	16.000000
0.380000	16.180000	11.550000	344.000000	0.000000	137.000000	62.000000	9.000000	32.000000
0.390000	16.310000	11.980000	344.000000	0.000000	134.000000	61.000000	13.000000	43.000000
0.400000	16.530000	12.590000	351.000000	0.000000	132.000000	60.000000	22.000000	61.000000
0.410000	16.950000	13.600000	389.000000	0.000000	129.000000	59.000000	42.000000	101.000000
0.420000	17.490000	14.880000	420.000000	0.000000	127.000000	57.000000	54.000000	128.000000
0.430000	18.200000	16.670000	488.000000	0.000000	126.000000	57.000000	71.000000	179.000000
0.440000	18.920000	18.400000	560.000000	0.000000	125.000000	55.000000	72.000000	173.000000
0.450000	19.250000	20.090000	700.000000	0.000000	124.000000	54.000000	33.000000	169.000000
0.460000	19.310000	20.480000	750.000000	0.000000	124.000000	54.000000	6.000000	39.000000
0.470000	19.050000	20.170000	776.000000	0.000000	123.000000	53.000000	-26.000000	-31.000000
0.480000	18.670000	19.400000	787.000000	0.000000	123.000000	55.000000	-38.000000	-77.000000
0.490000	18.210000	17.880000	803.000000	0.000000	123.000000	55.000000	-46.000000	-152.000000
0.500000	18.280000	16.550000	820.000000	0.000000	123.000000	55.000000	7.000000	-133.000000
0.510000	18.370000	15.350000	809.000000	0.000000	123.000000	55.000000	9.000000	-120.000000
0.520000	18.520000	14.380000	812.000000	0.000000	124.000000	55.000000	15.000000	-97.000000
0.530000	18.670000	13.690000	803.000000	0.000000	124.000000	55.000000	15.000000	-69.000000
0.540000	18.750000	13.180000	799.000000	0.000000	124.000000	55.000000	8.000000	-51.000000
0.550000	18.750000	12.930000	784.000000	0.000000	122.000000	56.000000	0.000000	-25.000000
0.560000	18.750000	12.860000	754.000000	0.000000	122.000000	56.000000	0.000000	-7.000000
0.570000	18.750000	12.860000	703.000000	0.000000	123.000000	56.000000	0.000000	0.000000
0.580000	18.840000	13.230000	659.000000	0.000000	122.000000	57.000000	9.000000	37.000000
0.590000	18.960000	13.620000	563.000000	0.000000	120.000000	57.000000	12.000000	39.000000
0.600000	19.090000	14.060000	436.000000	0.000000	120.000000	57.000000	13.000000	44.000000
0.610000	19.190000	14.300000	322.000000	0.000000	120.000000	57.000000	10.000000	24.000000
0.620000	19.190000	14.410000	253.000000	0.000000	120.000000	57.000000	0.000000	11.000000
0.630000	19.190000	14.410000	171.000000	0.000000	120.000000	57.000000	0.000000	0.000000
0.640000	19.190000	14.470000	99.000000	0.000000	122.000000	57.000000	0.000000	6.000000
0.650000	19.190000	14.470000	0.000000	1.000000	122.000000	56.000000	0.000000	0.000000
0.660000	19.190000	14.470000	0.000000	0.000000	122.000000	56.000000	0.000000	0.000000
0.670000	19.190000	14.470000	0.000000	0.000000	124.000000	55.000000	0.000000	0.000000
0.680000	19.320000	14.410000	0.000000	0.000000	124.000000	55.000000	13.000000	-6.000000
0.690000	19.560000	14.410000	0.000000	0.000000	124.000000	55.000000	24.000000	0.000000
0.700000	19.880000	14.330000	0.000000	0.000000	125.000000	55.000000	32.000000	-8.000000
0.710000	20.240000	14.330000	0.000000	0.000000	125.000000	55.000000	36.000000	0.000000
0.720000	20.650000	14.270000	0.000000	0.000000	126.000000	54.000000	41.000000	-6.000000
0.730000	21.180000	14.210000	0.000000	0.000000	128.000000	54.000000	53.000000	-6.000000
0.740000	21.720000	14.140000	0.000000	0.000000	128.000000	54.000000	54.000000	-7.000000
0.750000	22.250000	14.020000	0.000000	0.000000	129.000000	53.000000	53.000000	-12.000000
0.760000	22.770000	13.870000	0.000000	0.000000	129.000000	53.000000	52.000000	-15.000000
0.770000	23.310000	13.750000	0.000000	0.000000	130.000000	53.000000	54.000000	-12.000000
0.780000	23.870000	13.810000	0.000000	0.000000	130.000000	53.000000	56.000000	6.000000
0.790000	24.440000	13.970000	0.000000	0.000000	130.000000	53.000000	57.000000	16.000000
0.800000	24.890000	14.190000	0.000000	0.000000	131.000000	52.000000	45.000000	22.000000
0.810000	25.250000	14.400000	0.000000	0.000000	133.000000	53.000000	36.000000	21.000000
0.820000	25.370000	14.600000	0.000000	0.000000	131.000000	54.000000	12.000000	20.000000
0.830000	25.430000	14.980000	0.000000	0.000000	133.000000	54.000000	6.000000	38.000000
0.840000	25.430000	15.480000	0.000000	0.000000	133.000000	54.000000	0.000000	50.000000
0.850000	25.430000	15.480000	280.000000	1.000000	132.000000	55.000000	0.000000	0.000000
0.860000	25.480000	17.350000	343.000000	0.000000	132.000000	55.000000	5.000000	187.000000
0.870000	25.530000	18.480000	468.000000	0.000000	131.000000	56.000000	5.000000	113.000000
0.880000	25.830000	19.510000	540.000000	0.000000	130.000000	56.000000	30.000000	103.000000
0.890000	26.330000	20.560000	613.000000	0.000000	127.000000	56.000000	50.000000	105.000000
0.900000	27.000000	21.090000	691.000000	0.000000	126.000000	57.000000	67.000000	53.000000
0.910000	27.250000	21.280000	827.000000	0.000000	126.000000	57.000000	25.000000	19.000000
0.920000	27.250000	20.360000	873.000000	0.000000	124.000000	57.000000	0.000000	-92.000000
0.930000	26.770000	18.830000	930.000000	0.000000	123.000000	56.000000	-48.000000	-153.000000
0.940000	26.370000	16.890000	946.000000	0.000000	123.000000	56.000000	-40.000000	-194.000000
0.950000	26.000000	15.180000	965.000000	0.000000	123.000000	56.000000	-37.000000	-171.000000
0.960000	25.670000	13.840000	965.000000	0.000000	123.000000	58.000000	-33.000000	-134.000000
0.970000	25.550000	12.750000	950.000000	0.000000	123.000000	58.000000	-12.000000	-109.000000
0.980000	25.550000	12.020000	899.000000	0.000000	121.000000	58.000000	0.000000	-73.000000
0.990000	25.660000	11.720000	842.000000	0.000000	121.000000	59.000000	11.000000	-30.000000
1.000000	25.810000	11.720000	803.000000	0.000000	120.000000	60.000000	15.000000	0.000000
1.010000	26.170000	12.230000	788.000000	0.000000	119.000000	61.000000	36.000000	51.000000
1.020000	26.660000	13.100000	757.000000	0.000000	117.000000	61.000000	49.000000	87.000000
1.030000	27.100000	14.200000	733.000000	0.000000	117.000000	61.000000	44.000000	110.000000
1.040000	27.550000	15.490000	693.000000	0.000000	116.000000	60.000000	45.000000	129.000000
1.050000	28.040000	16.800000	671.000000	0.000000	118.000000	60.000000	49.000000	131.000000
1.060000	28.560000	18.120000	636.000000	0.000000	117.000000	59.000000	52.000000	132.000000
1.070000	28.850000	18.450000	627.000000	0.000000	118.000000	59.000000	29.000000	33.000000
1.080000	28.960000	18.220000	599.000000	0.000000	117.000000	58.000000	11.000000	-23.000000
1.090000	28.910000	17.620000	551.000000	0.000000	119.000000	58.000000	-5.000000	-60.000000
1.100000	28.910000	16.950000	489.000000	0.000000	120.000000	57.000000	0.000000	-67.000000
1.110000	29.060000	16.330000	392.000000	0.000000	119.000000	56.000000	15.000000	-62.000000
1.120000	29.330000	15.910000	317.000000	0.000000	119.000000	56.000000	27.000000	-42.000000
1.130000	29.600000	15.600000	211.000000	0.000000	121.000000	56.000000	27.000000	-31.000000
1.140000	29.900000	15.480000	63.000000	0.000000	121.000000	56.000000	30.000000	-12.000000
1.150000	29.900000	15.480000	0.000000	1.000000	121.000000	56.000000	0.000000	0.000000
1.160000	30.640000	15.740000	0.000000	0.000000	123.000000	56.000000	74.000000	26.000000
1.170000	31.260000	16.080000	0.000000	0.000000	123.000000	56.000000	62.000000	34.000000
1.180000	32.000000	16.560000	0.000000	0.000000	123.000000	56.000000	74.000000	48.000000
1.190000	32.790000	17.140000	0.000000	0.000000	126.000000	57.000000	79.000000	58.000000
1.200000	33.570000	17.700000	0.000000	0.000000	126.000000	57.000000	78.000000	56.000000
1.210000	33.570000	17.700000	58.000000	1.000000	126.000000	57.000000	0.000000	0.000000
1.220000	34.710000	18.230000	228.000000	0.000000	126.000000	58.000000	114.000000	53.000000
1.230000	34.540000	17.850000	418.000000	0.000000	126.000000	58.000000	-17.000000	-38.000000
1.240000	33.860000	17.000000	540.000000	0.000000	127.000000	59.000000	-68.000000	-85.000000
1.250000	32.830000	15.850000	636.000000	0.000000	127.000000	59.000000	-103.000000	-115.000000
1.260000	30.940000	14.750000	716.000000	0.000000	127.000000	59.000000	-189.000000	-110.000000
1.270000	28.390000	13.650000	767.000000	0.000000	128.000000	59.000000	-255.000000	-110.000000
1.280000	25.410000	12.130000	787.000000	0.000000	128.000000	59.000000	-298.000000	-152.000000
1.290000	21.350000	10.340000	815.000000	0.000000	128.000000	59.000000	-406.000000	-179.000000
1.300000	17.370000	8.390000	864.000000	0.000000	131.000000	60.000000	-398.000000	-195.000000
1.310000	13.450000	6.990000	926.000000	0.000000	135.000000	59.000000	-392.000000	-140.000000
1.320000	11.700000	5.960000	930.000000	0.000000	141.000000	59.000000	-175.000000	-103.000000
1.330000	11.450000	5.960000	903.000000	0.000000	146.000000	58.000000	-25.000000	0.000000
1.340000	12.200000	6.220000	894.000000	0.000000	150.000000	58.000000	75.000000	26.000000
1.350000	13.690000	6.700000	855.000000	0.000000	155.000000	58.000000	149.000000	48.000000
1.360000	15.860000	7.160000	833.000000	0.000000	158.000000	56.000000	217.000000	46.000000
1.370000	18.480000	7.580000	799.000000	0.000000	160.000000	56.000000	262.000000	42.000000
1.380000	20.900000	7.920000	785.000000	0.000000	160.000000	55.000000	242.000000	34.000000
1.390000	22.790000	8.180000	767.000000	0.000000	159.000000	55.000000	189.000000	26.000000
1.400000	24.320000	8.180000	757.000000	0.000000	157.000000	56.000000	153.000000	0.000000
1.410000	25.110000	7.910000	770.000000	0.000000	153.000000	56.000000	79.000000	-27.000000
1.420000	25.350000	7.590000	817.000000	0.000000	151.000000	56.000000	24.000000	-32.000000
1.430000	25.210000	7.140000	827.000000	0.000000	147.000000	56.000000	-14.000000	-45.000000
1.440000	24.840000	6.610000	863.000000	0.000000	147.000000	56.000000	-37.000000	-53.000000
1.450000	24.470000	6.080000	863.000000	0.000000	144.000000	57.000000	-37.000000	-53.000000
1.460000	24.090000	5.680000	837.000000	0.000000	144.000000	57.000000	-38.000000	-40.000000
1.470000	23.850000	5.370000	784.000000	0.000000	146.000000	57.000000	-24.000000	-31.000000
1.480000	23.790000	5.260000	637.000000	0.000000	146.000000	57.000000	-6.000000	-11.000000
1.490000	23.860000	5.260000	413.000000	0.000000	146.000000	57.000000	7.000000	0.000000
1.500000	23.860000	5.260000	1.000000	1.000000	144.000000	58.000000	0.000000	0.000000
1.510000	23.860000	5.260000	0.000000	0.000000	144.000000	58.000000	0.000000	0.000000
1.520000	23.860000	5.160000	0.000000	0.000000	144.000000	58.000000	0.000000	-10.000000
1.530000	23.860000	5.110000	0.000000	0.000000	144.000000	58.000000	0.000000	-5.000000
1.540000	23.860000	5.110000	0.000000	0.000000	143.000000	57.000000	0.000000	0.000000
1.550000	23.980000	5.190000	0.000000	0.000000	144.000000	57.000000	12.000000	8.000000
1.560000	24.150000	5.340000	0.000000	0.000000	144.000000	57.000000	17.000000	15.000000
1.570000	24.410000	5.480000	0.000000	0.000000	145.000000	56.000000	26.000000	14.000000
1.580000	24.780000	5.620000	0.000000	0.000000	145.000000	56.000000	37.000000	14.000000
1.590000	25.230000	5.910000	0.000000	0.000000	145.000000	56.000000	45.000000	29.000000
1.600000	25.620000	6.280000	0.000000	0.000000	148.000000	56.000000	39.000000	37.000000
1.610000	25.960000	6.560000	0.000000	0.000000	148.000000	56.000000	34.000000	28.000000
1.620000	26.170000	6.760000	0.000000	0.000000	149.000000	56.000000	21.000000	20.000000
1.630000	26.320000	6.910000	0.000000	0.000000	151.000000	56.000000	15.000000	15.000000
1.640000	26.440000	6.910000	0.000000	0.000000	150.000000	57.000000	12.000000	0.000000
1.650000	26.520000	6.990000	0.000000	0.000000	150.000000	57.000000	8.000000	8.000000
1.660000	26.630000	7.090000	0.000000	0.000000	148.000000	57.000000	11.000000	10.000000
1.670000	26.790000	7.160000	0.000000	0.000000	147.000000	56.000000	16.000000	7.000000
1.680000	26.950000	7.270000	0.000000	0.000000	143.000000	56.000000	16.000000	11.000000
1.690000	27.120000	7.400000	0.000000	0.000000	141.000000	56.000000	17.000000	13.000000
1.700000	27.300000	7.540000	0.000000	0.000000	139.000000	55.000000	18.000000	14.000000
1.710000	27.560000	7.690000	0.000000	0.000000	136.000000	54.000000	26.000000	15.000000
1.720000	27.860000	7.850000	0.000000	0.000000	135.000000	53.000000	30.000000	16.000000
1.730000	28.180000	8.010000	0.000000	0.000000	134.000000	52.000000	32.000000	16.000000
1.740000	28.400000	8.070000	0.000000	0.000000	133.000000	52.000000	22.000000	6.000000
1.750000	28.560000	8.140000	0.000000	0.000000	133.000000	52.000000	16.000000	7.000000
1.760000	28.690000	8.200000	0.000000	0.000000	133.000000	52.000000	13.000000	6.000000
1.770000	28.830000	8.270000	0.000000	0.000000	133.000000	52.000000	14.000000	7.000000
1.780000	28.970000	8.330000	0.000000	0.000000	133.000000	52.000000	14.000000	6.000000
1.790000	29.120000	8.400000	0.000000	0.000000	133.000000	52.000000	15.000000	7.000000
1.800000	29.210000	8.400000	0.000000	0.000000	133.000000	53.000000	9.000000	0.000000
1.810000	29.270000	8.400000	0.000000	0.000000	133.000000	53.000000	6.000000	0.000000
1.820000	29.420000	8.400000	0.000000	0.000000	133.000000	53.000000	15.000000	0.000000
1.830000	29.420000	8.400000	0.000000	0.000000	134.000000	54.000000	0.000000	0.000000
1.840000	29.420000	8.400000	127.000000	1.000000	135.000000	54.000000	0.000000	0.000000
1.850000	29.420000	8.400000	259.000000	0.000000	136.000000	55.000000	0.000000	0.000000
1.860000	29.620000	8.070000	336.000000	0.000000	136.000000	55.000000	20.000000	-33.000000
1.870000	29.550000	7.700000	413.000000	0.000000	138.000000	55.000000	-7.000000	-37.000000
1.880000	29.460000	7.220000	443.000000	0.000000	139.000000	56.000000	-9.000000	-48.000000
1.890000	29.460000	6.970000	455.000000	0.000000	139.000000	56.000000	0.000000	-25.000000
1.900000	29.400000	6.850000	448.000000	0.000000	140.000000	56.000000	-6.000000	-12.000000
1.910000	29.400000	6.850000	420.000000	0.000000	140.000000	56.000000	0.000000	0.000000
1.920000	29.490000	6.850000	417.000000	0.000000	140.000000	56.000000	9.000000	0.000000
1.930000	29.560000	7.080000	420.000000	0.000000	140.000000	56.000000	7.000000	23.000000
1.940000	29.560000	7.420000	422.000000	0.000000	140.000000	56.000000	0.000000	34.000000
1.950000	29.560000	7.740000	418.000000	0.000000	140.000000	56.000000	0.000000	32.000000
1.960000	29.560000	8.060000	410.000000	0.000000	139.000000	57.000000	0.000000	32.000000
1.970000	29.660000	8.320000	417.000000	0.000000	139.000000	57.000000	10.000000	26.000000
1.980000	29.710000	8.530000	425.000000	0.000000	138.000000	57.000000	5.000000	21.000000
1.990000	29.760000	8.610000	443.000000	0.000000	136.000000	57.000000	5.000000	8.000000
2.000000	29.760000	8.550000	447.000000	0.000000	136.000000	57.000000	0.000000	-6.000000
2.010000	29.760000	8.400000	461.000000	0.000000	134.000000	57.000000	0.000000	-15.000000
2.020000	29.760000	8.240000	467.000000	0.000000	134.000000	57.000000	0.000000	-16.000000
2.030000	29.820000	8.110000	483.000000	0.000000	134.000000	57.000000	6.000000	-13.000000
2.040000	29.890000	8.040000	489.000000	0.000000	134.000000	57.000000	7.000000	-7.000000
2.050000	29.970000	8.040000	499.000000	0.000000	134.000000	57.000000	8.000000	0.000000
2.060000	30.090000	8.040000	491.000000	0.000000	134.000000	57.000000	12.000000	0.000000
2.070000	30.250000	8.200000	493.000000	0.000000	135.000000	57.000000	16.000000	16.000000
2.080000	30.480000	8.390000	491.000000	0.000000	135.000000	57.000000	23.000000	19.000000
2.090000	30.710000	8.600000	488.000000	0.000000	134.000000	57.000000	23.000000	21.000000
2.100000	30.930000	8.790000	486.000000	0.000000	134.000000	57.000000	22.000000	19.000000
2.110000	31.020000	8.910000	496.000000	0.000000	134.000000	57.000000	9.000000	12.000000
2.120000	31.020000	8.910000	497.000000	0.000000	132.000000	58.000000	0.000000	0.000000
2.130000	31.020000	8.910000	520.000000	0.000000	132.000000	58.000000	0.000000	0.000000
2.140000	31.070000	8.820000	546.000000	0.000000	131.000000	58.000000	5.000000	-9.000000
2.150000	31.070000	8.670000	543.000000	0.000000	131.000000	58.000000	0.000000	-15.000000
2.160000	31.160000	8.460000	556.000000	0.000000	131.000000	58.000000	9.000000	-21.000000
2.170000	31.160000	8.310000	561.000000	0.000000	131.000000	58.000000	0.000000	-15.000000
2.180000	31.160000	8.190000	565.000000	0.000000	131.000000	58.000000	0.000000	-12.000000
2.190000	31.220000	8.110000	497.000000	0.000000	132.000000	58.000000	6.000000	-8.000000
2.200000	31.220000	8.110000	301.000000	0.000000	132.000000	58.000000	0.000000	0.000000
2.210000	31.320000	8.160000	12.000000	1.000000	132.000000	58.000000	0.000000	0.000000
2.220000	31.320000	8.160000	0.000000	0.000000	132.000000	58.000000	0.000000	0.000000
2.230000	31.320000	8.160000	0.000000	0.000000	132.000000	58.000000	0.000000	0.000000
