t	x	y	pressure	penup	azimuth	inclination	v_x	v_y
0.000000	10.610000	55.930000	88.000000	1.000000	112.000000	58.000000	0.000000	0.000000
0.010000	10.740000	55.640000	170.000000	0.000000	111.000000	57.000000	13.000000	-29.000000
0.020000	10.740000	55.640000	302.000000	0.000000	109.000000	57.000000	0.000000	0.000000
0.030000	10.860000	55.930000	396.000000	0.000000	108.000000	56.000000	12.000000	29.000000
0.040000	11.000000	56.350000	519.000000	0.000000	108.000000	56.000000	14.000000	42.000000
0.050000	11.310000	57.030000	594.000000	0.000000	107.000000	55.000000	31.000000	68.000000
0.060000	11.720000	58.140000	652.000000	0.000000	107.000000	54.000000	41.000000	111.000000
0.070000	12.250000	59.540000	696.000000	0.000000	108.000000	53.000000	53.000000	140.000000
0.080000	12.960000	61.360000	707.000000	0.000000	109.000000	52.000000	71.000000	182.000000
0.090000	13.790000	63.710000	710.000000	0.000000	110.000000	52.000000	83.000000	235.000000
0.100000	14.710000	66.420000	724.000000	0.000000	112.000000	53.000000	92.000000	271.000000
0.110000	15.600000	68.860000	727.000000	0.000000	115.000000	52.000000	89.000000	244.000000
0.120000	16.020000	70.120000	739.000000	0.000000	118.000000	53.000000	42.000000	126.000000
0.130000	16.140000	70.600000	742.000000	0.000000	120.000000	52.000000	12.000000	48.000000
0.140000	16.140000	70.210000	731.000000	0.000000	123.000000	52.000000	0.000000	-39.000000
0.150000	15.840000	68.940000	733.000000	0.000000	125.000000	53.000000	-30.000000	-127.000000
0.160000	15.310000	67.090000	699.000000	0.000000	125.000000	53.000000	-53.000000	-185.000000
0.170000	15.010000	65.400000	679.000000	0.000000	127.000000	52.000000	-30.000000	-169.000000
0.180000	14.860000	63.810000	664.000000	0.000000	127.000000	52.000000	-15.000000	-159.000000
0.190000	14.860000	62.300000	672.000000	0.000000	125.000000	53.000000	0.000000	-151.000000
0.200000	14.860000	61.660000	670.000000	0.000000	125.000000	53.000000	0.000000	-64.000000
0.210000	14.990000	61.310000	675.000000	0.000000	125.000000	53.000000	13.000000	-35.000000
0.220000	15.080000	61.150000	685.000000	0.000000	124.000000	53.000000	9.000000	-16.000000
0.230000	15.180000	61.150000	685.000000	0.000000	123.000000	53.000000	10.000000	0.000000
0.240000	15.280000	61.540000	693.000000	0.000000	122.000000	53.000000	10.000000	39.000000
0.250000	15.520000	62.090000	691.000000	0.000000	122.000000	54.000000	24.000000	55.000000
0.260000	15.760000	62.790000	685.000000	0.000000	123.000000	53.000000	24.000000	70.000000
0.270000	16.010000	63.520000	682.000000	0.000000	122.000000	54.000000	25.000000	73.000000
0.280000	16.270000	64.260000	673.000000	0.000000	121.000000	53.000000	26.000000	74.000000
0.290000	16.360000	64.390000	670.000000	0.000000	121.000000	53.000000	9.000000	13.000000
0.300000	16.360000	64.250000	662.000000	0.000000	119.000000	53.000000	0.000000	-14.000000
0.310000	16.360000	63.930000	649.000000	0.000000	118.000000	53.000000	0.000000	-32.000000
0.320000	16.360000	63.560000	642.000000	0.000000	118.000000	53.000000	0.000000	-37.000000
0.330000	16.260000	63.310000	630.000000	0.000000	117.000000	52.000000	-10.000000	-25.000000
0.340000	16.260000	63.130000	613.000000	0.000000	117.000000	52.000000	0.000000	-18.000000
0.350000	16.260000	63.130000	605.000000	0.000000	117.000000	51.000000	0.000000	0.000000
0.360000	16.370000	63.230000	614.000000	0.000000	117.000000	51.000000	11.000000	10.000000
0.370000	16.550000	63.420000	614.000000	0.000000	117.000000	51.000000	18.000000	19.000000
0.380000	16.810000	63.890000	636.000000	0.000000	115.000000	51.000000	26.000000	47.000000
0.390000	17.140000	64.630000	646.000000	0.000000	115.000000	51.000000	33.000000	74.000000
0.400000	17.540000	65.550000	646.000000	0.000000	115.000000	51.000000	40.000000	92.000000
0.410000	18.130000	66.910000	641.000000	0.000000	116.000000	52.000000	59.000000	136.000000
0.420000	18.840000	68.570000	644.000000	0.000000	116.000000	52.000000	71.000000	166.000000
0.430000	19.550000	70.440000	644.000000	0.000000	117.000000	52.000000	71.000000	187.000000
0.440000	19.840000	71.510000	681.000000	0.000000	120.000000	52.000000	29.000000	107.000000
0.450000	19.840000	71.620000	693.000000	0.000000	121.000000	52.000000	0.000000	11.000000
0.460000	19.540000	71.080000	707.000000	0.000000	122.000000	51.000000	-30.000000	-54.000000
0.470000	19.100000	70.000000	745.000000	0.000000	124.000000	52.000000	-44.000000	-108.000000
0.480000	18.570000	68.830000	757.000000	0.000000	126.000000	51.000000	-53.000000	-117.000000
0.490000	18.440000	67.600000	780.000000	0.000000	126.000000	51.000000	-13.000000	-123.000000
0.500000	18.350000	66.720000	782.000000	0.000000	126.000000	51.000000	-9.000000	-88.000000
0.510000	18.350000	66.100000	777.000000	0.000000	124.000000	52.000000	0.000000	-62.000000
0.520000	18.420000	65.650000	763.000000	0.000000	123.000000	52.000000	7.000000	-45.000000
0.530000	18.530000	65.370000	753.000000	0.000000	122.000000	53.000000	11.000000	-28.000000
0.540000	18.660000	65.260000	748.000000	0.000000	120.000000	52.000000	13.000000	-11.000000
0.550000	18.760000	65.260000	742.000000	0.000000	118.000000	53.000000	10.000000	0.000000
0.560000	18.840000	65.330000	731.000000	0.000000	117.000000	53.000000	8.000000	7.000000
0.570000	18.990000	65.580000	724.000000	0.000000	117.000000	53.000000	15.000000	25.000000
0.580000	19.160000	65.970000	719.000000	0.000000	116.000000	53.000000	17.000000	39.000000
0.590000	19.370000	66.390000	681.000000	0.000000	116.000000	53.000000	21.000000	42.000000
0.600000	19.610000	66.800000	647.000000	0.000000	116.000000	53.000000	24.000000	41.000000
0.610000	19.820000	67.030000	599.000000	0.000000	117.000000	53.000000	21.000000	23.000000
0.620000	20.000000	67.140000	539.000000	0.000000	118.000000	54.000000	18.000000	11.000000
0.630000	20.150000	67.140000	468.000000	0.000000	118.000000	54.000000	15.000000	0.000000
0.640000	20.270000	67.060000	325.000000	0.000000	118.000000	54.000000	12.000000	-8.000000
0.650000	20.360000	67.000000	191.000000	0.000000	118.000000	54.000000	9.000000	-6.000000
0.660000	20.520000	66.940000	55.000000	0.000000	119.000000	53.000000	16.000000	-6.000000
0.670000	20.520000	66.940000	0.000000	1.000000	119.000000	53.000000	0.000000	0.000000
0.680000	21.250000	67.030000	0.000000	0.000000	119.000000	53.000000	73.000000	9.000000
0.690000	21.610000	67.110000	0.000000	0.000000	119.000000	53.000000	36.000000	8.000000
0.700000	21.990000	67.220000	0.000000	0.000000	119.000000	53.000000	38.000000	11.000000
0.710000	22.400000	67.350000	0.000000	0.000000	119.000000	53.000000	41.000000	13.000000
0.720000	22.960000	67.500000	0.000000	0.000000	119.000000	53.000000	56.000000	15.000000
0.730000	23.610000	67.650000	0.000000	0.000000	119.000000	53.000000	65.000000	15.000000
0.740000	24.440000	67.800000	0.000000	0.000000	119.000000	53.000000	83.000000	15.000000
0.750000	25.260000	68.040000	0.000000	0.000000	119.000000	53.000000	82.000000	24.000000
0.760000	26.080000	68.340000	0.000000	0.000000	121.000000	53.000000	82.000000	30.000000
0.770000	26.830000	68.800000	0.000000	0.000000	121.000000	53.000000	75.000000	46.000000
0.780000	26.830000	68.800000	175.000000	1.000000	122.000000	53.000000	0.000000	0.000000
0.790000	28.180000	70.150000	222.000000	0.000000	123.000000	52.000000	135.000000	135.000000
0.800000	28.710000	71.080000	279.000000	0.000000	125.000000	53.000000	53.000000	93.000000
0.810000	29.160000	72.110000	386.000000	0.000000	127.000000	52.000000	45.000000	103.000000
0.820000	30.250000	73.220000	474.000000	0.000000	128.000000	52.000000	109.000000	111.000000
0.830000	30.730000	73.960000	551.000000	0.000000	129.000000	51.000000	48.000000	74.000000
0.840000	30.800000	73.910000	671.000000	0.000000	130.000000	51.000000	7.000000	-5.000000
0.850000	30.610000	73.340000	746.000000	0.000000	132.000000	50.000000	-19.000000	-57.000000
0.860000	29.900000	71.760000	796.000000	0.000000	133.000000	50.000000	-71.000000	-158.000000
0.870000	28.840000	69.910000	817.000000	0.000000	133.000000	50.000000	-106.000000	-185.000000
0.880000	27.870000	67.870000	834.000000	0.000000	133.000000	50.000000	-97.000000	-204.000000
0.890000	27.310000	66.540000	837.000000	0.000000	132.000000	50.000000	-56.000000	-133.000000
0.900000	27.020000	65.600000	824.000000	0.000000	130.000000	51.000000	-29.000000	-94.000000
0.910000	26.970000	64.910000	826.000000	0.000000	128.000000	50.000000	-5.000000	-69.000000
0.920000	27.080000	64.590000	790.000000	0.000000	126.000000	50.000000	11.000000	-32.000000
0.930000	27.300000	64.590000	780.000000	0.000000	123.000000	51.000000	22.000000	0.000000
0.940000	27.660000	64.790000	765.000000	0.000000	121.000000	51.000000	36.000000	20.000000
0.950000	28.190000	65.320000	760.000000	0.000000	120.000000	51.000000	53.000000	53.000000
0.960000	28.830000	66.040000	728.000000	0.000000	120.000000	51.000000	64.000000	72.000000
0.970000	29.530000	66.890000	711.000000	0.000000	120.000000	51.000000	70.000000	85.000000
0.980000	30.270000	67.720000	681.000000	0.000000	120.000000	51.000000	74.000000	83.000000
0.990000	31.090000	68.340000	673.000000	0.000000	121.000000	52.000000	82.000000	62.000000
1.000000	31.960000	68.810000	667.000000	0.000000	122.000000	51.000000	87.000000	47.000000
1.010000	32.500000	68.700000	658.000000	0.000000	123.000000	52.000000	54.000000	-11.000000
1.020000	32.810000	68.400000	656.000000	0.000000	124.000000	52.000000	31.000000	-30.000000
1.030000	33.040000	67.970000	655.000000	0.000000	125.000000	53.000000	23.000000	-43.000000
1.040000	33.310000	67.780000	655.000000	0.000000	125.000000	53.000000	27.000000	-19.000000
1.050000	33.660000	67.660000	664.000000	0.000000	128.000000	53.000000	35.000000	-12.000000
1.060000	34.120000	67.580000	664.000000	0.000000	128.000000	53.000000	46.000000	-8.000000
1.070000	34.660000	67.630000	662.000000	0.000000	128.000000	53.000000	54.000000	5.000000
1.080000	35.260000	67.630000	659.000000	0.000000	128.000000	53.000000	60.000000	0.000000
1.090000	35.920000	67.810000	647.000000	0.000000	129.000000	53.000000	66.000000	18.000000
1.100000	36.710000	68.030000	619.000000	0.000000	129.000000	53.000000	79.000000	22.000000
1.110000	37.580000	68.170000	570.000000	0.000000	129.000000	53.000000	87.000000	14.000000
1.120000	38.250000	68.270000	537.000000	0.000000	129.000000	53.000000	67.000000	10.000000
1.130000	38.550000	68.210000	519.000000	0.000000	128.000000	53.000000	30.000000	-6.000000
1.140000	38.600000	68.050000	553.000000	0.000000	128.000000	53.000000	5.000000	-16.000000
1.150000	37.700000	67.600000	592.000000	0.000000	128.000000	53.000000	-90.000000	-45.000000
1.160000	35.350000	66.740000	644.000000	0.000000	129.000000	52.000000	-235.000000	-86.000000
1.170000	32.030000	65.620000	725.000000	0.000000	127.000000	52.000000	-332.000000	-112.000000
1.180000	27.820000	64.060000	753.000000	0.000000	128.000000	53.000000	-421.000000	-156.000000
1.190000	23.470000	62.450000	784.000000	0.000000	128.000000	53.000000	-435.000000	-161.000000
1.200000	19.030000	60.800000	797.000000	0.000000	127.000000	53.000000	-444.000000	-165.000000
1.210000	16.120000	59.730000	836.000000	0.000000	127.000000	53.000000	-291.000000	-107.000000
1.220000	14.630000	59.180000	869.000000	0.000000	127.000000	53.000000	-149.000000	-55.000000
1.230000	14.090000	58.980000	854.000000	0.000000	125.000000	54.000000	-54.000000	-20.000000
1.240000	14.140000	58.910000	864.000000	0.000000	125.000000	54.000000	5.000000	-7.000000
1.250000	14.490000	58.830000	854.000000	0.000000	125.000000	54.000000	35.000000	-8.000000
1.260000	15.030000	58.710000	843.000000	0.000000	123.000000	53.000000	54.000000	-12.000000
1.270000	15.860000	58.590000	839.000000	0.000000	123.000000	53.000000	83.000000	-12.000000
1.280000	16.930000	58.640000	818.000000	0.000000	122.000000	54.000000	107.000000	5.000000
1.290000	18.170000	58.800000	793.000000	0.000000	122.000000	54.000000	124.000000	16.000000
1.300000	19.390000	59.000000	746.000000	0.000000	122.000000	54.000000	122.000000	20.000000
1.310000	20.660000	59.210000	666.000000	0.000000	122.000000	54.000000	127.000000	21.000000
1.320000	21.810000	59.460000	575.000000	0.000000	122.000000	54.000000	115.000000	25.000000
1.330000	22.860000	59.580000	522.000000	0.000000	122.000000	54.000000	105.000000	12.000000
1.340000	23.400000	59.580000	472.000000	0.000000	122.000000	54.000000	54.000000	0.000000
1.350000	23.600000	59.390000	443.000000	0.000000	123.000000	55.000000	20.000000	-19.000000
1.360000	23.600000	59.150000	420.000000	0.000000	123.000000	55.000000	0.000000	-24.000000
1.370000	23.390000	58.860000	315.000000	0.000000	123.000000	55.000000	-21.000000	-29.000000
1.380000	23.190000	58.550000	167.000000	0.000000	123.000000	55.000000	-20.000000	-31.000000
1.390000	23.190000	58.550000	0.000000	1.000000	123.000000	55.000000	0.000000	0.000000
1.400000	22.900000	58.270000	0.000000	0.000000	123.000000	55.000000	-29.000000	-28.000000
1.410000	22.840000	58.200000	0.000000	0.000000	121.000000	55.000000	-6.000000	-7.000000
1.420000	22.790000	58.200000	0.000000	0.000000	121.000000	55.000000	-5.000000	0.000000
1.430000	22.790000	58.200000	0.000000	0.000000	121.000000	55.000000	0.000000	0.000000
1.440000	22.790000	58.310000	0.000000	0.000000	121.000000	55.000000	0.000000	11.000000
1.450000	23.190000	58.470000	0.000000	0.000000	120.000000	55.000000	40.000000	16.000000
1.460000	23.780000	58.670000	0.000000	0.000000	120.000000	55.000000	59.000000	20.000000
1.470000	24.630000	58.790000	0.000000	0.000000	120.000000	55.000000	85.000000	12.000000
1.480000	25.470000	58.890000	0.000000	0.000000	118.000000	56.000000	84.000000	10.000000
1.490000	26.310000	58.940000	0.000000	0.000000	118.000000	56.000000	84.000000	5.000000
1.500000	26.930000	58.990000	0.000000	0.000000	118.000000	56.000000	62.000000	5.000000
1.510000	27.400000	58.990000	0.000000	0.000000	117.000000	56.000000	47.000000	0.000000
1.520000	27.840000	59.080000	0.000000	0.000000	116.000000	55.000000	44.000000	9.000000
1.530000	28.290000	59.160000	0.000000	0.000000	116.000000	55.000000	45.000000	8.000000
1.540000	28.700000	59.250000	0.000000	0.000000	116.000000	55.000000	41.000000	9.000000
1.550000	29.070000	59.390000	0.000000	0.000000	116.000000	55.000000	37.000000	14.000000
1.560000	29.360000	59.580000	0.000000	0.000000	116.000000	55.000000	29.000000	19.000000
1.570000	29.540000	59.800000	0.000000	0.000000	117.000000	54.000000	18.000000	22.000000
1.580000	29.640000	59.990000	0.000000	0.000000	119.000000	54.000000	10.000000	19.000000
1.590000	29.740000	60.170000	0.000000	0.000000	119.000000	54.000000	10.000000	18.000000
1.600000	29.740000	60.170000	226.000000	1.000000	120.000000	54.000000	0.000000	0.000000
1.610000	29.740000	60.170000	386.000000	0.000000	123.000000	55.000000	0.000000	0.000000
1.620000	29.740000	60.170000	544.000000	0.000000	123.000000	55.000000	0.000000	0.000000
1.630000	29.740000	60.170000	610.000000	0.000000	124.000000	54.000000	0.000000	0.000000
1.640000	29.420000	59.820000	653.000000	0.000000	125.000000	55.000000	-32.000000	-35.000000
1.650000	29.310000	59.540000	671.000000	0.000000	126.000000	54.000000	-11.000000	-28.000000
1.660000	29.250000	59.260000	671.000000	0.000000	126.000000	54.000000	-6.000000	-28.000000
1.670000	29.250000	59.080000	664.000000	0.000000	126.000000	54.000000	0.000000	-18.000000
1.680000	29.250000	58.970000	638.000000	0.000000	126.000000	54.000000	0.000000	-11.000000
1.690000	29.250000	58.970000	592.000000	0.000000	124.000000	54.000000	0.000000	0.000000
1.700000	29.330000	58.970000	546.000000	0.000000	124.000000	54.000000	8.000000	0.000000
1.710000	29.430000	59.100000	526.000000	0.000000	124.000000	54.000000	10.000000	13.000000
1.720000	29.600000	59.370000	519.000000	0.000000	124.000000	54.000000	17.000000	27.000000
1.730000	29.730000	59.700000	502.000000	0.000000	124.000000	54.000000	13.000000	33.000000
1.740000	29.820000	60.070000	496.000000	0.000000	124.000000	54.000000	9.000000	37.000000
1.750000	29.940000	60.420000	489.000000	0.000000	124.000000	54.000000	12.000000	35.000000
1.760000	30.000000	60.610000	509.000000	0.000000	124.000000	54.000000	6.000000	19.000000
1.770000	30.000000	60.690000	524.000000	0.000000	124.000000	54.000000	0.000000	8.000000
1.780000	30.000000	60.580000	542.000000	0.000000	125.000000	54.000000	0.000000	-11.000000
1.790000	30.000000	60.440000	567.000000	0.000000	125.000000	54.000000	0.000000	-14.000000
1.800000	30.060000	60.230000	561.000000	0.000000	125.000000	54.000000	6.000000	-21.000000
1.810000	30.060000	60.060000	570.000000	0.000000	125.000000	54.000000	0.000000	-17.000000
1.820000	30.060000	59.920000	577.000000	0.000000	125.000000	54.000000	0.000000	-14.000000
1.830000	30.060000	59.850000	570.000000	0.000000	125.000000	54.000000	0.000000	-7.000000
1.840000	30.170000	59.850000	569.000000	0.000000	124.000000	53.000000	11.000000	0.000000
1.850000	30.260000	59.960000	551.000000	0.000000	124.000000	53.000000	9.000000	11.000000
1.860000	30.460000	60.200000	536.000000	0.000000	124.000000	53.000000	20.000000	24.000000
1.870000	30.720000	60.440000	527.000000	0.000000	124.000000	53.000000	26.000000	24.000000
1.880000	30.840000	60.670000	520.000000	0.000000	124.000000	53.000000	12.000000	23.000000
1.890000	30.900000	60.870000	510.000000	0.000000	124.000000	53.000000	6.000000	20.000000
1.900000	30.900000	60.980000	505.000000	0.000000	124.000000	53.000000	0.000000	11.000000
1.910000	30.900000	60.980000	504.000000	0.000000	125.000000	54.000000	0.000000	0.000000
1.920000	30.900000	60.880000	512.000000	0.000000	125.000000	54.000000	0.000000	-10.000000
1.930000	30.900000	60.690000	516.000000	0.000000	125.000000	54.000000	0.000000	-19.000000
1.940000	30.900000	60.440000	533.000000	0.000000	127.000000	53.000000	0.000000	-25.000000
1.950000	30.900000	60.270000	529.000000	0.000000	127.000000	53.000000	0.000000	-17.000000
1.960000	30.900000	60.140000	464.000000	0.000000	127.000000	53.000000	0.000000	-13.000000
1.970000	30.900000	60.050000	187.000000	0.000000	127.000000	53.000000	0.000000	-9.000000
1.980000	30.900000	60.050000	0.000000	1.000000	127.000000	53.000000	0.000000	0.000000
1.990000	31.120000	60.050000	0.000000	0.000000	127.000000	53.000000	22.000000	0.000000
2.000000	31.260000	60.130000	0.000000	0.000000	125.000000	54.000000	14.000000	8.000000
2.010000	31.440000	60.300000	0.000000	0.000000	125.000000	54.000000	18.000000	17.000000
2.020000	31.710000	60.510000	0.000000	0.000000	125.000000	54.000000	27.000000	21.000000
2.030000	32.040000	60.690000	0.000000	0.000000	124.000000	53.000000	33.000000	18.000000
2.040000	32.360000	60.840000	0.000000	0.000000	124.000000	53.000000	32.000000	15.000000
2.050000	32.610000	60.910000	0.000000	0.000000	124.000000	53.000000	25.000000	7.000000
2.060000	32.610000	60.910000	233.000000	1.000000	124.000000	53.000000	0.000000	0.000000
2.070000	32.610000	60.910000	474.000000	0.000000	124.000000	53.000000	0.000000	0.000000
2.080000	32.610000	60.630000	577.000000	0.000000	125.000000	54.000000	0.000000	-28.000000
2.090000	32.490000	60.470000	627.000000	0.000000	125.000000	54.000000	-12.000000	-16.000000
2.100000	32.490000	60.370000	634.000000	0.000000	127.000000	53.000000	0.000000	-10.000000
2.110000	32.430000	60.320000	614.000000	0.000000	128.000000	54.000000	-6.000000	-5.000000
2.120000	32.430000	60.320000	548.000000	0.000000	128.000000	54.000000	0.000000	0.000000
2.130000	32.480000	60.260000	351.000000	0.000000	128.000000	54.000000	5.000000	-6.000000
2.140000	32.480000	60.260000	0.000000	1.000000	128.000000	54.000000	0.000000	0.000000
2.150000	32.550000	60.310000	0.000000	0.000000	128.000000	54.000000	7.000000	5.000000
2.160000	32.550000	60.410000	0.000000	0.000000	128.000000	54.000000	0.000000	10.000000
2.170000	32.550000	60.530000	0.000000	0.000000	128.000000	54.000000	0.000000	12.000000
2.180000	32.650000	60.690000	0.000000	0.000000	128.000000	54.000000	10.000000	16.000000
2.190000	32.770000	60.880000	0.000000	0.000000	127.000000	53.000000	12.000000	19.000000
2.200000	33.000000	61.050000	0.000000	0.000000	127.000000	53.000000	23.000000	17.000000
2.210000	33.300000	61.160000	0.000000	0.000000	127.000000	53.000000	30.000000	11.000000
