t	x	y	pressure	penup	azimuth	inclination	v_x	v_y
0.000000	12.780000	48.870000	255.000000	1.000000	125.000000	59.000000	0.000000	0.000000
0.010000	12.780000	48.870000	289.000000	0.000000	125.000000	59.000000	0.000000	0.000000
0.020000	12.780000	48.870000	310.000000	0.000000	126.000000	58.000000	0.000000	0.000000
0.030000	12.780000	48.870000	361.000000	0.000000	124.000000	57.000000	0.000000	0.000000
0.040000	13.190000	49.440000	422.000000	0.000000	123.000000	56.000000	41.000000	57.000000
0.050000	13.520000	49.900000	443.000000	0.000000	125.000000	56.000000	33.000000	46.000000
0.060000	13.920000	50.470000	491.000000	0.000000	125.000000	56.000000	40.000000	57.000000
0.070000	14.470000	51.070000	512.000000	0.000000	124.000000	55.000000	55.000000	60.000000
0.080000	15.020000	51.700000	524.000000	0.000000	125.000000	56.000000	55.000000	63.000000
0.090000	15.590000	52.260000	524.000000	0.000000	126.000000	56.000000	57.000000	56.000000
0.100000	16.120000	52.660000	521.000000	0.000000	126.000000	56.000000	53.000000	40.000000
0.110000	16.640000	52.960000	512.000000	0.000000	126.000000	56.000000	52.000000	30.000000
0.120000	16.990000	53.070000	491.000000	0.000000	125.000000	55.000000	35.000000	11.000000
0.130000	17.100000	52.880000	492.000000	0.000000	125.000000	55.000000	11.000000	-19.000000
0.140000	17.050000	52.490000	505.000000	0.000000	126.000000	54.000000	-5.000000	-39.000000
0.150000	16.720000	51.680000	526.000000	0.000000	126.000000	54.000000	-33.000000	-81.000000
0.160000	16.310000	50.630000	543.000000	0.000000	125.000000	55.000000	-41.000000	-105.000000
0.170000	15.850000	49.410000	562.000000	0.000000	125.000000	55.000000	-46.000000	-122.000000
0.180000	15.620000	48.180000	563.000000	0.000000	125.000000	55.000000	-23.000000	-123.000000
0.190000	15.570000	47.010000	574.000000	0.000000	125.000000	56.000000	-5.000000	-117.000000
0.200000	15.640000	46.020000	578.000000	0.000000	125.000000	56.000000	7.000000	-99.000000
0.210000	15.950000	45.120000	580.000000	0.000000	124.000000	57.000000	31.000000	-90.000000
0.220000	16.540000	44.380000	589.000000	0.000000	123.000000	58.000000	59.000000	-74.000000
0.230000	17.310000	43.760000	588.000000	0.000000	124.000000	58.000000	77.000000	-62.000000
0.240000	18.330000	43.210000	595.000000	0.000000	124.000000	58.000000	102.000000	-55.000000
0.250000	19.400000	42.770000	599.000000	0.000000	124.000000	58.000000	107.000000	-44.000000
0.260000	20.530000	42.350000	592.000000	0.000000	123.000000	58.000000	113.000000	-42.000000
0.270000	21.590000	41.950000	562.000000	0.000000	123.000000	58.000000	106.000000	-40.000000
0.280000	21.980000	41.520000	516.000000	0.000000	123.000000	58.000000	39.000000	-43.000000
0.290000	21.980000	41.080000	493.000000	0.000000	122.000000	57.000000	0.000000	-44.000000
0.300000	20.850000	40.460000	473.000000	0.000000	122.000000	57.000000	-113.000000	-62.000000
0.310000	18.920000	39.710000	501.000000	0.000000	123.000000	56.000000	-193.000000	-75.000000
0.320000	16.450000	38.930000	620.000000	0.000000	123.000000	56.000000	-247.000000	-78.000000
0.330000	13.990000	38.440000	750.000000	0.000000	123.000000	56.000000	-246.000000	-49.000000
0.340000	12.350000	38.140000	869.000000	0.000000	123.000000	56.000000	-164.000000	-30.000000
0.350000	11.260000	38.450000	891.000000	0.000000	123.000000	56.000000	-109.000000	31.000000
0.360000	11.260000	39.140000	905.000000	0.000000	122.000000	56.000000	0.000000	69.000000
0.370000	12.230000	40.080000	914.000000	0.000000	123.000000	56.000000	97.000000	94.000000
0.380000	13.770000	41.300000	937.000000	0.000000	123.000000	56.000000	154.000000	122.000000
0.390000	16.500000	42.850000	976.000000	0.000000	123.000000	56.000000	273.000000	155.000000
0.400000	20.500000	44.610000	992.000000	0.000000	123.000000	56.000000	400.000000	176.000000
0.410000	25.350000	46.500000	979.000000	0.000000	123.000000	56.000000	485.000000	189.000000
0.420000	30.630000	48.400000	938.000000	0.000000	123.000000	56.000000	528.000000	190.000000
0.430000	35.920000	50.310000	873.000000	0.000000	124.000000	57.000000	529.000000	191.000000
0.440000	39.590000	51.470000	751.000000	0.000000	126.000000	57.000000	367.000000	116.000000
0.450000	42.180000	51.850000	448.000000	0.000000	128.000000	57.000000	259.000000	38.000000
0.460000	42.180000	51.850000	0.000000	1.000000	130.000000	56.000000	0.000000	0.000000
0.470000	40.870000	51.040000	0.000000	0.000000	130.000000	56.000000	-131.000000	-81.000000
0.480000	38.090000	50.020000	0.000000	0.000000	131.000000	56.000000	-278.000000	-102.000000
0.490000	34.130000	48.780000	0.000000	0.000000	131.000000	56.000000	-396.000000	-124.000000
0.500000	30.190000	47.600000	0.000000	0.000000	131.000000	56.000000	-394.000000	-118.000000
0.510000	26.270000	46.830000	0.000000	0.000000	130.000000	55.000000	-392.000000	-77.000000
0.520000	22.880000	46.330000	0.000000	0.000000	130.000000	55.000000	-339.000000	-50.000000
0.530000	20.360000	46.010000	0.000000	0.000000	129.000000	55.000000	-252.000000	-32.000000
0.540000	18.430000	45.950000	0.000000	0.000000	128.000000	54.000000	-193.000000	-6.000000
0.550000	17.380000	46.060000	0.000000	0.000000	127.000000	53.000000	-105.000000	11.000000
0.560000	17.040000	46.380000	0.000000	0.000000	127.000000	53.000000	-34.000000	32.000000
0.570000	17.160000	46.740000	0.000000	0.000000	125.000000	53.000000	12.000000	36.000000
0.580000	17.560000	47.140000	0.000000	0.000000	125.000000	53.000000	40.000000	40.000000
0.590000	18.000000	47.500000	0.000000	0.000000	125.000000	53.000000	44.000000	36.000000
0.600000	18.510000	47.840000	0.000000	0.000000	127.000000	52.000000	51.000000	34.000000
0.610000	18.840000	48.120000	0.000000	0.000000	126.000000	51.000000	33.000000	28.000000
0.620000	19.050000	48.120000	0.000000	0.000000	126.000000	51.000000	21.000000	0.000000
0.630000	18.810000	48.010000	0.000000	0.000000	126.000000	51.000000	-24.000000	-11.000000
0.640000	18.330000	47.700000	0.000000	0.000000	126.000000	51.000000	-48.000000	-31.000000
0.650000	17.680000	47.370000	0.000000	0.000000	126.000000	51.000000	-65.000000	-33.000000
0.660000	17.110000	47.040000	0.000000	0.000000	124.000000	52.000000	-57.000000	-33.000000
0.670000	16.570000	46.790000	0.000000	0.000000	124.000000	52.000000	-54.000000	-25.000000
0.680000	16.090000	46.580000	0.000000	0.000000	125.000000	53.000000	-48.000000	-21.000000
0.690000	15.910000	46.580000	0.000000	0.000000	124.000000	53.000000	-18.000000	0.000000
0.700000	15.910000	46.640000	0.000000	0.000000	125.000000	54.000000	0.000000	6.000000
0.710000	16.170000	46.810000	0.000000	0.000000	124.000000	54.000000	26.000000	17.000000
0.720000	16.500000	47.010000	0.000000	0.000000	125.000000	55.000000	33.000000	20.000000
0.730000	16.900000	47.240000	0.000000	0.000000	124.000000	55.000000	40.000000	23.000000
0.740000	17.270000	47.480000	0.000000	0.000000	125.000000	56.000000	37.000000	24.000000
0.750000	17.530000	47.660000	0.000000	0.000000	125.000000	56.000000	26.000000	18.000000
0.760000	17.530000	47.660000	91.000000	1.000000	125.000000	56.000000	0.000000	0.000000
0.770000	17.930000	47.900000	222.000000	0.000000	125.000000	56.000000	40.000000	24.000000
0.780000	17.870000	47.900000	275.000000	0.000000	124.000000	55.000000	-6.000000	0.000000
0.790000	17.620000	47.830000	371.000000	0.000000	124.000000	55.000000	-25.000000	-7.000000
0.800000	17.540000	47.680000	422.000000	0.000000	124.000000	55.000000	-8.000000	-15.000000
0.810000	17.480000	47.470000	488.000000	0.000000	124.000000	55.000000	-6.000000	-21.000000
0.820000	17.420000	47.150000	539.000000	0.000000	125.000000	55.000000	-6.000000	-32.000000
0.830000	17.470000	46.770000	578.000000	0.000000	123.000000	55.000000	5.000000	-38.000000
0.840000	17.550000	46.370000	589.000000	0.000000	123.000000	55.000000	8.000000	-40.000000
0.850000	17.680000	45.980000	614.000000	0.000000	123.000000	55.000000	13.000000	-39.000000
0.860000	17.850000	45.650000	620.000000	0.000000	122.000000	56.000000	17.000000	-33.000000
0.870000	18.040000	45.370000	628.000000	0.000000	121.000000	56.000000	19.000000	-28.000000
0.880000	18.320000	45.210000	628.000000	0.000000	121.000000	56.000000	28.000000	-16.000000
0.890000	18.660000	45.210000	624.000000	0.000000	119.000000	56.000000	34.000000	0.000000
0.900000	19.070000	45.280000	614.000000	0.000000	119.000000	56.000000	41.000000	7.000000
0.910000	19.480000	45.510000	595.000000	0.000000	118.000000	57.000000	41.000000	23.000000
0.920000	19.890000	45.890000	565.000000	0.000000	118.000000	57.000000	41.000000	38.000000
0.930000	20.220000	46.380000	527.000000	0.000000	118.000000	57.000000	33.000000	49.000000
0.940000	20.490000	46.800000	491.000000	0.000000	118.000000	57.000000	27.000000	42.000000
0.950000	20.550000	47.200000	466.000000	0.000000	119.000000	56.000000	6.000000	40.000000
0.960000	20.550000	47.360000	469.000000	0.000000	119.000000	56.000000	0.000000	16.000000
0.970000	20.450000	47.360000	473.000000	0.000000	121.000000	56.000000	-10.000000	0.000000
0.980000	20.380000	47.270000	477.000000	0.000000	121.000000	56.000000	-7.000000	-9.000000
0.990000	20.330000	47.120000	512.000000	0.000000	121.000000	56.000000	-5.000000	-15.000000
1.000000	20.330000	46.850000	527.000000	0.000000	122.000000	56.000000	0.000000	-27.000000
1.010000	20.330000	46.510000	541.000000	0.000000	122.000000	56.000000	0.000000	-34.000000
1.020000	20.480000	46.290000	536.000000	0.000000	122.000000	56.000000	15.000000	-22.000000
1.030000	20.630000	46.190000	546.000000	0.000000	122.000000	56.000000	15.000000	-10.000000
1.040000	20.940000	46.190000	514.000000	0.000000	121.000000	56.000000	31.000000	0.000000
1.050000	21.350000	46.280000	369.000000	0.000000	121.000000	56.000000	41.000000	9.000000
1.060000	21.880000	46.550000	24.000000	0.000000	121.000000	56.000000	53.000000	27.000000
1.070000	21.880000	46.550000	0.000000	1.000000	121.000000	56.000000	0.000000	0.000000
1.080000	22.870000	47.300000	0.000000	0.000000	121.000000	56.000000	99.000000	75.000000
1.090000	23.230000	47.690000	0.000000	0.000000	121.000000	56.000000	36.000000	39.000000
1.100000	23.450000	48.090000	0.000000	0.000000	121.000000	56.000000	22.000000	40.000000
1.110000	23.650000	48.480000	0.000000	0.000000	121.000000	56.000000	20.000000	39.000000
1.120000	23.840000	48.640000	0.000000	0.000000	122.000000	56.000000	19.000000	16.000000
1.130000	23.950000	48.640000	0.000000	0.000000	122.000000	56.000000	11.000000	0.000000
1.140000	23.950000	48.490000	0.000000	0.000000	122.000000	56.000000	0.000000	-15.000000
1.150000	23.800000	48.210000	0.000000	0.000000	123.000000	55.000000	-15.000000	-28.000000
1.160000	23.800000	48.210000	269.000000	1.000000	123.000000	55.000000	0.000000	0.000000
1.170000	23.260000	47.580000	306.000000	0.000000	124.000000	55.000000	-54.000000	-63.000000
1.180000	22.930000	47.270000	423.000000	0.000000	124.000000	55.000000	-33.000000	-31.000000
1.190000	22.640000	46.990000	485.000000	0.000000	124.000000	55.000000	-29.000000	-28.000000
1.200000	22.520000	46.760000	514.000000	0.000000	125.000000	56.000000	-12.000000	-23.000000
1.210000	22.520000	46.620000	519.000000	0.000000	123.000000	56.000000	0.000000	-14.000000
1.220000	22.640000	46.550000	537.000000	0.000000	123.000000	56.000000	12.000000	-7.000000
1.230000	22.800000	46.550000	540.000000	0.000000	123.000000	56.000000	16.000000	0.000000
1.240000	23.030000	46.550000	533.000000	0.000000	122.000000	57.000000	23.000000	0.000000
1.250000	23.300000	46.740000	529.000000	0.000000	122.000000	57.000000	27.000000	19.000000
1.260000	23.590000	46.960000	502.000000	0.000000	122.000000	57.000000	29.000000	22.000000
1.270000	23.830000	47.170000	469.000000	0.000000	122.000000	57.000000	24.000000	21.000000
1.280000	24.030000	47.410000	410.000000	0.000000	122.000000	57.000000	20.000000	24.000000
1.290000	24.210000	47.680000	361.000000	0.000000	122.000000	57.000000	18.000000	27.000000
1.300000	24.310000	47.970000	368.000000	0.000000	122.000000	57.000000	10.000000	29.000000
1.310000	24.360000	48.060000	387.000000	0.000000	123.000000	56.000000	5.000000	9.000000
1.320000	24.270000	48.060000	415.000000	0.000000	123.000000	56.000000	-9.000000	0.000000
1.330000	24.190000	47.930000	456.000000	0.000000	123.000000	56.000000	-8.000000	-13.000000
1.340000	24.060000	47.670000	509.000000	0.000000	123.000000	56.000000	-13.000000	-26.000000
1.350000	23.900000	47.310000	537.000000	0.000000	123.000000	56.000000	-16.000000	-36.000000
1.360000	23.800000	47.030000	561.000000	0.000000	125.000000	56.000000	-10.000000	-28.000000
1.370000	23.850000	46.860000	592.000000	0.000000	123.000000	56.000000	5.000000	-17.000000
1.380000	23.990000	46.760000	619.000000	0.000000	123.000000	56.000000	14.000000	-10.000000
1.390000	24.240000	46.670000	620.000000	0.000000	123.000000	56.000000	25.000000	-9.000000
1.400000	24.540000	46.740000	620.000000	0.000000	123.000000	56.000000	30.000000	7.000000
1.410000	24.880000	46.930000	565.000000	0.000000	123.000000	56.000000	34.000000	19.000000
1.420000	25.280000	47.240000	404.000000	0.000000	123.000000	56.000000	40.000000	31.000000
1.430000	25.280000	47.240000	0.000000	1.000000	123.000000	56.000000	0.000000	0.000000
1.440000	25.870000	47.890000	0.000000	0.000000	124.000000	57.000000	59.000000	65.000000
1.450000	26.090000	48.280000	0.000000	0.000000	124.000000	57.000000	22.000000	39.000000
1.460000	26.180000	48.620000	0.000000	0.000000	124.000000	57.000000	9.000000	34.000000
1.470000	26.180000	48.900000	0.000000	0.000000	124.000000	57.000000	0.000000	28.000000
1.480000	26.300000	48.900000	0.000000	0.000000	124.000000	57.000000	12.000000	0.000000
1.490000	26.450000	48.690000	0.000000	0.000000	126.000000	57.000000	15.000000	-21.000000
1.500000	26.530000	48.320000	0.000000	0.000000	126.000000	57.000000	8.000000	-37.000000
1.510000	26.530000	48.320000	242.000000	1.000000	125.000000	56.000000	0.000000	0.000000
1.520000	26.530000	47.740000	286.000000	0.000000	125.000000	56.000000	0.000000	-58.000000
1.530000	26.530000	47.740000	377.000000	0.000000	124.000000	55.000000	0.000000	0.000000
1.540000	26.460000	47.740000	496.000000	0.000000	124.000000	55.000000	-7.000000	0.000000
1.550000	26.520000	47.740000	544.000000	0.000000	124.000000	55.000000	6.000000	0.000000
1.560000	26.580000	47.800000	546.000000	0.000000	124.000000	55.000000	6.000000	6.000000
1.570000	26.630000	47.800000	561.000000	0.000000	124.000000	55.000000	5.000000	0.000000
1.580000	26.780000	48.010000	564.000000	0.000000	124.000000	55.000000	15.000000	21.000000
1.590000	26.980000	48.260000	565.000000	0.000000	124.000000	55.000000	20.000000	25.000000
1.600000	27.200000	48.530000	570.000000	0.000000	124.000000	55.000000	22.000000	27.000000
1.610000	27.400000	48.790000	565.000000	0.000000	124.000000	55.000000	20.000000	26.000000
1.620000	27.590000	49.020000	565.000000	0.000000	124.000000	55.000000	19.000000	23.000000
1.630000	27.770000	49.220000	561.000000	0.000000	123.000000	55.000000	18.000000	20.000000
1.640000	27.960000	49.380000	561.000000	0.000000	123.000000	55.000000	19.000000	16.000000
1.650000	28.060000	49.490000	562.000000	0.000000	123.000000	55.000000	10.000000	11.000000
1.660000	28.110000	49.490000	561.000000	0.000000	125.000000	55.000000	5.000000	0.000000
1.670000	28.110000	49.490000	591.000000	0.000000	125.000000	55.000000	0.000000	0.000000
1.680000	28.060000	49.410000	611.000000	0.000000	125.000000	55.000000	-5.000000	-8.000000
1.690000	28.010000	49.250000	636.000000	0.000000	126.000000	54.000000	-5.000000	-16.000000
1.700000	28.010000	49.080000	658.000000	0.000000	126.000000	54.000000	0.000000	-17.000000
1.710000	27.950000	48.920000	676.000000	0.000000	126.000000	54.000000	-6.000000	-16.000000
1.720000	27.950000	48.840000	708.000000	0.000000	126.000000	54.000000	0.000000	-8.000000
1.730000	28.080000	48.750000	716.000000	0.000000	126.000000	54.000000	13.000000	-9.000000
1.740000	28.200000	48.750000	713.000000	0.000000	126.000000	54.000000	12.000000	0.000000
1.750000	28.330000	48.810000	719.000000	0.000000	126.000000	54.000000	13.000000	6.000000
1.760000	28.520000	48.940000	725.000000	0.000000	126.000000	54.000000	19.000000	13.000000
1.770000	28.730000	49.080000	722.000000	0.000000	126.000000	54.000000	21.000000	14.000000
1.780000	28.870000	49.200000	710.000000	0.000000	126.000000	54.000000	14.000000	12.000000
1.790000	28.980000	49.310000	710.000000	0.000000	126.000000	54.000000	11.000000	11.000000
1.800000	29.100000	49.410000	707.000000	0.000000	126.000000	54.000000	12.000000	10.000000
1.810000	29.260000	49.510000	699.000000	0.000000	126.000000	54.000000	16.000000	10.000000
1.820000	29.460000	49.690000	696.000000	0.000000	126.000000	54.000000	20.000000	18.000000
1.830000	29.700000	49.920000	690.000000	0.000000	126.000000	54.000000	24.000000	23.000000
1.840000	29.960000	50.140000	684.000000	0.000000	126.000000	54.000000	26.000000	22.000000
1.850000	30.260000	50.370000	676.000000	0.000000	126.000000	54.000000	30.000000	23.000000
1.860000	30.460000	50.570000	676.000000	0.000000	128.000000	54.000000	20.000000	20.000000
1.870000	30.590000	50.710000	678.000000	0.000000	128.000000	54.000000	13.000000	14.000000
1.880000	30.590000	50.760000	691.000000	0.000000	128.000000	54.000000	0.000000	5.000000
1.890000	30.590000	50.760000	691.000000	0.000000	128.000000	54.000000	0.000000	0.000000
1.900000	30.530000	50.760000	696.000000	0.000000	128.000000	54.000000	-6.000000	0.000000
1.910000	30.430000	50.630000	697.000000	0.000000	129.000000	53.000000	-10.000000	-13.000000
1.920000	30.340000	50.460000	705.000000	0.000000	129.000000	53.000000	-9.000000	-17.000000
1.930000	30.290000	50.260000	707.000000	0.000000	129.000000	53.000000	-5.000000	-20.000000
1.940000	30.290000	50.050000	705.000000	0.000000	129.000000	53.000000	0.000000	-21.000000
1.950000	30.390000	49.860000	707.000000	0.000000	129.000000	53.000000	10.000000	-19.000000
1.960000	30.500000	49.670000	716.000000	0.000000	130.000000	54.000000	11.000000	-19.000000
1.970000	30.600000	49.410000	724.000000	0.000000	129.000000	55.000000	10.000000	-26.000000
1.980000	30.720000	49.130000	734.000000	0.000000	129.000000	55.000000	12.000000	-28.000000
1.990000	30.840000	48.810000	731.000000	0.000000	129.000000	55.000000	12.000000	-32.000000
2.000000	31.010000	48.490000	731.000000	0.000000	127.000000	55.000000	17.000000	-32.000000
2.010000	31.180000	48.170000	734.000000	0.000000	127.000000	55.000000	17.000000	-32.000000
2.020000	31.380000	47.970000	728.000000	0.000000	127.000000	55.000000	20.000000	-20.000000
2.030000	31.600000	47.850000	728.000000	0.000000	126.000000	56.000000	22.000000	-12.000000
2.040000	31.730000	47.850000	720.000000	0.000000	126.000000	56.000000	13.000000	0.000000
2.050000	31.790000	47.950000	721.000000	0.000000	125.000000	56.000000	6.000000	10.000000
2.060000	31.790000	48.060000	721.000000	0.000000	125.000000	56.000000	0.000000	11.000000
2.070000	31.890000	48.220000	722.000000	0.000000	125.000000	56.000000	10.000000	16.000000
2.080000	31.970000	48.380000	733.000000	0.000000	125.000000	56.000000	8.000000	16.000000
2.090000	32.060000	48.530000	728.000000	0.000000	125.000000	56.000000	9.000000	15.000000
2.100000	32.210000	48.670000	705.000000	0.000000	126.000000	57.000000	15.000000	14.000000
2.110000	32.450000	48.870000	691.000000	0.000000	126.000000	57.000000	24.000000	20.000000
2.120000	32.720000	49.120000	636.000000	0.000000	127.000000	56.000000	27.000000	25.000000
2.130000	33.000000	49.430000	592.000000	0.000000	127.000000	56.000000	28.000000	31.000000
2.140000	33.180000	49.720000	530.000000	0.000000	129.000000	56.000000	18.000000	29.000000
2.150000	33.310000	50.000000	466.000000	0.000000	129.000000	56.000000	13.000000	28.000000
2.160000	33.450000	50.270000	445.000000	0.000000	129.000000	56.000000	14.000000	27.000000
2.170000	33.510000	50.530000	460.000000	0.000000	130.000000	55.000000	6.000000	26.000000
2.180000	33.510000	50.600000	485.000000	0.000000	130.000000	55.000000	0.000000	7.000000
2.190000	33.510000	50.670000	516.000000	0.000000	130.000000	55.000000	0.000000	7.000000
2.200000	33.510000	50.720000	556.000000	0.000000	131.000000	55.000000	0.000000	5.000000
