t	x	y	pressure	penup	azimuth	inclination	v_x	v_y
0.000000	13.550000	13.290000	139.000000	1.000000	164.000000	48.000000	0.000000	0.000000
0.010000	13.550000	13.290000	187.000000	0.000000	163.000000	49.000000	0.000000	0.000000
0.020000	13.550000	13.290000	230.000000	0.000000	163.000000	50.000000	0.000000	0.000000
0.030000	13.640000	13.680000	285.000000	0.000000	162.000000	52.000000	9.000000	39.000000
0.040000	13.860000	13.990000	307.000000	0.000000	160.000000	52.000000	22.000000	31.000000
0.050000	14.160000	14.400000	364.000000	0.000000	160.000000	52.000000	30.000000	41.000000
0.060000	14.580000	14.880000	409.000000	0.000000	159.000000	53.000000	42.000000	48.000000
0.070000	15.160000	15.550000	427.000000	0.000000	159.000000	53.000000	58.000000	67.000000
0.080000	15.850000	16.350000	438.000000	0.000000	157.000000	54.000000	69.000000	80.000000
0.090000	16.690000	17.190000	448.000000	0.000000	156.000000	53.000000	84.000000	84.000000
0.100000	17.410000	17.970000	449.000000	0.000000	152.000000	54.000000	72.000000	78.000000
0.110000	18.060000	18.470000	439.000000	0.000000	150.000000	54.000000	65.000000	50.000000
0.120000	18.450000	18.810000	447.000000	0.000000	146.000000	54.000000	39.000000	34.000000
0.130000	18.530000	18.810000	461.000000	0.000000	144.000000	54.000000	8.000000	0.000000
0.140000	18.410000	18.580000	466.000000	0.000000	141.000000	55.000000	-12.000000	-23.000000
0.150000	17.920000	18.100000	469.000000	0.000000	139.000000	55.000000	-49.000000	-48.000000
0.160000	17.320000	17.190000	471.000000	0.000000	137.000000	54.000000	-60.000000	-91.000000
0.170000	16.650000	16.230000	464.000000	0.000000	137.000000	54.000000	-67.000000	-96.000000
0.180000	16.140000	15.350000	474.000000	0.000000	139.000000	54.000000	-51.000000	-88.000000
0.190000	15.900000	14.540000	474.000000	0.000000	142.000000	54.000000	-24.000000	-81.000000
0.200000	15.830000	13.640000	465.000000	0.000000	146.000000	54.000000	-7.000000	-90.000000
0.210000	15.890000	12.740000	477.000000	0.000000	148.000000	54.000000	6.000000	-90.000000
0.220000	16.450000	11.980000	498.000000	0.000000	150.000000	54.000000	56.000000	-76.000000
0.230000	17.330000	11.310000	514.000000	0.000000	152.000000	54.000000	88.000000	-67.000000
0.240000	18.610000	10.920000	527.000000	0.000000	152.000000	54.000000	128.000000	-39.000000
0.250000	20.290000	10.650000	543.000000	0.000000	152.000000	54.000000	168.000000	-27.000000
0.260000	22.240000	10.460000	545.000000	0.000000	152.000000	54.000000	195.000000	-19.000000
0.270000	24.050000	10.260000	539.000000	0.000000	150.000000	54.000000	181.000000	-20.000000
0.280000	25.250000	10.000000	499.000000	0.000000	147.000000	53.000000	120.000000	-26.000000
0.290000	26.030000	9.630000	470.000000	0.000000	146.000000	54.000000	78.000000	-37.000000
0.300000	25.510000	9.180000	465.000000	0.000000	145.000000	54.000000	-52.000000	-45.000000
0.310000	23.450000	8.440000	417.000000	0.000000	146.000000	54.000000	-206.000000	-74.000000
0.320000	20.360000	7.510000	495.000000	0.000000	147.000000	55.000000	-309.000000	-93.000000
0.330000	16.040000	6.280000	647.000000	0.000000	150.000000	54.000000	-432.000000	-123.000000
0.340000	12.270000	5.440000	750.000000	0.000000	153.000000	54.000000	-377.000000	-84.000000
0.350000	8.860000	4.870000	817.000000	0.000000	157.000000	54.000000	-341.000000	-57.000000
0.360000	7.990000	5.180000	828.000000	0.000000	160.000000	53.000000	-87.000000	31.000000
0.370000	8.970000	6.010000	866.000000	0.000000	164.000000	52.000000	98.000000	83.000000
0.380000	11.170000	7.180000	885.000000	0.000000	167.000000	51.000000	220.000000	117.000000
0.390000	14.230000	8.530000	899.000000	0.000000	170.000000	51.000000	306.000000	135.000000
0.400000	18.490000	10.040000	872.000000	0.000000	170.000000	51.000000	426.000000	151.000000
0.410000	23.540000	11.660000	794.000000	0.000000	169.000000	51.000000	505.000000	162.000000
0.420000	28.870000	13.650000	676.000000	0.000000	166.000000	52.000000	533.000000	199.000000
0.430000	33.160000	15.040000	470.000000	0.000000	162.000000	53.000000	429.000000	139.000000
0.440000	36.750000	16.020000	48.000000	0.000000	159.000000	53.000000	359.000000	98.000000
0.450000	36.750000	16.020000	0.000000	1.000000	153.000000	54.000000	0.000000	0.000000
0.460000	39.450000	16.320000	0.000000	0.000000	148.000000	54.000000	270.000000	30.000000
0.470000	38.850000	15.920000	0.000000	0.000000	146.000000	53.000000	-60.000000	-40.000000
0.480000	36.890000	15.270000	0.000000	0.000000	143.000000	53.000000	-196.000000	-65.000000
0.490000	34.210000	14.480000	0.000000	0.000000	143.000000	52.000000	-268.000000	-79.000000
0.500000	31.040000	13.590000	0.000000	0.000000	144.000000	51.000000	-317.000000	-89.000000
0.510000	28.010000	12.640000	0.000000	0.000000	144.000000	50.000000	-303.000000	-95.000000
0.520000	25.670000	11.980000	0.000000	0.000000	144.000000	49.000000	-234.000000	-66.000000
0.530000	23.780000	11.510000	0.000000	0.000000	145.000000	48.000000	-189.000000	-47.000000
0.540000	22.490000	11.300000	0.000000	0.000000	147.000000	47.000000	-129.000000	-21.000000
0.550000	21.700000	11.360000	0.000000	0.000000	148.000000	46.000000	-79.000000	6.000000
0.560000	21.240000	11.600000	0.000000	0.000000	149.000000	46.000000	-46.000000	24.000000
0.570000	21.240000	12.020000	0.000000	0.000000	150.000000	45.000000	0.000000	42.000000
0.580000	21.400000	12.470000	0.000000	0.000000	150.000000	44.000000	16.000000	45.000000
0.590000	21.750000	12.930000	0.000000	0.000000	150.000000	44.000000	35.000000	46.000000
0.600000	21.870000	13.280000	0.000000	0.000000	151.000000	43.000000	12.000000	35.000000
0.610000	21.730000	13.400000	0.000000	0.000000	151.000000	43.000000	-14.000000	12.000000
0.620000	21.410000	13.400000	0.000000	0.000000	151.000000	43.000000	-32.000000	0.000000
0.630000	20.760000	13.170000	0.000000	0.000000	151.000000	43.000000	-65.000000	-23.000000
0.640000	20.060000	12.930000	0.000000	0.000000	150.000000	43.000000	-70.000000	-24.000000
0.650000	19.320000	12.670000	0.000000	0.000000	150.000000	43.000000	-74.000000	-26.000000
0.660000	18.970000	12.480000	0.000000	0.000000	150.000000	43.000000	-35.000000	-19.000000
0.670000	18.810000	12.480000	0.000000	0.000000	150.000000	43.000000	-16.000000	0.000000
0.680000	18.810000	12.580000	0.000000	0.000000	150.000000	43.000000	0.000000	10.000000
0.690000	18.890000	12.730000	0.000000	0.000000	150.000000	43.000000	8.000000	15.000000
0.700000	19.020000	12.910000	0.000000	0.000000	151.000000	42.000000	13.000000	18.000000
0.710000	19.190000	13.120000	0.000000	0.000000	151.000000	42.000000	17.000000	21.000000
0.720000	19.420000	13.310000	0.000000	0.000000	151.000000	43.000000	23.000000	19.000000
0.730000	19.710000	13.510000	0.000000	0.000000	151.000000	43.000000	29.000000	20.000000
0.740000	20.010000	13.700000	0.000000	0.000000	151.000000	43.000000	30.000000	19.000000
0.750000	20.240000	13.830000	0.000000	0.000000	150.000000	44.000000	23.000000	13.000000
0.760000	20.420000	13.900000	0.000000	0.000000	150.000000	44.000000	18.000000	7.000000
0.770000	20.900000	13.900000	0.000000	0.000000	150.000000	45.000000	48.000000	0.000000
0.780000	20.900000	13.900000	0.000000	0.000000	151.000000	45.000000	0.000000	0.000000
0.790000	20.470000	13.900000	0.000000	0.000000	150.000000	46.000000	-43.000000	0.000000
0.800000	20.470000	13.900000	0.000000	0.000000	149.000000	47.000000	0.000000	0.000000
0.810000	20.410000	13.990000	0.000000	0.000000	148.000000	47.000000	-6.000000	9.000000
0.820000	20.410000	13.990000	129.000000	1.000000	147.000000	48.000000	0.000000	0.000000
0.830000	20.410000	13.990000	143.000000	0.000000	146.000000	49.000000	0.000000	0.000000
0.840000	20.360000	14.330000	170.000000	0.000000	146.000000	49.000000	-5.000000	34.000000
0.850000	20.360000	14.430000	249.000000	0.000000	145.000000	50.000000	0.000000	10.000000
0.860000	20.410000	14.430000	289.000000	0.000000	144.000000	50.000000	5.000000	0.000000
0.870000	20.410000	14.430000	346.000000	0.000000	144.000000	50.000000	0.000000	0.000000
0.880000	20.410000	14.290000	389.000000	0.000000	143.000000	51.000000	0.000000	-14.000000
0.890000	20.360000	13.980000	418.000000	0.000000	143.000000	51.000000	-5.000000	-31.000000
0.900000	20.360000	13.550000	465.000000	0.000000	142.000000	52.000000	0.000000	-43.000000
0.910000	20.260000	13.070000	483.000000	0.000000	142.000000	52.000000	-10.000000	-48.000000
0.920000	20.260000	12.690000	492.000000	0.000000	142.000000	52.000000	0.000000	-38.000000
0.930000	20.400000	12.410000	510.000000	0.000000	141.000000	52.000000	14.000000	-28.000000
0.940000	20.570000	12.160000	516.000000	0.000000	141.000000	52.000000	17.000000	-25.000000
0.950000	20.910000	12.040000	526.000000	0.000000	141.000000	52.000000	34.000000	-12.000000
0.960000	21.300000	12.040000	527.000000	0.000000	141.000000	52.000000	39.000000	0.000000
0.970000	21.750000	12.210000	538.000000	0.000000	140.000000	53.000000	45.000000	17.000000
0.980000	22.230000	12.480000	537.000000	0.000000	141.000000	53.000000	48.000000	27.000000
0.990000	22.620000	12.910000	527.000000	0.000000	141.000000	53.000000	39.000000	43.000000
1.000000	22.960000	13.440000	512.000000	0.000000	141.000000	53.000000	34.000000	53.000000
1.010000	23.200000	13.950000	509.000000	0.000000	141.000000	53.000000	24.000000	51.000000
1.020000	23.330000	14.290000	497.000000	0.000000	141.000000	53.000000	13.000000	34.000000
1.030000	23.380000	14.520000	493.000000	0.000000	141.000000	53.000000	5.000000	23.000000
1.040000	23.380000	14.520000	480.000000	0.000000	141.000000	53.000000	0.000000	0.000000
1.050000	23.380000	14.390000	481.000000	0.000000	141.000000	53.000000	0.000000	-13.000000
1.060000	23.330000	14.130000	481.000000	0.000000	141.000000	53.000000	-5.000000	-26.000000
1.070000	23.330000	13.790000	483.000000	0.000000	141.000000	53.000000	0.000000	-34.000000
1.080000	23.330000	13.440000	485.000000	0.000000	141.000000	53.000000	0.000000	-35.000000
1.090000	23.510000	13.110000	473.000000	0.000000	141.000000	53.000000	18.000000	-33.000000
1.100000	23.850000	12.990000	448.000000	0.000000	141.000000	53.000000	34.000000	-12.000000
1.110000	24.300000	12.990000	359.000000	0.000000	140.000000	54.000000	45.000000	0.000000
1.120000	24.900000	13.210000	196.000000	0.000000	140.000000	54.000000	60.000000	22.000000
1.130000	24.900000	13.210000	0.000000	1.000000	140.000000	54.000000	0.000000	0.000000
1.140000	26.080000	14.030000	0.000000	0.000000	140.000000	54.000000	118.000000	82.000000
1.150000	26.480000	14.430000	0.000000	0.000000	140.000000	54.000000	40.000000	40.000000
1.160000	26.770000	14.830000	0.000000	0.000000	140.000000	54.000000	29.000000	40.000000
1.170000	27.000000	15.200000	0.000000	0.000000	140.000000	54.000000	23.000000	37.000000
1.180000	27.200000	15.520000	0.000000	0.000000	141.000000	53.000000	20.000000	32.000000
1.190000	27.360000	15.740000	0.000000	0.000000	142.000000	53.000000	16.000000	22.000000
1.200000	27.480000	15.810000	0.000000	0.000000	142.000000	52.000000	12.000000	7.000000
1.210000	27.570000	15.810000	0.000000	0.000000	143.000000	51.000000	9.000000	0.000000
1.220000	27.570000	15.660000	0.000000	0.000000	143.000000	50.000000	0.000000	-15.000000
1.230000	27.570000	15.660000	142.000000	1.000000	142.000000	49.000000	0.000000	0.000000
1.240000	27.360000	15.330000	182.000000	0.000000	143.000000	49.000000	-21.000000	-33.000000
1.250000	27.080000	15.150000	244.000000	0.000000	141.000000	49.000000	-28.000000	-18.000000
1.260000	26.770000	14.930000	334.000000	0.000000	141.000000	49.000000	-31.000000	-22.000000
1.270000	26.440000	14.680000	413.000000	0.000000	140.000000	50.000000	-33.000000	-25.000000
1.280000	26.230000	14.490000	438.000000	0.000000	141.000000	50.000000	-21.000000	-19.000000
1.290000	26.060000	14.290000	446.000000	0.000000	140.000000	51.000000	-17.000000	-20.000000
1.300000	25.990000	14.150000	450.000000	0.000000	140.000000	52.000000	-7.000000	-14.000000
1.310000	25.990000	14.000000	455.000000	0.000000	140.000000	52.000000	0.000000	-15.000000
1.320000	25.990000	13.920000	445.000000	0.000000	140.000000	53.000000	0.000000	-8.000000
1.330000	26.100000	13.830000	442.000000	0.000000	141.000000	53.000000	11.000000	-9.000000
1.340000	26.250000	13.780000	443.000000	0.000000	142.000000	54.000000	15.000000	-5.000000
1.350000	26.470000	13.780000	422.000000	0.000000	142.000000	54.000000	22.000000	0.000000
1.360000	26.740000	13.780000	420.000000	0.000000	141.000000	55.000000	27.000000	0.000000
1.370000	27.020000	14.000000	400.000000	0.000000	140.000000	54.000000	28.000000	22.000000
1.380000	27.340000	14.330000	391.000000	0.000000	140.000000	54.000000	32.000000	33.000000
1.390000	27.600000	14.700000	367.000000	0.000000	139.000000	54.000000	26.000000	37.000000
1.400000	27.820000	15.040000	369.000000	0.000000	137.000000	53.000000	22.000000	34.000000
1.410000	27.880000	15.350000	381.000000	0.000000	137.000000	53.000000	6.000000	31.000000
1.420000	27.810000	15.500000	394.000000	0.000000	137.000000	52.000000	-7.000000	15.000000
1.430000	27.660000	15.500000	418.000000	0.000000	136.000000	51.000000	-15.000000	0.000000
1.440000	27.500000	15.360000	420.000000	0.000000	136.000000	51.000000	-16.000000	-14.000000
1.450000	27.350000	15.120000	435.000000	0.000000	136.000000	51.000000	-15.000000	-24.000000
1.460000	27.210000	14.860000	443.000000	0.000000	136.000000	50.000000	-14.000000	-26.000000
1.470000	27.210000	14.590000	475.000000	0.000000	136.000000	50.000000	0.000000	-27.000000
1.480000	27.330000	14.350000	490.000000	0.000000	136.000000	50.000000	12.000000	-24.000000
1.490000	27.490000	14.210000	491.000000	0.000000	135.000000	51.000000	16.000000	-14.000000
1.500000	27.710000	14.130000	492.000000	0.000000	135.000000	51.000000	22.000000	-8.000000
1.510000	27.990000	14.130000	495.000000	0.000000	136.000000	51.000000	28.000000	0.000000
1.520000	28.290000	14.230000	456.000000	0.000000	135.000000	52.000000	30.000000	10.000000
1.530000	28.600000	14.410000	373.000000	0.000000	135.000000	52.000000	31.000000	18.000000
1.540000	28.890000	14.650000	221.000000	0.000000	136.000000	52.000000	29.000000	24.000000
1.550000	29.120000	14.900000	1.000000	1.000000	136.000000	52.000000	0.000000	0.000000
1.560000	29.120000	14.900000	0.000000	0.000000	136.000000	52.000000	0.000000	0.000000
1.570000	29.410000	15.320000	0.000000	0.000000	136.000000	52.000000	29.000000	42.000000
1.580000	29.410000	15.320000	0.000000	0.000000	136.000000	52.000000	0.000000	0.000000
1.590000	29.250000	15.230000	0.000000	0.000000	137.000000	52.000000	-16.000000	-9.000000
1.600000	29.130000	15.070000	0.000000	0.000000	137.000000	52.000000	-12.000000	-16.000000
1.610000	29.130000	15.070000	73.000000	1.000000	137.000000	52.000000	0.000000	0.000000
1.620000	29.130000	15.070000	100.000000	0.000000	138.000000	51.000000	0.000000	0.000000
1.630000	29.130000	15.070000	165.000000	0.000000	138.000000	51.000000	0.000000	0.000000
1.640000	29.130000	15.070000	209.000000	0.000000	137.000000	52.000000	0.000000	0.000000
1.650000	29.130000	15.070000	260.000000	0.000000	137.000000	52.000000	0.000000	0.000000
1.660000	29.490000	14.920000	291.000000	0.000000	137.000000	52.000000	36.000000	-15.000000
1.670000	29.710000	15.010000	320.000000	0.000000	137.000000	52.000000	22.000000	9.000000
1.680000	29.980000	15.150000	361.000000	0.000000	137.000000	52.000000	27.000000	14.000000
1.690000	30.270000	15.340000	373.000000	0.000000	139.000000	52.000000	29.000000	19.000000
1.700000	30.590000	15.630000	371.000000	0.000000	139.000000	52.000000	32.000000	29.000000
1.710000	30.980000	15.970000	376.000000	0.000000	139.000000	52.000000	39.000000	34.000000
1.720000	31.410000	16.340000	369.000000	0.000000	139.000000	52.000000	43.000000	37.000000
1.730000	31.650000	16.680000	372.000000	0.000000	139.000000	52.000000	24.000000	34.000000
1.740000	31.740000	16.860000	386.000000	0.000000	139.000000	52.000000	9.000000	18.000000
1.750000	31.740000	16.940000	396.000000	0.000000	141.000000	52.000000	0.000000	8.000000
1.760000	31.540000	16.880000	396.000000	0.000000	141.000000	52.000000	-20.000000	-6.000000
1.770000	31.230000	16.750000	402.000000	0.000000	141.000000	52.000000	-31.000000	-13.000000
1.780000	30.840000	16.510000	412.000000	0.000000	141.000000	52.000000	-39.000000	-24.000000
1.790000	30.600000	16.210000	413.000000	0.000000	141.000000	52.000000	-24.000000	-30.000000
1.800000	30.400000	15.910000	415.000000	0.000000	141.000000	52.000000	-20.000000	-30.000000
1.810000	30.340000	15.630000	423.000000	0.000000	141.000000	52.000000	-6.000000	-28.000000
1.820000	30.340000	15.340000	422.000000	0.000000	141.000000	52.000000	0.000000	-29.000000
1.830000	30.550000	15.050000	430.000000	0.000000	140.000000	52.000000	21.000000	-29.000000
1.840000	30.760000	14.790000	446.000000	0.000000	140.000000	52.000000	21.000000	-26.000000
1.850000	31.210000	14.550000	445.000000	0.000000	139.000000	52.000000	45.000000	-24.000000
1.860000	31.820000	14.380000	460.000000	0.000000	140.000000	53.000000	61.000000	-17.000000
1.870000	32.460000	14.200000	468.000000	0.000000	139.000000	54.000000	64.000000	-18.000000
1.880000	33.070000	13.970000	475.000000	0.000000	139.000000	54.000000	61.000000	-23.000000
1.890000	33.580000	13.600000	496.000000	0.000000	139.000000	55.000000	51.000000	-37.000000
1.900000	34.040000	13.140000	527.000000	0.000000	138.000000	55.000000	46.000000	-46.000000
1.910000	34.270000	12.460000	553.000000	0.000000	136.000000	56.000000	23.000000	-68.000000
1.920000	34.270000	11.740000	581.000000	0.000000	138.000000	57.000000	0.000000	-72.000000
1.930000	34.110000	10.950000	591.000000	0.000000	136.000000	57.000000	-16.000000	-79.000000
1.940000	33.660000	10.320000	611.000000	0.000000	138.000000	58.000000	-45.000000	-63.000000
1.950000	32.990000	9.800000	638.000000	0.000000	138.000000	58.000000	-67.000000	-52.000000
1.960000	32.180000	9.490000	641.000000	0.000000	138.000000	58.000000	-81.000000	-31.000000
1.970000	31.120000	9.360000	605.000000	0.000000	139.000000	57.000000	-106.000000	-13.000000
1.980000	29.680000	9.360000	530.000000	0.000000	139.000000	57.000000	-144.000000	0.000000
1.990000	27.990000	9.360000	490.000000	0.000000	139.000000	56.000000	-169.000000	0.000000
2.000000	26.220000	9.510000	495.000000	0.000000	140.000000	55.000000	-177.000000	15.000000
2.010000	24.460000	9.670000	361.000000	0.000000	141.000000	55.000000	-176.000000	16.000000
2.020000	23.300000	10.250000	108.000000	0.000000	140.000000	54.000000	-116.000000	58.000000
2.030000	22.520000	11.340000	1.000000	1.000000	141.000000	53.000000	0.000000	0.000000
2.040000	22.300000	12.770000	1.000000	0.000000	141.000000	53.000000	-22.000000	143.000000
2.050000	23.000000	14.180000	1.000000	0.000000	141.000000	53.000000	70.000000	141.000000
2.060000	23.000000	14.180000	0.000000	0.000000	143.000000	53.000000	0.000000	0.000000
2.070000	26.130000	16.500000	0.000000	0.000000	143.000000	53.000000	313.000000	232.000000
2.080000	28.130000	17.750000	0.000000	0.000000	142.000000	54.000000	200.000000	125.000000
2.090000	30.240000	18.610000	0.000000	0.000000	142.000000	54.000000	211.000000	86.000000
2.100000	32.170000	19.210000	0.000000	0.000000	142.000000	54.000000	193.000000	60.000000
2.110000	33.530000	19.540000	0.000000	0.000000	141.000000	55.000000	136.000000	33.000000
2.120000	34.510000	19.620000	0.000000	0.000000	141.000000	55.000000	98.000000	8.000000
2.130000	34.950000	19.540000	0.000000	0.000000	139.000000	55.000000	44.000000	-8.000000
2.140000	34.850000	19.220000	0.000000	0.000000	139.000000	55.000000	-10.000000	-32.000000
2.150000	34.850000	19.220000	93.000000	1.000000	139.000000	55.000000	0.000000	0.000000
2.160000	33.640000	18.420000	218.000000	0.000000	138.000000	55.000000	-121.000000	-80.000000
2.170000	32.830000	18.260000	219.000000	0.000000	136.000000	55.000000	-81.000000	-16.000000
2.180000	31.980000	18.260000	207.000000	0.000000	137.000000	54.000000	-85.000000	0.000000
2.190000	31.320000	18.150000	214.000000	0.000000	137.000000	54.000000	-66.000000	-11.000000
2.200000	30.700000	18.070000	179.000000	0.000000	137.000000	54.000000	-62.000000	-8.000000
2.210000	30.460000	18.070000	67.000000	0.000000	137.000000	54.000000	-24.000000	0.000000
