t	x	y	pressure	penup	azimuth	inclination	v_x	v_y
0.000000	16.090000	32.490000	186.000000	1.000000	112.000000	49.000000	0.000000	0.000000
0.010000	16.020000	33.560000	264.000000	0.000000	112.000000	49.000000	-7.000000	107.000000
0.020000	15.920000	33.920000	364.000000	0.000000	111.000000	49.000000	-10.000000	36.000000
0.030000	15.820000	34.200000	422.000000	0.000000	111.000000	50.000000	-10.000000	28.000000
0.040000	15.720000	34.460000	512.000000	0.000000	112.000000	51.000000	-10.000000	26.000000
0.050000	15.650000	34.520000	567.000000	0.000000	112.000000	52.000000	-7.000000	6.000000
0.060000	15.650000	34.520000	575.000000	0.000000	112.000000	53.000000	0.000000	0.000000
0.070000	15.650000	34.460000	583.000000	0.000000	112.000000	53.000000	0.000000	-6.000000
0.080000	15.650000	34.310000	588.000000	0.000000	113.000000	54.000000	0.000000	-15.000000
0.090000	15.720000	33.830000	603.000000	0.000000	113.000000	54.000000	7.000000	-48.000000
0.100000	15.870000	33.150000	617.000000	0.000000	113.000000	54.000000	15.000000	-68.000000
0.110000	16.050000	32.400000	611.000000	0.000000	113.000000	54.000000	18.000000	-75.000000
0.120000	16.320000	31.740000	617.000000	0.000000	112.000000	53.000000	27.000000	-66.000000
0.130000	16.640000	31.340000	619.000000	0.000000	112.000000	53.000000	32.000000	-40.000000
0.140000	16.930000	31.080000	617.000000	0.000000	113.000000	52.000000	29.000000	-26.000000
0.150000	17.170000	30.960000	614.000000	0.000000	112.000000	51.000000	24.000000	-12.000000
0.160000	17.440000	30.960000	627.000000	0.000000	112.000000	51.000000	27.000000	0.000000
0.170000	17.640000	31.090000	636.000000	0.000000	113.000000	50.000000	20.000000	13.000000
0.180000	17.780000	31.430000	636.000000	0.000000	113.000000	50.000000	14.000000	34.000000
0.190000	17.910000	31.860000	637.000000	0.000000	113.000000	50.000000	13.000000	43.000000
0.200000	17.910000	32.360000	647.000000	0.000000	111.000000	49.000000	0.000000	50.000000
0.210000	17.910000	33.000000	661.000000	0.000000	111.000000	50.000000	0.000000	64.000000
0.220000	17.850000	33.610000	667.000000	0.000000	111.000000	50.000000	-6.000000	61.000000
0.230000	17.750000	34.190000	697.000000	0.000000	111.000000	50.000000	-10.000000	58.000000
0.240000	17.620000	34.530000	707.000000	0.000000	110.000000	50.000000	-13.000000	34.000000
0.250000	17.480000	34.820000	724.000000	0.000000	110.000000	50.000000	-14.000000	29.000000
0.260000	17.340000	35.010000	737.000000	0.000000	110.000000	50.000000	-14.000000	19.000000
0.270000	17.200000	35.120000	746.000000	0.000000	110.000000	50.000000	-14.000000	11.000000
0.280000	17.200000	35.120000	737.000000	0.000000	110.000000	50.000000	0.000000	0.000000
0.290000	17.200000	35.050000	728.000000	0.000000	110.000000	50.000000	0.000000	-7.000000
0.300000	17.150000	34.730000	727.000000	0.000000	110.000000	50.000000	-5.000000	-32.000000
0.310000	17.250000	34.270000	697.000000	0.000000	110.000000	50.000000	10.000000	-46.000000
0.320000	17.410000	33.700000	691.000000	0.000000	110.000000	50.000000	16.000000	-57.000000
0.330000	17.660000	33.100000	681.000000	0.000000	110.000000	50.000000	25.000000	-60.000000
0.340000	17.940000	32.430000	664.000000	0.000000	110.000000	50.000000	28.000000	-67.000000
0.350000	18.260000	31.900000	653.000000	0.000000	111.000000	50.000000	32.000000	-53.000000
0.360000	18.600000	31.460000	634.000000	0.000000	111.000000	50.000000	34.000000	-44.000000
0.370000	18.870000	31.170000	628.000000	0.000000	111.000000	50.000000	27.000000	-29.000000
0.380000	19.080000	31.040000	634.000000	0.000000	111.000000	50.000000	21.000000	-13.000000
0.390000	19.190000	31.040000	637.000000	0.000000	111.000000	50.000000	11.000000	0.000000
0.400000	19.190000	31.040000	667.000000	0.000000	111.000000	50.000000	0.000000	0.000000
0.410000	19.190000	31.040000	672.000000	0.000000	113.000000	50.000000	0.000000	0.000000
0.420000	19.130000	31.040000	685.000000	0.000000	113.000000	50.000000	-6.000000	0.000000
0.430000	19.010000	30.990000	697.000000	0.000000	113.000000	50.000000	-12.000000	-5.000000
0.440000	18.850000	30.930000	697.000000	0.000000	113.000000	50.000000	-16.000000	-6.000000
0.450000	18.640000	30.800000	697.000000	0.000000	113.000000	50.000000	-21.000000	-13.000000
0.460000	18.370000	30.490000	696.000000	0.000000	113.000000	50.000000	-27.000000	-31.000000
0.470000	18.060000	30.080000	707.000000	0.000000	113.000000	50.000000	-31.000000	-41.000000
0.480000	17.770000	29.880000	722.000000	0.000000	113.000000	50.000000	-29.000000	-20.000000
0.490000	17.450000	29.720000	736.000000	0.000000	113.000000	50.000000	-32.000000	-16.000000
0.500000	17.100000	29.590000	754.000000	0.000000	113.000000	50.000000	-35.000000	-13.000000
0.510000	16.730000	29.590000	750.000000	0.000000	113.000000	50.000000	-37.000000	0.000000
0.520000	16.430000	29.790000	746.000000	0.000000	113.000000	50.000000	-30.000000	20.000000
0.530000	16.130000	30.120000	754.000000	0.000000	113.000000	50.000000	-30.000000	33.000000
0.540000	16.080000	30.350000	743.000000	0.000000	113.000000	50.000000	-5.000000	23.000000
0.550000	16.200000	30.510000	731.000000	0.000000	112.000000	49.000000	12.000000	16.000000
0.560000	16.330000	30.560000	716.000000	0.000000	112.000000	49.000000	13.000000	5.000000
0.570000	16.630000	30.290000	711.000000	0.000000	113.000000	49.000000	30.000000	-27.000000
0.580000	17.050000	29.820000	708.000000	0.000000	113.000000	49.000000	42.000000	-47.000000
0.590000	17.430000	29.190000	705.000000	0.000000	113.000000	49.000000	38.000000	-63.000000
0.600000	17.760000	28.620000	700.000000	0.000000	112.000000	49.000000	33.000000	-57.000000
0.610000	18.050000	28.300000	697.000000	0.000000	113.000000	50.000000	29.000000	-32.000000
0.620000	18.280000	28.140000	700.000000	0.000000	113.000000	50.000000	23.000000	-16.000000
0.630000	18.390000	28.240000	724.000000	0.000000	111.000000	50.000000	11.000000	10.000000
0.640000	18.390000	28.530000	731.000000	0.000000	111.000000	50.000000	0.000000	29.000000
0.650000	18.390000	28.950000	728.000000	0.000000	111.000000	50.000000	0.000000	42.000000
0.660000	18.300000	29.710000	746.000000	0.000000	111.000000	50.000000	-9.000000	76.000000
0.670000	18.140000	30.780000	742.000000	0.000000	111.000000	50.000000	-16.000000	107.000000
0.680000	17.890000	32.070000	733.000000	0.000000	111.000000	50.000000	-25.000000	129.000000
0.690000	17.570000	33.730000	725.000000	0.000000	111.000000	50.000000	-32.000000	166.000000
0.700000	17.190000	35.040000	722.000000	0.000000	111.000000	50.000000	-38.000000	131.000000
0.710000	16.930000	36.110000	725.000000	0.000000	111.000000	50.000000	-26.000000	107.000000
0.720000	16.690000	36.680000	733.000000	0.000000	113.000000	50.000000	-24.000000	57.000000
0.730000	16.470000	36.990000	733.000000	0.000000	113.000000	50.000000	-22.000000	31.000000
0.740000	16.270000	37.130000	730.000000	0.000000	114.000000	50.000000	-20.000000	14.000000
0.750000	16.160000	37.130000	730.000000	0.000000	114.000000	50.000000	-11.000000	0.000000
0.760000	16.160000	36.720000	727.000000	0.000000	114.000000	50.000000	0.000000	-41.000000
0.770000	16.160000	36.090000	727.000000	0.000000	114.000000	48.000000	0.000000	-63.000000
0.780000	16.440000	34.810000	728.000000	0.000000	114.000000	48.000000	28.000000	-128.000000
0.790000	16.920000	32.940000	730.000000	0.000000	114.000000	48.000000	48.000000	-187.000000
0.800000	17.690000	30.670000	730.000000	0.000000	113.000000	49.000000	77.000000	-227.000000
0.810000	18.450000	28.120000	728.000000	0.000000	114.000000	50.000000	76.000000	-255.000000
0.820000	19.170000	26.000000	731.000000	0.000000	113.000000	50.000000	72.000000	-212.000000
0.830000	19.700000	24.170000	740.000000	0.000000	111.000000	50.000000	53.000000	-183.000000
0.840000	20.120000	23.120000	743.000000	0.000000	110.000000	51.000000	42.000000	-105.000000
0.850000	20.390000	22.440000	745.000000	0.000000	108.000000	52.000000	27.000000	-68.000000
0.860000	20.590000	22.010000	731.000000	0.000000	108.000000	53.000000	20.000000	-43.000000
0.870000	20.730000	21.900000	694.000000	0.000000	106.000000	53.000000	14.000000	-11.000000
0.880000	20.730000	22.060000	592.000000	0.000000	106.000000	54.000000	0.000000	16.000000
0.890000	20.730000	22.400000	337.000000	0.000000	106.000000	54.000000	0.000000	34.000000
0.900000	20.730000	22.400000	0.000000	1.000000	104.000000	54.000000	0.000000	0.000000
0.910000	20.650000	23.990000	0.000000	0.000000	104.000000	54.000000	-8.000000	159.000000
0.920000	20.540000	24.720000	0.000000	0.000000	104.000000	54.000000	-11.000000	73.000000
0.930000	20.470000	25.380000	0.000000	0.000000	104.000000	54.000000	-7.000000	66.000000
0.940000	20.470000	26.030000	0.000000	0.000000	104.000000	54.000000	0.000000	65.000000
0.950000	20.470000	26.650000	0.000000	0.000000	104.000000	54.000000	0.000000	62.000000
0.960000	20.600000	27.260000	0.000000	0.000000	106.000000	54.000000	13.000000	61.000000
0.970000	20.670000	27.810000	0.000000	0.000000	106.000000	54.000000	7.000000	55.000000
0.980000	20.670000	28.310000	0.000000	0.000000	106.000000	53.000000	0.000000	50.000000
0.990000	20.670000	28.740000	0.000000	0.000000	106.000000	53.000000	0.000000	43.000000
1.000000	20.670000	29.120000	0.000000	0.000000	108.000000	53.000000	0.000000	38.000000
1.010000	20.610000	29.410000	0.000000	0.000000	108.000000	52.000000	-6.000000	29.000000
1.020000	20.610000	29.410000	37.000000	1.000000	110.000000	51.000000	0.000000	0.000000
1.030000	20.430000	29.780000	210.000000	0.000000	111.000000	51.000000	-18.000000	37.000000
1.040000	20.310000	29.960000	252.000000	0.000000	112.000000	51.000000	-12.000000	18.000000
1.050000	20.170000	30.060000	339.000000	0.000000	112.000000	51.000000	-14.000000	10.000000
1.060000	20.100000	30.170000	446.000000	0.000000	113.000000	52.000000	-7.000000	11.000000
1.070000	20.020000	30.270000	519.000000	0.000000	114.000000	51.000000	-8.000000	10.000000
1.080000	19.930000	30.340000	594.000000	0.000000	114.000000	51.000000	-9.000000	7.000000
1.090000	19.870000	30.400000	645.000000	0.000000	114.000000	51.000000	-6.000000	6.000000
1.100000	19.770000	30.400000	662.000000	0.000000	115.000000	51.000000	-10.000000	0.000000
1.110000	19.620000	30.270000	708.000000	0.000000	115.000000	51.000000	-15.000000	-13.000000
1.120000	19.440000	30.040000	727.000000	0.000000	115.000000	51.000000	-18.000000	-23.000000
1.130000	19.220000	29.600000	748.000000	0.000000	115.000000	50.000000	-22.000000	-44.000000
1.140000	19.030000	29.100000	758.000000	0.000000	115.000000	50.000000	-19.000000	-50.000000
1.150000	18.910000	28.550000	755.000000	0.000000	115.000000	50.000000	-12.000000	-55.000000
1.160000	18.850000	28.120000	745.000000	0.000000	115.000000	50.000000	-6.000000	-43.000000
1.170000	18.850000	27.830000	720.000000	0.000000	115.000000	50.000000	0.000000	-29.000000
1.180000	19.050000	27.640000	700.000000	0.000000	115.000000	50.000000	20.000000	-19.000000
1.190000	19.330000	27.640000	696.000000	0.000000	115.000000	51.000000	28.000000	0.000000
1.200000	19.750000	27.810000	690.000000	0.000000	114.000000	51.000000	42.000000	17.000000
1.210000	20.170000	28.190000	691.000000	0.000000	114.000000	51.000000	42.000000	38.000000
1.220000	20.590000	28.720000	697.000000	0.000000	114.000000	51.000000	42.000000	53.000000
1.230000	20.850000	29.230000	702.000000	0.000000	114.000000	51.000000	26.000000	51.000000
1.240000	21.020000	29.700000	700.000000	0.000000	114.000000	51.000000	17.000000	47.000000
1.250000	21.020000	30.120000	737.000000	0.000000	114.000000	51.000000	0.000000	42.000000
1.260000	20.910000	30.370000	761.000000	0.000000	115.000000	51.000000	-11.000000	25.000000
1.270000	20.690000	30.510000	783.000000	0.000000	115.000000	51.000000	-22.000000	14.000000
1.280000	20.380000	30.510000	787.000000	0.000000	115.000000	51.000000	-31.000000	0.000000
1.290000	20.050000	30.510000	793.000000	0.000000	115.000000	51.000000	-33.000000	0.000000
1.300000	19.710000	30.400000	785.000000	0.000000	117.000000	51.000000	-34.000000	-11.000000
1.310000	19.480000	30.180000	785.000000	0.000000	117.000000	51.000000	-23.000000	-22.000000
1.320000	19.290000	29.890000	752.000000	0.000000	117.000000	51.000000	-19.000000	-29.000000
1.330000	19.150000	29.600000	699.000000	0.000000	117.000000	51.000000	-14.000000	-29.000000
1.340000	19.150000	29.430000	537.000000	0.000000	117.000000	51.000000	0.000000	-17.000000
1.350000	19.220000	29.340000	381.000000	0.000000	117.000000	51.000000	7.000000	-9.000000
1.360000	19.350000	29.220000	131.000000	0.000000	117.000000	51.000000	13.000000	-12.000000
1.370000	19.350000	29.220000	0.000000	1.000000	117.000000	51.000000	0.000000	0.000000
1.380000	19.990000	29.440000	0.000000	0.000000	117.000000	51.000000	64.000000	22.000000
1.390000	20.460000	29.700000	0.000000	0.000000	117.000000	51.000000	47.000000	26.000000
1.400000	20.930000	30.010000	0.000000	0.000000	117.000000	51.000000	47.000000	31.000000
1.410000	21.320000	30.350000	0.000000	0.000000	117.000000	51.000000	39.000000	34.000000
1.420000	21.320000	30.350000	127.000000	1.000000	117.000000	51.000000	0.000000	0.000000
1.430000	21.850000	31.170000	245.000000	0.000000	117.000000	52.000000	53.000000	82.000000
1.440000	21.940000	31.530000	369.000000	0.000000	117.000000	52.000000	9.000000	36.000000
1.450000	21.940000	31.810000	488.000000	0.000000	117.000000	52.000000	0.000000	28.000000
1.460000	21.860000	32.040000	622.000000	0.000000	117.000000	52.000000	-8.000000	23.000000
1.470000	21.710000	32.180000	647.000000	0.000000	117.000000	52.000000	-15.000000	14.000000
1.480000	21.520000	32.250000	717.000000	0.000000	117.000000	52.000000	-19.000000	7.000000
1.490000	21.280000	32.250000	727.000000	0.000000	117.000000	52.000000	-24.000000	0.000000
1.500000	21.030000	32.120000	739.000000	0.000000	117.000000	52.000000	-25.000000	-13.000000
1.510000	20.760000	31.920000	737.000000	0.000000	117.000000	52.000000	-27.000000	-20.000000
1.520000	20.530000	31.640000	737.000000	0.000000	117.000000	52.000000	-23.000000	-28.000000
1.530000	20.320000	31.320000	721.000000	0.000000	117.000000	52.000000	-21.000000	-32.000000
1.540000	20.270000	31.020000	721.000000	0.000000	117.000000	52.000000	-5.000000	-30.000000
1.550000	20.330000	30.780000	691.000000	0.000000	117.000000	52.000000	6.000000	-24.000000
1.560000	20.500000	30.550000	664.000000	0.000000	117.000000	51.000000	17.000000	-23.000000
1.570000	20.840000	30.460000	647.000000	0.000000	118.000000	51.000000	34.000000	-9.000000
1.580000	21.280000	30.460000	628.000000	0.000000	118.000000	51.000000	44.000000	0.000000
1.590000	21.740000	30.600000	620.000000	0.000000	119.000000	51.000000	46.000000	14.000000
1.600000	22.190000	30.720000	606.000000	0.000000	119.000000	51.000000	45.000000	12.000000
1.610000	22.530000	30.830000	609.000000	0.000000	119.000000	51.000000	34.000000	11.000000
1.620000	22.800000	30.940000	611.000000	0.000000	119.000000	51.000000	27.000000	11.000000
1.630000	22.930000	30.940000	611.000000	0.000000	119.000000	51.000000	13.000000	0.000000
1.640000	22.930000	30.940000	636.000000	0.000000	120.000000	52.000000	0.000000	0.000000
1.650000	22.930000	30.940000	641.000000	0.000000	120.000000	52.000000	0.000000	0.000000
1.660000	22.780000	30.810000	670.000000	0.000000	120.000000	52.000000	-15.000000	-13.000000
1.670000	22.510000	30.530000	681.000000	0.000000	120.000000	52.000000	-27.000000	-28.000000
1.680000	22.140000	30.150000	702.000000	0.000000	120.000000	52.000000	-37.000000	-38.000000
1.690000	21.760000	29.760000	697.000000	0.000000	120.000000	52.000000	-38.000000	-39.000000
1.700000	21.380000	29.530000	699.000000	0.000000	120.000000	52.000000	-38.000000	-23.000000
1.710000	21.180000	29.400000	691.000000	0.000000	120.000000	52.000000	-20.000000	-13.000000
1.720000	21.110000	29.400000	678.000000	0.000000	120.000000	52.000000	-7.000000	0.000000
1.730000	21.190000	29.400000	669.000000	0.000000	120.000000	52.000000	8.000000	0.000000
1.740000	21.300000	29.560000	655.000000	0.000000	120.000000	52.000000	11.000000	16.000000
1.750000	21.490000	29.900000	617.000000	0.000000	120.000000	52.000000	19.000000	34.000000
1.760000	21.790000	30.400000	592.000000	0.000000	120.000000	52.000000	30.000000	50.000000
1.770000	22.160000	31.020000	586.000000	0.000000	120.000000	52.000000	37.000000	62.000000
1.780000	22.420000	31.630000	581.000000	0.000000	120.000000	52.000000	26.000000	61.000000
1.790000	22.620000	32.260000	580.000000	0.000000	120.000000	52.000000	20.000000	63.000000
1.800000	22.770000	32.910000	602.000000	0.000000	120.000000	52.000000	15.000000	65.000000
1.810000	22.720000	33.130000	622.000000	0.000000	118.000000	53.000000	-5.000000	22.000000
1.820000	22.540000	33.130000	661.000000	0.000000	118.000000	53.000000	-18.000000	0.000000
1.830000	22.260000	33.040000	700.000000	0.000000	118.000000	53.000000	-28.000000	-9.000000
1.840000	21.900000	32.820000	699.000000	0.000000	118.000000	53.000000	-36.000000	-22.000000
1.850000	21.510000	32.390000	699.000000	0.000000	118.000000	53.000000	-39.000000	-43.000000
1.860000	21.090000	31.810000	696.000000	0.000000	118.000000	53.000000	-42.000000	-58.000000
1.870000	20.820000	31.220000	676.000000	0.000000	117.000000	52.000000	-27.000000	-59.000000
1.880000	20.820000	30.570000	624.000000	0.000000	117.000000	52.000000	0.000000	-65.000000
1.890000	20.990000	30.040000	592.000000	0.000000	119.000000	51.000000	17.000000	-53.000000
1.900000	21.430000	29.610000	566.000000	0.000000	119.000000	51.000000	44.000000	-43.000000
1.910000	22.070000	29.560000	560.000000	0.000000	119.000000	51.000000	64.000000	-5.000000
1.920000	22.840000	29.670000	563.000000	0.000000	119.000000	51.000000	77.000000	11.000000
1.930000	23.620000	29.900000	564.000000	0.000000	120.000000	52.000000	78.000000	23.000000
1.940000	24.270000	30.110000	569.000000	0.000000	120.000000	52.000000	65.000000	21.000000
1.950000	24.840000	30.300000	567.000000	0.000000	118.000000	53.000000	57.000000	19.000000
1.960000	25.120000	30.490000	569.000000	0.000000	119.000000	53.000000	28.000000	19.000000
1.970000	25.190000	30.490000	589.000000	0.000000	119.000000	53.000000	7.000000	0.000000
1.980000	25.110000	30.490000	586.000000	0.000000	119.000000	53.000000	-8.000000	0.000000
1.990000	24.760000	30.150000	608.000000	0.000000	119.000000	53.000000	-35.000000	-34.000000
2.000000	24.190000	29.670000	616.000000	0.000000	119.000000	53.000000	-57.000000	-48.000000
2.010000	23.470000	28.990000	611.000000	0.000000	121.000000	53.000000	-72.000000	-68.000000
2.020000	22.560000	27.870000	620.000000	0.000000	121.000000	53.000000	-91.000000	-112.000000
2.030000	21.300000	26.460000	627.000000	0.000000	119.000000	53.000000	-126.000000	-141.000000
2.040000	19.800000	25.070000	642.000000	0.000000	119.000000	53.000000	-150.000000	-139.000000
2.050000	18.410000	23.700000	669.000000	0.000000	119.000000	53.000000	-139.000000	-137.000000
2.060000	17.170000	22.340000	687.000000	0.000000	119.000000	53.000000	-124.000000	-136.000000
2.070000	16.040000	21.360000	694.000000	0.000000	119.000000	53.000000	-113.000000	-98.000000
2.080000	15.710000	20.920000	684.000000	0.000000	119.000000	53.000000	-33.000000	-44.000000
2.090000	15.650000	20.850000	676.000000	0.000000	120.000000	54.000000	-6.000000	-7.000000
2.100000	15.760000	20.990000	700.000000	0.000000	123.000000	55.000000	11.000000	14.000000
2.110000	16.270000	21.680000	722.000000	0.000000	123.000000	55.000000	51.000000	69.000000
2.120000	17.370000	22.750000	763.000000	0.000000	123.000000	55.000000	110.000000	107.000000
2.130000	18.860000	24.610000	791.000000	0.000000	124.000000	54.000000	149.000000	186.000000
2.140000	21.180000	26.870000	830.000000	0.000000	124.000000	54.000000	232.000000	226.000000
2.150000	23.470000	29.390000	861.000000	0.000000	124.000000	54.000000	229.000000	252.000000
2.160000	25.730000	31.410000	866.000000	0.000000	124.000000	54.000000	226.000000	202.000000
2.170000	27.950000	33.420000	853.000000	0.000000	122.000000	54.000000	222.000000	201.000000
2.180000	29.810000	35.050000	854.000000	0.000000	122.000000	54.000000	186.000000	163.000000
2.190000	31.420000	36.440000	848.000000	0.000000	121.000000	53.000000	161.000000	139.000000
