t	x	y	pressure	penup	azimuth	inclination	v_x	v_y
0.000000	17.190000	50.250000	120.000000	1.000000	105.000000	53.000000	0.000000	0.000000
0.010000	17.050000	50.730000	191.000000	0.000000	105.000000	53.000000	-14.000000	48.000000
0.020000	16.990000	51.180000	292.000000	0.000000	104.000000	52.000000	-6.000000	45.000000
0.030000	16.990000	51.550000	402.000000	0.000000	106.000000	52.000000	0.000000	37.000000
0.040000	16.990000	51.890000	497.000000	0.000000	106.000000	52.000000	0.000000	34.000000
0.050000	16.930000	52.220000	584.000000	0.000000	105.000000	51.000000	-6.000000	33.000000
0.060000	16.930000	52.310000	642.000000	0.000000	106.000000	51.000000	0.000000	9.000000
0.070000	16.880000	52.310000	664.000000	0.000000	106.000000	51.000000	-5.000000	0.000000
0.080000	16.880000	52.190000	696.000000	0.000000	106.000000	50.000000	0.000000	-12.000000
0.090000	16.880000	51.870000	702.000000	0.000000	106.000000	50.000000	0.000000	-32.000000
0.100000	16.880000	51.330000	714.000000	0.000000	106.000000	50.000000	0.000000	-54.000000
0.110000	16.960000	50.650000	725.000000	0.000000	106.000000	50.000000	8.000000	-68.000000
0.120000	17.060000	49.780000	733.000000	0.000000	106.000000	51.000000	10.000000	-87.000000
0.130000	17.260000	48.850000	728.000000	0.000000	105.000000	51.000000	20.000000	-93.000000
0.140000	17.460000	48.050000	739.000000	0.000000	105.000000	51.000000	20.000000	-80.000000
0.150000	17.640000	47.350000	736.000000	0.000000	104.000000	51.000000	18.000000	-70.000000
0.160000	17.860000	46.940000	733.000000	0.000000	103.000000	51.000000	22.000000	-41.000000
0.170000	18.080000	46.800000	727.000000	0.000000	101.000000	51.000000	22.000000	-14.000000
0.180000	18.270000	46.800000	737.000000	0.000000	100.000000	52.000000	19.000000	0.000000
0.190000	18.450000	47.070000	737.000000	0.000000	100.000000	52.000000	18.000000	27.000000
0.200000	18.600000	47.610000	739.000000	0.000000	99.000000	52.000000	15.000000	54.000000
0.210000	18.690000	48.360000	739.000000	0.000000	99.000000	52.000000	9.000000	75.000000
0.220000	18.750000	49.140000	739.000000	0.000000	99.000000	52.000000	6.000000	78.000000
0.230000	18.750000	49.930000	736.000000	0.000000	100.000000	52.000000	0.000000	79.000000
0.240000	18.750000	50.690000	739.000000	0.000000	100.000000	52.000000	0.000000	76.000000
0.250000	18.690000	51.160000	743.000000	0.000000	101.000000	51.000000	-6.000000	47.000000
0.260000	18.690000	51.460000	749.000000	0.000000	103.000000	51.000000	0.000000	30.000000
0.270000	18.600000	51.660000	753.000000	0.000000	104.000000	51.000000	-9.000000	20.000000
0.280000	18.540000	51.660000	759.000000	0.000000	105.000000	51.000000	-6.000000	0.000000
0.290000	18.540000	51.660000	759.000000	0.000000	105.000000	51.000000	0.000000	0.000000
0.300000	18.540000	51.500000	767.000000	0.000000	105.000000	51.000000	0.000000	-16.000000
0.310000	18.590000	51.100000	760.000000	0.000000	106.000000	51.000000	5.000000	-40.000000
0.320000	18.690000	50.520000	751.000000	0.000000	106.000000	51.000000	10.000000	-58.000000
0.330000	18.850000	49.750000	760.000000	0.000000	106.000000	51.000000	16.000000	-77.000000
0.340000	19.060000	48.870000	758.000000	0.000000	105.000000	51.000000	21.000000	-88.000000
0.350000	19.320000	47.930000	763.000000	0.000000	106.000000	52.000000	26.000000	-94.000000
0.360000	19.610000	47.140000	750.000000	0.000000	104.000000	52.000000	29.000000	-79.000000
0.370000	19.920000	46.590000	751.000000	0.000000	103.000000	52.000000	31.000000	-55.000000
0.380000	20.110000	46.210000	753.000000	0.000000	102.000000	52.000000	19.000000	-38.000000
0.390000	20.230000	46.030000	751.000000	0.000000	101.000000	53.000000	12.000000	-18.000000
0.400000	20.160000	45.880000	774.000000	0.000000	99.000000	53.000000	-7.000000	-15.000000
0.410000	19.990000	45.760000	782.000000	0.000000	98.000000	53.000000	-17.000000	-12.000000
0.420000	19.750000	45.610000	790.000000	0.000000	98.000000	54.000000	-24.000000	-15.000000
0.430000	19.390000	45.440000	791.000000	0.000000	97.000000	54.000000	-36.000000	-17.000000
0.440000	19.050000	45.190000	796.000000	0.000000	97.000000	54.000000	-34.000000	-25.000000
0.450000	18.760000	44.860000	788.000000	0.000000	97.000000	54.000000	-29.000000	-33.000000
0.460000	18.530000	44.580000	790.000000	0.000000	95.000000	54.000000	-23.000000	-28.000000
0.470000	18.360000	44.350000	788.000000	0.000000	95.000000	54.000000	-17.000000	-23.000000
0.480000	18.360000	44.350000	788.000000	0.000000	95.000000	54.000000	0.000000	0.000000
0.490000	18.360000	44.540000	788.000000	0.000000	95.000000	54.000000	0.000000	19.000000
0.500000	18.360000	44.800000	793.000000	0.000000	95.000000	54.000000	0.000000	26.000000
0.510000	18.360000	45.560000	796.000000	0.000000	95.000000	54.000000	0.000000	76.000000
0.520000	18.270000	46.700000	791.000000	0.000000	97.000000	54.000000	-9.000000	114.000000
0.530000	18.140000	48.090000	782.000000	0.000000	97.000000	53.000000	-13.000000	139.000000
0.540000	17.990000	49.590000	771.000000	0.000000	98.000000	53.000000	-15.000000	150.000000
0.550000	17.820000	50.990000	771.000000	0.000000	99.000000	53.000000	-17.000000	140.000000
0.560000	17.740000	52.060000	770.000000	0.000000	102.000000	52.000000	-8.000000	107.000000
0.570000	17.680000	52.940000	777.000000	0.000000	103.000000	51.000000	-6.000000	88.000000
0.580000	17.680000	53.660000	780.000000	0.000000	104.000000	51.000000	0.000000	72.000000
0.590000	17.680000	54.040000	794.000000	0.000000	105.000000	51.000000	0.000000	38.000000
0.600000	17.680000	54.190000	793.000000	0.000000	106.000000	51.000000	0.000000	15.000000
0.610000	17.680000	54.130000	797.000000	0.000000	106.000000	51.000000	0.000000	-6.000000
0.620000	17.680000	53.650000	794.000000	0.000000	108.000000	51.000000	0.000000	-48.000000
0.630000	17.740000	52.880000	797.000000	0.000000	108.000000	51.000000	6.000000	-77.000000
0.640000	17.860000	51.700000	783.000000	0.000000	108.000000	51.000000	12.000000	-118.000000
0.650000	18.160000	49.830000	787.000000	0.000000	108.000000	51.000000	30.000000	-187.000000
0.660000	18.570000	47.500000	805.000000	0.000000	106.000000	51.000000	41.000000	-233.000000
0.670000	19.100000	44.850000	814.000000	0.000000	106.000000	51.000000	53.000000	-265.000000
0.680000	19.570000	42.570000	823.000000	0.000000	105.000000	51.000000	47.000000	-228.000000
0.690000	20.010000	40.540000	837.000000	0.000000	104.000000	52.000000	44.000000	-203.000000
0.700000	20.260000	39.380000	845.000000	0.000000	103.000000	52.000000	25.000000	-116.000000
0.710000	20.500000	38.530000	843.000000	0.000000	102.000000	52.000000	24.000000	-85.000000
0.720000	20.730000	37.900000	832.000000	0.000000	100.000000	54.000000	23.000000	-63.000000
0.730000	20.820000	37.740000	770.000000	0.000000	98.000000	54.000000	9.000000	-16.000000
0.740000	20.820000	37.860000	682.000000	0.000000	97.000000	54.000000	0.000000	12.000000
0.750000	20.820000	38.160000	510.000000	0.000000	95.000000	54.000000	0.000000	30.000000
0.760000	20.820000	38.940000	170.000000	0.000000	95.000000	54.000000	0.000000	78.000000
0.770000	20.820000	38.940000	0.000000	1.000000	96.000000	55.000000	0.000000	0.000000
0.780000	20.710000	40.660000	0.000000	0.000000	96.000000	55.000000	-11.000000	172.000000
0.790000	20.710000	41.400000	0.000000	0.000000	97.000000	55.000000	0.000000	74.000000
0.800000	20.710000	42.150000	0.000000	0.000000	97.000000	55.000000	0.000000	75.000000
0.810000	20.820000	42.920000	0.000000	0.000000	99.000000	55.000000	11.000000	77.000000
0.820000	20.970000	43.640000	0.000000	0.000000	98.000000	54.000000	15.000000	72.000000
0.830000	21.120000	44.340000	0.000000	0.000000	98.000000	54.000000	15.000000	70.000000
0.840000	21.280000	44.970000	0.000000	0.000000	100.000000	54.000000	16.000000	63.000000
0.850000	21.450000	45.540000	0.000000	0.000000	100.000000	54.000000	17.000000	57.000000
0.860000	21.610000	46.010000	0.000000	0.000000	100.000000	54.000000	16.000000	47.000000
0.870000	21.610000	46.010000	200.000000	1.000000	100.000000	54.000000	0.000000	0.000000
0.880000	21.700000	46.660000	309.000000	0.000000	100.000000	54.000000	9.000000	65.000000
0.890000	21.530000	46.860000	342.000000	0.000000	100.000000	54.000000	-17.000000	20.000000
0.900000	21.420000	47.000000	466.000000	0.000000	100.000000	55.000000	-11.000000	14.000000
0.910000	21.320000	47.120000	563.000000	0.000000	100.000000	55.000000	-10.000000	12.000000
0.920000	21.250000	47.210000	610.000000	0.000000	100.000000	55.000000	-7.000000	9.000000
0.930000	21.250000	47.260000	646.000000	0.000000	101.000000	54.000000	0.000000	5.000000
0.940000	21.190000	47.260000	691.000000	0.000000	101.000000	54.000000	-6.000000	0.000000
0.950000	21.120000	47.260000	721.000000	0.000000	101.000000	54.000000	-7.000000	0.000000
0.960000	21.010000	47.190000	748.000000	0.000000	103.000000	54.000000	-11.000000	-7.000000
0.970000	20.860000	46.900000	757.000000	0.000000	103.000000	54.000000	-15.000000	-29.000000
0.980000	20.630000	46.470000	763.000000	0.000000	103.000000	54.000000	-23.000000	-43.000000
0.990000	20.400000	46.000000	771.000000	0.000000	103.000000	54.000000	-23.000000	-47.000000
1.000000	20.160000	45.440000	776.000000	0.000000	101.000000	54.000000	-24.000000	-56.000000
1.010000	19.940000	44.830000	777.000000	0.000000	101.000000	54.000000	-22.000000	-61.000000
1.020000	19.890000	44.390000	773.000000	0.000000	101.000000	54.000000	-5.000000	-44.000000
1.030000	19.950000	44.080000	754.000000	0.000000	101.000000	54.000000	6.000000	-31.000000
1.040000	20.150000	43.870000	724.000000	0.000000	100.000000	55.000000	20.000000	-21.000000
1.050000	20.520000	43.870000	716.000000	0.000000	100.000000	55.000000	37.000000	0.000000
1.060000	20.990000	44.090000	705.000000	0.000000	100.000000	55.000000	47.000000	22.000000
1.070000	21.480000	44.490000	700.000000	0.000000	100.000000	55.000000	49.000000	40.000000
1.080000	21.850000	45.060000	703.000000	0.000000	100.000000	55.000000	37.000000	57.000000
1.090000	22.130000	45.630000	705.000000	0.000000	100.000000	55.000000	28.000000	57.000000
1.100000	22.300000	46.190000	714.000000	0.000000	100.000000	55.000000	17.000000	56.000000
1.110000	22.300000	46.510000	725.000000	0.000000	100.000000	56.000000	0.000000	32.000000
1.120000	22.180000	46.780000	779.000000	0.000000	100.000000	56.000000	-12.000000	27.000000
1.130000	22.010000	46.960000	784.000000	0.000000	100.000000	56.000000	-17.000000	18.000000
1.140000	21.790000	47.060000	824.000000	0.000000	102.000000	55.000000	-22.000000	10.000000
1.150000	21.540000	47.110000	826.000000	0.000000	102.000000	55.000000	-25.000000	5.000000
1.160000	21.210000	46.960000	814.000000	0.000000	103.000000	55.000000	-33.000000	-15.000000
1.170000	20.860000	46.700000	802.000000	0.000000	103.000000	55.000000	-35.000000	-26.000000
1.180000	20.490000	46.300000	760.000000	0.000000	103.000000	55.000000	-37.000000	-40.000000
1.190000	20.200000	45.890000	727.000000	0.000000	105.000000	55.000000	-29.000000	-41.000000
1.200000	20.090000	45.600000	620.000000	0.000000	103.000000	55.000000	-11.000000	-29.000000
1.210000	20.090000	45.390000	376.000000	0.000000	103.000000	55.000000	0.000000	-21.000000
1.220000	20.200000	45.310000	137.000000	0.000000	103.000000	54.000000	11.000000	-8.000000
1.230000	20.200000	45.310000	0.000000	1.000000	101.000000	54.000000	0.000000	0.000000
1.240000	20.860000	45.510000	0.000000	0.000000	101.000000	54.000000	66.000000	20.000000
1.250000	21.330000	45.880000	0.000000	0.000000	101.000000	54.000000	47.000000	37.000000
1.260000	21.790000	46.310000	0.000000	0.000000	102.000000	55.000000	46.000000	43.000000
1.270000	22.250000	46.790000	0.000000	0.000000	102.000000	55.000000	46.000000	48.000000
1.280000	22.770000	47.300000	0.000000	0.000000	102.000000	55.000000	52.000000	51.000000
1.290000	22.770000	47.300000	182.000000	1.000000	103.000000	55.000000	0.000000	0.000000
1.300000	23.160000	48.080000	289.000000	0.000000	103.000000	55.000000	39.000000	78.000000
1.310000	23.210000	48.230000	442.000000	0.000000	105.000000	55.000000	5.000000	15.000000
1.320000	23.160000	48.450000	580.000000	0.000000	106.000000	55.000000	-5.000000	22.000000
1.330000	23.030000	48.530000	699.000000	0.000000	107.000000	55.000000	-13.000000	8.000000
1.340000	22.850000	48.530000	721.000000	0.000000	107.000000	55.000000	-18.000000	0.000000
1.350000	22.600000	48.460000	756.000000	0.000000	107.000000	55.000000	-25.000000	-7.000000
1.360000	22.300000	48.250000	760.000000	0.000000	109.000000	55.000000	-30.000000	-21.000000
1.370000	22.010000	47.930000	774.000000	0.000000	109.000000	55.000000	-29.000000	-32.000000
1.380000	21.780000	47.560000	762.000000	0.000000	109.000000	55.000000	-23.000000	-37.000000
1.390000	21.650000	47.290000	748.000000	0.000000	109.000000	55.000000	-13.000000	-27.000000
1.400000	21.650000	47.100000	714.000000	0.000000	110.000000	54.000000	0.000000	-19.000000
1.410000	21.790000	47.030000	681.000000	0.000000	109.000000	55.000000	14.000000	-7.000000
1.420000	22.110000	47.030000	671.000000	0.000000	109.000000	55.000000	32.000000	0.000000
1.430000	22.470000	47.080000	664.000000	0.000000	110.000000	55.000000	36.000000	5.000000
1.440000	23.000000	47.320000	661.000000	0.000000	110.000000	55.000000	53.000000	24.000000
1.450000	23.640000	47.560000	661.000000	0.000000	110.000000	55.000000	64.000000	24.000000
1.460000	24.120000	47.800000	662.000000	0.000000	110.000000	55.000000	48.000000	24.000000
1.470000	24.420000	47.930000	661.000000	0.000000	110.000000	55.000000	30.000000	13.000000
1.480000	24.600000	47.930000	670.000000	0.000000	110.000000	55.000000	18.000000	0.000000
1.490000	24.600000	47.870000	699.000000	0.000000	110.000000	55.000000	0.000000	-6.000000
1.500000	24.450000	47.800000	691.000000	0.000000	110.000000	55.000000	-15.000000	-7.000000
1.510000	24.230000	47.710000	713.000000	0.000000	110.000000	55.000000	-22.000000	-9.000000
1.520000	23.860000	47.560000	725.000000	0.000000	111.000000	55.000000	-37.000000	-15.000000
1.530000	23.460000	47.360000	720.000000	0.000000	111.000000	55.000000	-40.000000	-20.000000
1.540000	23.050000	47.250000	722.000000	0.000000	111.000000	55.000000	-41.000000	-11.000000
1.550000	22.750000	47.250000	722.000000	0.000000	111.000000	55.000000	-30.000000	0.000000
1.560000	22.610000	47.250000	690.000000	0.000000	111.000000	55.000000	-14.000000	0.000000
1.570000	22.610000	47.410000	656.000000	0.000000	112.000000	55.000000	0.000000	16.000000
1.580000	22.750000	47.640000	643.000000	0.000000	112.000000	55.000000	14.000000	23.000000
1.590000	23.080000	48.220000	616.000000	0.000000	112.000000	55.000000	33.000000	58.000000
1.600000	23.510000	48.810000	588.000000	0.000000	112.000000	55.000000	43.000000	59.000000
1.610000	24.000000	49.400000	569.000000	0.000000	112.000000	55.000000	49.000000	59.000000
1.620000	24.490000	49.970000	569.000000	0.000000	114.000000	55.000000	49.000000	57.000000
1.630000	24.980000	50.390000	569.000000	0.000000	114.000000	55.000000	49.000000	42.000000
1.640000	25.350000	50.710000	575.000000	0.000000	116.000000	55.000000	37.000000	32.000000
1.650000	25.640000	50.820000	583.000000	0.000000	117.000000	55.000000	29.000000	11.000000
1.660000	25.790000	50.760000	605.000000	0.000000	117.000000	55.000000	15.000000	-6.000000
1.670000	25.840000	50.600000	617.000000	0.000000	117.000000	55.000000	5.000000	-16.000000
1.680000	25.840000	50.260000	636.000000	0.000000	119.000000	54.000000	0.000000	-34.000000
1.690000	25.740000	49.810000	647.000000	0.000000	119.000000	54.000000	-10.000000	-45.000000
1.700000	25.660000	49.280000	643.000000	0.000000	119.000000	54.000000	-8.000000	-53.000000
1.710000	25.570000	48.740000	647.000000	0.000000	119.000000	54.000000	-9.000000	-54.000000
1.720000	25.510000	48.210000	647.000000	0.000000	117.000000	55.000000	-6.000000	-53.000000
1.730000	25.510000	47.830000	646.000000	0.000000	117.000000	55.000000	0.000000	-38.000000
1.740000	25.510000	47.540000	646.000000	0.000000	117.000000	55.000000	0.000000	-29.000000
1.750000	25.510000	47.320000	644.000000	0.000000	116.000000	55.000000	0.000000	-22.000000
1.760000	25.560000	47.120000	649.000000	0.000000	116.000000	55.000000	5.000000	-20.000000
1.770000	25.420000	46.930000	653.000000	0.000000	115.000000	55.000000	-14.000000	-19.000000
1.780000	25.170000	46.490000	670.000000	0.000000	115.000000	55.000000	-25.000000	-44.000000
1.790000	24.660000	45.800000	697.000000	0.000000	113.000000	56.000000	-51.000000	-69.000000
1.800000	23.870000	44.940000	721.000000	0.000000	113.000000	56.000000	-79.000000	-86.000000
1.810000	22.900000	43.760000	763.000000	0.000000	113.000000	56.000000	-97.000000	-118.000000
1.820000	21.670000	42.480000	806.000000	0.000000	113.000000	56.000000	-123.000000	-128.000000
1.830000	20.360000	41.140000	854.000000	0.000000	113.000000	56.000000	-131.000000	-134.000000
1.840000	18.990000	40.030000	878.000000	0.000000	113.000000	56.000000	-137.000000	-111.000000
1.850000	17.940000	39.190000	906.000000	0.000000	115.000000	55.000000	-105.000000	-84.000000
1.860000	17.240000	38.530000	903.000000	0.000000	114.000000	55.000000	-70.000000	-66.000000
1.870000	16.770000	38.290000	905.000000	0.000000	115.000000	54.000000	-47.000000	-24.000000
1.880000	16.630000	38.290000	894.000000	0.000000	114.000000	53.000000	-14.000000	0.000000
1.890000	16.820000	38.450000	903.000000	0.000000	114.000000	53.000000	19.000000	16.000000
1.900000	17.220000	38.890000	900.000000	0.000000	116.000000	53.000000	40.000000	44.000000
1.910000	18.280000	39.970000	915.000000	0.000000	115.000000	52.000000	106.000000	108.000000
1.920000	19.850000	41.480000	933.000000	0.000000	116.000000	53.000000	157.000000	151.000000
1.930000	21.760000	43.370000	948.000000	0.000000	116.000000	53.000000	191.000000	189.000000
1.940000	23.950000	45.280000	944.000000	0.000000	116.000000	53.000000	219.000000	191.000000
1.950000	26.160000	47.210000	956.000000	0.000000	117.000000	54.000000	221.000000	193.000000
1.960000	28.170000	49.060000	965.000000	0.000000	117.000000	54.000000	201.000000	185.000000
1.970000	30.050000	50.540000	971.000000	0.000000	119.000000	54.000000	188.000000	148.000000
1.980000	31.830000	51.770000	976.000000	0.000000	120.000000	55.000000	178.000000	123.000000
1.990000	33.040000	52.810000	967.000000	0.000000	120.000000	55.000000	121.000000	104.000000
2.000000	33.860000	53.430000	944.000000	0.000000	122.000000	56.000000	82.000000	62.000000
2.010000	34.190000	53.780000	930.000000	0.000000	122.000000	56.000000	33.000000	35.000000
2.020000	34.240000	53.780000	887.000000	0.000000	124.000000	55.000000	5.000000	0.000000
2.030000	34.090000	53.780000	785.000000	0.000000	124.000000	55.000000	-15.000000	0.000000
2.040000	33.870000	53.470000	518.000000	0.000000	126.000000	56.000000	-22.000000	-31.000000
2.050000	33.870000	53.470000	0.000000	1.000000	126.000000	56.000000	0.000000	0.000000
2.060000	32.760000	52.460000	0.000000	0.000000	126.000000	56.000000	-111.000000	-101.000000
2.070000	32.090000	51.900000	0.000000	0.000000	126.000000	56.000000	-67.000000	-56.000000
2.080000	31.280000	51.360000	0.000000	0.000000	126.000000	56.000000	-81.000000	-54.000000
2.090000	30.370000	50.920000	0.000000	0.000000	126.000000	56.000000	-91.000000	-44.000000
2.100000	29.660000	50.450000	0.000000	0.000000	126.000000	56.000000	-71.000000	-47.000000
2.110000	28.650000	49.910000	0.000000	0.000000	125.000000	56.000000	-101.000000	-54.000000
2.120000	27.820000	49.360000	0.000000	0.000000	124.000000	55.000000	-83.000000	-55.000000
2.130000	27.200000	48.810000	0.000000	0.000000	122.000000	56.000000	-62.000000	-55.000000
2.140000	26.530000	48.340000	0.000000	0.000000	120.000000	55.000000	-67.000000	-47.000000
2.150000	26.080000	48.000000	0.000000	0.000000	118.000000	56.000000	-45.000000	-34.000000
2.160000	25.780000	47.750000	0.000000	0.000000	118.000000	56.000000	-30.000000	-25.000000
2.170000	25.690000	47.750000	0.000000	0.000000	117.000000	56.000000	-9.000000	0.000000
2.180000	25.690000	47.810000	0.000000	0.000000	117.000000	56.000000	0.000000	6.000000
2.190000	25.810000	47.990000	0.000000	0.000000	117.000000	56.000000	12.000000	18.000000
2.200000	25.910000	48.460000	0.000000	0.000000	117.000000	56.000000	10.000000	47.000000
