t	x	y	pressure	penup	azimuth	inclination	v_x	v_y
0.000000	19.230000	15.750000	136.000000	1.000000	151.000000	49.000000	0.000000	0.000000
0.010000	19.510000	15.930000	296.000000	0.000000	151.000000	49.000000	28.000000	18.000000
0.020000	19.590000	16.080000	481.000000	0.000000	151.000000	49.000000	8.000000	15.000000
0.030000	19.750000	16.230000	653.000000	0.000000	150.000000	50.000000	16.000000	15.000000
0.040000	19.930000	16.380000	776.000000	0.000000	150.000000	50.000000	18.000000	15.000000
0.050000	20.150000	16.530000	876.000000	0.000000	150.000000	50.000000	22.000000	15.000000
0.060000	20.240000	16.530000	970.000000	0.000000	150.000000	50.000000	9.000000	0.000000
0.070000	20.240000	16.530000	1023.000000	0.000000	149.000000	51.000000	0.000000	0.000000
0.080000	20.240000	16.480000	1023.000000	0.000000	149.000000	51.000000	0.000000	-5.000000
0.090000	20.190000	16.390000	1023.000000	0.000000	149.000000	51.000000	-5.000000	-9.000000
0.100000	19.950000	15.640000	1023.000000	0.000000	148.000000	51.000000	-24.000000	-75.000000
0.110000	19.550000	14.450000	1023.000000	0.000000	148.000000	51.000000	-40.000000	-119.000000
0.120000	18.820000	12.570000	1023.000000	0.000000	147.000000	52.000000	-73.000000	-188.000000
0.130000	18.150000	10.910000	1023.000000	0.000000	146.000000	53.000000	-67.000000	-166.000000
0.140000	17.580000	9.390000	1023.000000	0.000000	146.000000	53.000000	-57.000000	-152.000000
0.150000	17.070000	8.210000	1023.000000	0.000000	145.000000	54.000000	-51.000000	-118.000000
0.160000	16.800000	7.400000	1023.000000	0.000000	143.000000	53.000000	-27.000000	-81.000000
0.170000	16.670000	6.840000	1023.000000	0.000000	143.000000	53.000000	-13.000000	-56.000000
0.180000	16.610000	6.730000	1023.000000	0.000000	143.000000	53.000000	-6.000000	-11.000000
0.190000	16.550000	6.810000	915.000000	0.000000	143.000000	53.000000	-6.000000	8.000000
0.200000	16.550000	7.010000	670.000000	0.000000	143.000000	53.000000	0.000000	20.000000
0.210000	16.550000	7.010000	0.000000	1.000000	146.000000	53.000000	0.000000	0.000000
0.220000	16.740000	8.220000	0.000000	0.000000	146.000000	53.000000	19.000000	121.000000
0.230000	17.180000	9.260000	0.000000	0.000000	148.000000	53.000000	44.000000	104.000000
0.240000	17.680000	10.360000	0.000000	0.000000	148.000000	53.000000	50.000000	110.000000
0.250000	18.280000	11.490000	0.000000	0.000000	148.000000	53.000000	60.000000	113.000000
0.260000	18.940000	12.640000	0.000000	0.000000	147.000000	52.000000	66.000000	115.000000
0.270000	19.450000	13.520000	0.000000	0.000000	147.000000	52.000000	51.000000	88.000000
0.280000	19.790000	14.150000	0.000000	0.000000	147.000000	51.000000	34.000000	63.000000
0.290000	20.020000	14.610000	0.000000	0.000000	148.000000	50.000000	23.000000	46.000000
0.300000	20.080000	14.980000	0.000000	0.000000	146.000000	50.000000	6.000000	37.000000
0.310000	20.080000	15.290000	0.000000	0.000000	147.000000	49.000000	0.000000	31.000000
0.320000	20.020000	15.420000	0.000000	0.000000	147.000000	49.000000	-6.000000	13.000000
0.330000	19.960000	15.420000	0.000000	0.000000	147.000000	49.000000	-6.000000	0.000000
0.340000	19.960000	15.520000	0.000000	0.000000	147.000000	49.000000	0.000000	10.000000
0.350000	19.960000	15.520000	0.000000	0.000000	147.000000	49.000000	0.000000	0.000000
0.360000	20.040000	15.520000	0.000000	0.000000	148.000000	50.000000	8.000000	0.000000
0.370000	20.040000	15.520000	0.000000	0.000000	148.000000	50.000000	0.000000	0.000000
0.380000	19.990000	15.520000	0.000000	0.000000	148.000000	50.000000	-5.000000	0.000000
0.390000	19.930000	15.470000	0.000000	0.000000	148.000000	50.000000	-6.000000	-5.000000
0.400000	19.870000	15.470000	0.000000	0.000000	150.000000	50.000000	-6.000000	0.000000
0.410000	19.870000	15.410000	0.000000	0.000000	150.000000	50.000000	0.000000	-6.000000
0.420000	19.810000	15.410000	0.000000	0.000000	149.000000	51.000000	-6.000000	0.000000
0.430000	19.810000	15.410000	0.000000	0.000000	149.000000	51.000000	0.000000	0.000000
0.440000	19.810000	15.410000	0.000000	0.000000	149.000000	51.000000	0.000000	0.000000
0.450000	19.890000	15.530000	0.000000	0.000000	149.000000	51.000000	8.000000	12.000000
0.460000	20.000000	15.640000	0.000000	0.000000	149.000000	51.000000	11.000000	11.000000
0.470000	20.000000	15.640000	120.000000	1.000000	149.000000	51.000000	0.000000	0.000000
0.480000	20.130000	15.950000	304.000000	0.000000	149.000000	51.000000	13.000000	31.000000
0.490000	20.130000	16.110000	485.000000	0.000000	149.000000	51.000000	0.000000	16.000000
0.500000	20.130000	16.270000	620.000000	0.000000	149.000000	51.000000	0.000000	16.000000
0.510000	20.130000	16.400000	714.000000	0.000000	149.000000	51.000000	0.000000	13.000000
0.520000	20.130000	16.400000	773.000000	0.000000	149.000000	51.000000	0.000000	0.000000
0.530000	20.130000	16.400000	814.000000	0.000000	149.000000	51.000000	0.000000	0.000000
0.540000	20.130000	16.400000	821.000000	0.000000	148.000000	51.000000	0.000000	0.000000
0.550000	20.130000	16.140000	831.000000	0.000000	147.000000	51.000000	0.000000	-26.000000
0.560000	20.130000	15.900000	843.000000	0.000000	147.000000	51.000000	0.000000	-24.000000
0.570000	19.940000	15.340000	842.000000	0.000000	146.000000	52.000000	-19.000000	-56.000000
0.580000	19.700000	14.590000	848.000000	0.000000	146.000000	52.000000	-24.000000	-75.000000
0.590000	19.700000	14.100000	849.000000	0.000000	145.000000	53.000000	0.000000	-49.000000
0.600000	19.700000	13.800000	843.000000	0.000000	145.000000	53.000000	0.000000	-30.000000
0.610000	19.700000	13.640000	843.000000	0.000000	143.000000	53.000000	0.000000	-16.000000
0.620000	19.700000	13.570000	842.000000	0.000000	142.000000	54.000000	0.000000	-7.000000
0.630000	19.700000	13.570000	834.000000	0.000000	143.000000	55.000000	0.000000	0.000000
0.640000	19.650000	13.570000	840.000000	0.000000	143.000000	55.000000	-5.000000	0.000000
0.650000	19.650000	13.690000	845.000000	0.000000	143.000000	55.000000	0.000000	12.000000
0.660000	19.650000	13.980000	849.000000	0.000000	143.000000	55.000000	0.000000	29.000000
0.670000	19.550000	14.400000	855.000000	0.000000	143.000000	55.000000	-10.000000	42.000000
0.680000	19.400000	14.710000	852.000000	0.000000	143.000000	55.000000	-15.000000	31.000000
0.690000	19.340000	14.710000	843.000000	0.000000	143.000000	55.000000	-6.000000	0.000000
0.700000	19.240000	14.610000	833.000000	0.000000	141.000000	55.000000	-10.000000	-10.000000
0.710000	19.120000	14.490000	822.000000	0.000000	141.000000	55.000000	-12.000000	-12.000000
0.720000	18.990000	14.160000	827.000000	0.000000	142.000000	54.000000	-13.000000	-33.000000
0.730000	18.990000	13.690000	824.000000	0.000000	142.000000	54.000000	0.000000	-47.000000
0.740000	18.990000	13.480000	821.000000	0.000000	142.000000	54.000000	0.000000	-21.000000
0.750000	19.080000	13.300000	824.000000	0.000000	142.000000	54.000000	9.000000	-18.000000
0.760000	19.260000	13.150000	821.000000	0.000000	141.000000	55.000000	18.000000	-15.000000
0.770000	19.490000	13.090000	825.000000	0.000000	141.000000	55.000000	23.000000	-6.000000
0.780000	19.730000	13.090000	840.000000	0.000000	141.000000	55.000000	24.000000	0.000000
0.790000	19.980000	13.170000	843.000000	0.000000	140.000000	55.000000	25.000000	8.000000
0.800000	20.300000	13.330000	852.000000	0.000000	140.000000	55.000000	32.000000	16.000000
0.810000	20.610000	13.600000	857.000000	0.000000	140.000000	55.000000	31.000000	27.000000
0.820000	20.930000	13.950000	860.000000	0.000000	141.000000	56.000000	32.000000	35.000000
0.830000	21.090000	14.310000	869.000000	0.000000	141.000000	56.000000	16.000000	36.000000
0.840000	21.140000	14.440000	853.000000	0.000000	141.000000	56.000000	5.000000	13.000000
0.850000	21.140000	14.440000	853.000000	0.000000	141.000000	56.000000	0.000000	0.000000
0.860000	21.140000	14.440000	861.000000	0.000000	144.000000	56.000000	0.000000	0.000000
0.870000	21.090000	14.380000	860.000000	0.000000	144.000000	56.000000	-5.000000	-6.000000
0.880000	21.090000	14.180000	840.000000	0.000000	144.000000	56.000000	0.000000	-20.000000
0.890000	20.990000	13.740000	833.000000	0.000000	144.000000	56.000000	-10.000000	-44.000000
0.900000	20.880000	13.450000	831.000000	0.000000	144.000000	56.000000	-11.000000	-29.000000
0.910000	20.880000	13.270000	837.000000	0.000000	143.000000	56.000000	0.000000	-18.000000
0.920000	20.940000	13.160000	849.000000	0.000000	143.000000	56.000000	6.000000	-11.000000
0.930000	21.050000	13.040000	852.000000	0.000000	143.000000	56.000000	11.000000	-12.000000
0.940000	21.160000	13.040000	867.000000	0.000000	142.000000	57.000000	11.000000	0.000000
0.950000	21.370000	13.120000	869.000000	0.000000	142.000000	57.000000	21.000000	8.000000
0.960000	21.660000	13.240000	857.000000	0.000000	142.000000	57.000000	29.000000	12.000000
0.970000	21.950000	13.490000	858.000000	0.000000	142.000000	57.000000	29.000000	25.000000
0.980000	22.170000	13.840000	866.000000	0.000000	143.000000	57.000000	22.000000	35.000000
0.990000	22.340000	14.150000	878.000000	0.000000	143.000000	57.000000	17.000000	31.000000
1.000000	22.450000	14.300000	890.000000	0.000000	143.000000	57.000000	11.000000	15.000000
1.010000	22.450000	14.300000	888.000000	0.000000	143.000000	57.000000	0.000000	0.000000
1.020000	22.400000	14.220000	876.000000	0.000000	143.000000	57.000000	-5.000000	-8.000000
1.030000	22.400000	14.050000	861.000000	0.000000	143.000000	57.000000	0.000000	-17.000000
1.040000	22.250000	13.860000	861.000000	0.000000	143.000000	57.000000	-15.000000	-19.000000
1.050000	22.040000	13.500000	857.000000	0.000000	144.000000	57.000000	-21.000000	-36.000000
1.060000	22.110000	13.270000	855.000000	0.000000	143.000000	57.000000	7.000000	-23.000000
1.070000	22.180000	13.180000	861.000000	0.000000	143.000000	57.000000	7.000000	-9.000000
1.080000	22.250000	13.180000	869.000000	0.000000	143.000000	57.000000	7.000000	0.000000
1.090000	22.480000	13.180000	884.000000	0.000000	142.000000	58.000000	23.000000	0.000000
1.100000	22.720000	13.290000	894.000000	0.000000	142.000000	58.000000	24.000000	11.000000
1.110000	22.980000	13.490000	891.000000	0.000000	142.000000	58.000000	26.000000	20.000000
1.120000	23.190000	13.740000	903.000000	0.000000	142.000000	58.000000	21.000000	25.000000
1.130000	23.360000	13.960000	892.000000	0.000000	142.000000	58.000000	17.000000	22.000000
1.140000	23.440000	14.160000	905.000000	0.000000	142.000000	58.000000	8.000000	20.000000
1.150000	23.440000	14.260000	930.000000	0.000000	142.000000	58.000000	0.000000	10.000000
1.160000	23.440000	14.310000	939.000000	0.000000	142.000000	58.000000	0.000000	5.000000
1.170000	23.440000	14.310000	933.000000	0.000000	142.000000	58.000000	0.000000	0.000000
1.180000	23.390000	14.170000	935.000000	0.000000	143.000000	59.000000	-5.000000	-14.000000
1.190000	23.340000	13.950000	927.000000	0.000000	143.000000	59.000000	-5.000000	-22.000000
1.200000	23.340000	13.660000	921.000000	0.000000	144.000000	58.000000	0.000000	-29.000000
1.210000	23.430000	13.520000	894.000000	0.000000	143.000000	59.000000	9.000000	-14.000000
1.220000	23.540000	13.420000	869.000000	0.000000	143.000000	59.000000	11.000000	-10.000000
1.230000	23.660000	13.360000	849.000000	0.000000	143.000000	59.000000	12.000000	-6.000000
1.240000	23.790000	13.360000	724.000000	0.000000	143.000000	59.000000	13.000000	0.000000
1.250000	24.010000	13.360000	491.000000	0.000000	142.000000	59.000000	22.000000	0.000000
1.260000	24.010000	13.360000	0.000000	1.000000	142.000000	59.000000	0.000000	0.000000
1.270000	24.230000	13.570000	0.000000	0.000000	142.000000	59.000000	22.000000	21.000000
1.280000	24.230000	13.640000	0.000000	0.000000	142.000000	59.000000	0.000000	7.000000
1.290000	24.320000	13.640000	0.000000	0.000000	143.000000	59.000000	9.000000	0.000000
1.300000	24.430000	13.580000	0.000000	0.000000	143.000000	59.000000	11.000000	-6.000000
1.310000	24.580000	13.530000	0.000000	0.000000	144.000000	58.000000	15.000000	-5.000000
1.320000	24.580000	13.530000	0.000000	0.000000	143.000000	57.000000	0.000000	0.000000
1.330000	24.580000	13.530000	0.000000	0.000000	144.000000	57.000000	0.000000	0.000000
1.340000	24.580000	13.530000	285.000000	1.000000	144.000000	57.000000	0.000000	0.000000
1.350000	24.760000	13.650000	391.000000	0.000000	146.000000	57.000000	18.000000	12.000000
1.360000	24.810000	13.750000	544.000000	0.000000	146.000000	57.000000	5.000000	10.000000
1.370000	24.810000	13.870000	619.000000	0.000000	146.000000	57.000000	0.000000	12.000000
1.380000	24.960000	13.970000	702.000000	0.000000	144.000000	58.000000	15.000000	10.000000
1.390000	25.080000	14.100000	773.000000	0.000000	146.000000	58.000000	12.000000	13.000000
1.400000	25.180000	14.260000	830.000000	0.000000	145.000000	59.000000	10.000000	16.000000
1.410000	25.180000	14.410000	875.000000	0.000000	145.000000	59.000000	0.000000	15.000000
1.420000	25.180000	14.570000	896.000000	0.000000	145.000000	59.000000	0.000000	16.000000
1.430000	25.180000	14.730000	926.000000	0.000000	145.000000	59.000000	0.000000	16.000000
1.440000	25.080000	14.800000	930.000000	0.000000	145.000000	59.000000	-10.000000	7.000000
1.450000	24.950000	14.800000	918.000000	0.000000	146.000000	58.000000	-13.000000	0.000000
1.460000	24.790000	14.750000	897.000000	0.000000	146.000000	58.000000	-16.000000	-5.000000
1.470000	24.540000	14.520000	897.000000	0.000000	146.000000	58.000000	-25.000000	-23.000000
1.480000	24.290000	14.190000	885.000000	0.000000	146.000000	58.000000	-25.000000	-33.000000
1.490000	24.040000	13.810000	875.000000	0.000000	146.000000	58.000000	-25.000000	-38.000000
1.500000	24.040000	13.560000	861.000000	0.000000	146.000000	58.000000	0.000000	-25.000000
1.510000	24.040000	13.390000	863.000000	0.000000	146.000000	58.000000	0.000000	-17.000000
1.520000	24.100000	13.290000	867.000000	0.000000	145.000000	59.000000	6.000000	-10.000000
1.530000	24.280000	13.290000	870.000000	0.000000	145.000000	59.000000	18.000000	0.000000
1.540000	24.550000	13.290000	873.000000	0.000000	142.000000	59.000000	27.000000	0.000000
1.550000	24.840000	13.530000	875.000000	0.000000	142.000000	59.000000	29.000000	24.000000
1.560000	25.120000	13.770000	878.000000	0.000000	144.000000	60.000000	28.000000	24.000000
1.570000	25.260000	14.020000	878.000000	0.000000	144.000000	60.000000	14.000000	25.000000
1.580000	25.330000	14.200000	881.000000	0.000000	144.000000	60.000000	7.000000	18.000000
1.590000	25.330000	14.330000	890.000000	0.000000	144.000000	60.000000	0.000000	13.000000
1.600000	25.270000	14.330000	890.000000	0.000000	145.000000	60.000000	-6.000000	0.000000
1.610000	25.220000	14.240000	888.000000	0.000000	145.000000	60.000000	-5.000000	-9.000000
1.620000	25.150000	13.990000	885.000000	0.000000	145.000000	60.000000	-7.000000	-25.000000
1.630000	25.100000	13.750000	884.000000	0.000000	146.000000	60.000000	-5.000000	-24.000000
1.640000	25.100000	13.520000	890.000000	0.000000	145.000000	60.000000	0.000000	-23.000000
1.650000	25.100000	13.400000	905.000000	0.000000	145.000000	60.000000	0.000000	-12.000000
1.660000	25.220000	13.400000	912.000000	0.000000	145.000000	60.000000	12.000000	0.000000
1.670000	25.320000	13.400000	930.000000	0.000000	144.000000	61.000000	10.000000	0.000000
1.680000	25.460000	13.450000	932.000000	0.000000	144.000000	61.000000	14.000000	5.000000
1.690000	25.660000	13.590000	938.000000	0.000000	144.000000	61.000000	20.000000	14.000000
1.700000	25.840000	13.710000	945.000000	0.000000	144.000000	61.000000	18.000000	12.000000
1.710000	26.020000	13.950000	951.000000	0.000000	144.000000	61.000000	18.000000	24.000000
1.720000	26.170000	14.270000	949.000000	0.000000	144.000000	61.000000	15.000000	32.000000
1.730000	26.170000	14.270000	962.000000	0.000000	146.000000	62.000000	0.000000	0.000000
1.740000	26.170000	14.270000	983.000000	0.000000	146.000000	62.000000	0.000000	0.000000
1.750000	26.170000	14.270000	986.000000	0.000000	146.000000	62.000000	0.000000	0.000000
1.760000	26.170000	14.270000	985.000000	0.000000	147.000000	61.000000	0.000000	0.000000
1.770000	26.170000	14.270000	964.000000	0.000000	147.000000	61.000000	0.000000	0.000000
1.780000	26.090000	13.890000	945.000000	0.000000	147.000000	61.000000	-8.000000	-38.000000
1.790000	26.040000	13.690000	896.000000	0.000000	147.000000	61.000000	-5.000000	-20.000000
1.800000	26.100000	13.500000	823.000000	0.000000	147.000000	61.000000	6.000000	-19.000000
1.810000	26.210000	13.340000	670.000000	0.000000	146.000000	62.000000	11.000000	-16.000000
1.820000	26.410000	13.340000	409.000000	0.000000	146.000000	62.000000	20.000000	0.000000
1.830000	26.410000	13.340000	0.000000	1.000000	146.000000	62.000000	0.000000	0.000000
1.840000	26.880000	13.550000	0.000000	0.000000	146.000000	62.000000	47.000000	21.000000
1.850000	27.140000	13.870000	0.000000	0.000000	144.000000	61.000000	26.000000	32.000000
1.860000	27.360000	14.250000	0.000000	0.000000	144.000000	61.000000	22.000000	38.000000
1.870000	27.560000	14.640000	0.000000	0.000000	144.000000	60.000000	20.000000	39.000000
1.880000	27.610000	15.010000	0.000000	0.000000	145.000000	59.000000	5.000000	37.000000
1.890000	27.610000	15.340000	0.000000	0.000000	146.000000	58.000000	0.000000	33.000000
1.900000	27.610000	15.340000	310.000000	1.000000	146.000000	57.000000	0.000000	0.000000
1.910000	27.310000	15.370000	452.000000	0.000000	145.000000	56.000000	-30.000000	3.000000
1.920000	27.120000	15.370000	548.000000	0.000000	146.000000	55.000000	-19.000000	0.000000
1.930000	27.060000	15.370000	568.000000	0.000000	145.000000	55.000000	-6.000000	0.000000
1.940000	27.060000	15.370000	515.000000	0.000000	144.000000	54.000000	0.000000	0.000000
1.950000	27.060000	15.370000	218.000000	0.000000	144.000000	54.000000	0.000000	0.000000
1.960000	27.060000	15.370000	0.000000	1.000000	142.000000	54.000000	0.000000	0.000000
1.970000	27.130000	15.310000	0.000000	0.000000	142.000000	54.000000	7.000000	-6.000000
1.980000	27.130000	15.240000	0.000000	0.000000	142.000000	54.000000	0.000000	-7.000000
1.990000	27.250000	15.040000	0.000000	0.000000	142.000000	54.000000	12.000000	-20.000000
2.000000	27.410000	14.710000	0.000000	0.000000	142.000000	54.000000	16.000000	-33.000000
2.010000	27.590000	14.460000	0.000000	0.000000	144.000000	54.000000	18.000000	-25.000000
2.020000	27.750000	14.260000	0.000000	0.000000	144.000000	54.000000	16.000000	-20.000000
2.030000	27.900000	14.090000	0.000000	0.000000	145.000000	54.000000	15.000000	-17.000000
2.040000	27.990000	14.090000	0.000000	0.000000	145.000000	55.000000	9.000000	0.000000
2.050000	27.990000	14.090000	339.000000	1.000000	145.000000	55.000000	0.000000	0.000000
2.060000	28.110000	14.340000	485.000000	0.000000	145.000000	55.000000	12.000000	25.000000
2.070000	28.110000	14.490000	658.000000	0.000000	144.000000	56.000000	0.000000	15.000000
2.080000	28.010000	14.660000	783.000000	0.000000	144.000000	56.000000	-10.000000	17.000000
2.090000	27.950000	14.840000	854.000000	0.000000	143.000000	56.000000	-6.000000	18.000000
2.100000	27.890000	14.840000	908.000000	0.000000	142.000000	57.000000	-6.000000	0.000000
2.110000	27.800000	14.780000	903.000000	0.000000	142.000000	57.000000	-9.000000	-6.000000
2.120000	27.610000	14.730000	909.000000	0.000000	139.000000	57.000000	-19.000000	-5.000000
2.130000	27.360000	14.420000	921.000000	0.000000	139.000000	57.000000	-25.000000	-31.000000
2.140000	27.110000	13.950000	926.000000	0.000000	139.000000	57.000000	-25.000000	-47.000000
2.150000	27.040000	13.680000	939.000000	0.000000	136.000000	57.000000	-7.000000	-27.000000
2.160000	27.100000	13.460000	948.000000	0.000000	136.000000	57.000000	6.000000	-22.000000
2.170000	27.290000	13.280000	946.000000	0.000000	136.000000	57.000000	19.000000	-18.000000
2.180000	27.500000	13.140000	938.000000	0.000000	135.000000	58.000000	21.000000	-14.000000
2.190000	27.760000	13.140000	942.000000	0.000000	134.000000	58.000000	26.000000	0.000000
2.200000	28.030000	13.210000	905.000000	0.000000	134.000000	58.000000	27.000000	7.000000
2.210000	28.280000	13.390000	803.000000	0.000000	132.000000	59.000000	25.000000	18.000000
2.220000	28.430000	13.590000	594.000000	0.000000	132.000000	59.000000	15.000000	20.000000
