t	x	y	pressure	penup	azimuth	inclination	v_x	v_y
0.000000	9.890000	13.480000	183.000000	1.000000	169.000000	46.000000	0.000000	0.000000
0.010000	9.740000	13.840000	345.000000	0.000000	169.000000	47.000000	-15.000000	36.000000
0.020000	9.590000	13.990000	422.000000	0.000000	169.000000	47.000000	-15.000000	15.000000
0.030000	9.490000	14.120000	518.000000	0.000000	169.000000	48.000000	-10.000000	13.000000
0.040000	9.490000	14.210000	546.000000	0.000000	170.000000	49.000000	0.000000	9.000000
0.050000	9.440000	14.210000	557.000000	0.000000	170.000000	49.000000	-5.000000	0.000000
0.060000	9.440000	14.120000	589.000000	0.000000	170.000000	49.000000	0.000000	-9.000000
0.070000	9.560000	14.020000	645.000000	0.000000	169.000000	50.000000	12.000000	-10.000000
0.080000	9.730000	13.560000	681.000000	0.000000	169.000000	50.000000	17.000000	-46.000000
0.090000	10.020000	12.910000	699.000000	0.000000	169.000000	50.000000	29.000000	-65.000000
0.100000	10.380000	12.140000	713.000000	0.000000	170.000000	51.000000	36.000000	-77.000000
0.110000	10.730000	11.290000	727.000000	0.000000	170.000000	51.000000	35.000000	-85.000000
0.120000	11.000000	10.690000	733.000000	0.000000	170.000000	52.000000	27.000000	-60.000000
0.130000	11.220000	10.260000	750.000000	0.000000	171.000000	52.000000	22.000000	-43.000000
0.140000	11.220000	9.940000	803.000000	0.000000	172.000000	53.000000	0.000000	-32.000000
0.150000	11.220000	9.940000	827.000000	0.000000	173.000000	53.000000	0.000000	0.000000
0.160000	10.940000	9.510000	863.000000	0.000000	175.000000	53.000000	-28.000000	-43.000000
0.170000	10.650000	9.510000	869.000000	0.000000	175.000000	53.000000	-29.000000	0.000000
0.180000	10.350000	9.650000	855.000000	0.000000	175.000000	53.000000	-30.000000	14.000000
0.190000	10.040000	9.920000	842.000000	0.000000	175.000000	53.000000	-31.000000	27.000000
0.200000	9.810000	10.250000	843.000000	0.000000	175.000000	53.000000	-23.000000	33.000000
0.210000	9.720000	10.510000	819.000000	0.000000	175.000000	53.000000	-9.000000	26.000000
0.220000	9.720000	10.660000	758.000000	0.000000	173.000000	53.000000	0.000000	15.000000
0.230000	9.720000	10.660000	614.000000	0.000000	172.000000	53.000000	0.000000	0.000000
0.240000	9.810000	10.590000	376.000000	0.000000	172.000000	52.000000	9.000000	-7.000000
0.250000	9.810000	10.590000	0.000000	1.000000	171.000000	52.000000	0.000000	0.000000
0.260000	10.570000	10.370000	0.000000	0.000000	171.000000	52.000000	76.000000	-22.000000
0.270000	11.080000	10.370000	0.000000	0.000000	171.000000	52.000000	51.000000	0.000000
0.280000	11.600000	10.500000	0.000000	0.000000	170.000000	52.000000	52.000000	13.000000
0.290000	11.990000	10.630000	0.000000	0.000000	170.000000	52.000000	39.000000	13.000000
0.300000	12.290000	10.710000	0.000000	0.000000	170.000000	52.000000	30.000000	8.000000
0.310000	12.340000	10.710000	0.000000	0.000000	169.000000	51.000000	5.000000	0.000000
0.320000	12.340000	10.710000	0.000000	0.000000	169.000000	51.000000	0.000000	0.000000
0.330000	12.280000	10.710000	0.000000	0.000000	169.000000	51.000000	-6.000000	0.000000
0.340000	12.280000	10.710000	0.000000	0.000000	170.000000	52.000000	0.000000	0.000000
0.350000	12.280000	10.790000	0.000000	0.000000	170.000000	51.000000	0.000000	8.000000
0.360000	12.420000	10.890000	0.000000	0.000000	170.000000	51.000000	14.000000	10.000000
0.370000	12.520000	10.950000	0.000000	0.000000	170.000000	50.000000	10.000000	6.000000
0.380000	12.600000	11.000000	0.000000	0.000000	170.000000	50.000000	8.000000	5.000000
0.390000	12.650000	11.000000	0.000000	0.000000	170.000000	50.000000	5.000000	0.000000
0.400000	12.650000	11.000000	0.000000	0.000000	171.000000	49.000000	0.000000	0.000000
0.410000	12.650000	10.950000	0.000000	0.000000	170.000000	50.000000	0.000000	-5.000000
0.420000	12.650000	10.950000	0.000000	0.000000	170.000000	50.000000	0.000000	0.000000
0.430000	12.650000	10.950000	351.000000	1.000000	170.000000	50.000000	0.000000	0.000000
0.440000	12.650000	10.950000	464.000000	0.000000	170.000000	51.000000	0.000000	0.000000
0.450000	12.650000	10.950000	581.000000	0.000000	170.000000	52.000000	0.000000	0.000000
0.460000	12.650000	10.950000	662.000000	0.000000	171.000000	52.000000	0.000000	0.000000
0.470000	12.860000	10.600000	693.000000	0.000000	172.000000	53.000000	21.000000	-35.000000
0.480000	13.010000	10.350000	725.000000	0.000000	173.000000	54.000000	15.000000	-25.000000
0.490000	13.180000	10.070000	749.000000	0.000000	175.000000	54.000000	17.000000	-28.000000
0.500000	13.340000	9.800000	758.000000	0.000000	176.000000	54.000000	16.000000	-27.000000
0.510000	13.440000	9.630000	754.000000	0.000000	179.000000	55.000000	10.000000	-17.000000
0.520000	13.510000	9.510000	759.000000	0.000000	180.000000	55.000000	7.000000	-12.000000
0.530000	13.570000	9.510000	759.000000	0.000000	180.000000	55.000000	6.000000	0.000000
0.540000	13.620000	9.510000	753.000000	0.000000	180.000000	55.000000	5.000000	0.000000
0.550000	13.620000	9.590000	737.000000	0.000000	181.000000	55.000000	0.000000	8.000000
0.560000	13.710000	9.850000	724.000000	0.000000	181.000000	55.000000	9.000000	26.000000
0.570000	13.770000	10.180000	696.000000	0.000000	181.000000	55.000000	6.000000	33.000000
0.580000	13.860000	10.570000	691.000000	0.000000	181.000000	55.000000	9.000000	39.000000
0.590000	13.960000	10.680000	694.000000	0.000000	181.000000	55.000000	10.000000	11.000000
0.600000	13.960000	10.610000	700.000000	0.000000	181.000000	55.000000	0.000000	-7.000000
0.610000	13.960000	10.410000	700.000000	0.000000	181.000000	55.000000	0.000000	-20.000000
0.620000	14.050000	10.050000	703.000000	0.000000	181.000000	55.000000	9.000000	-36.000000
0.630000	14.150000	9.750000	699.000000	0.000000	181.000000	55.000000	10.000000	-30.000000
0.640000	14.350000	9.490000	694.000000	0.000000	181.000000	55.000000	20.000000	-26.000000
0.650000	14.550000	9.330000	693.000000	0.000000	181.000000	55.000000	20.000000	-16.000000
0.660000	14.740000	9.330000	690.000000	0.000000	181.000000	55.000000	19.000000	0.000000
0.670000	14.970000	9.330000	520.000000	0.000000	181.000000	55.000000	23.000000	0.000000
0.680000	14.970000	9.330000	0.000000	1.000000	181.000000	55.000000	0.000000	0.000000
0.690000	15.310000	9.760000	0.000000	0.000000	180.000000	55.000000	34.000000	43.000000
0.700000	15.470000	10.050000	0.000000	0.000000	180.000000	55.000000	16.000000	29.000000
0.710000	15.630000	10.520000	0.000000	0.000000	180.000000	55.000000	16.000000	47.000000
0.720000	15.770000	11.030000	0.000000	0.000000	180.000000	55.000000	14.000000	51.000000
0.730000	15.910000	11.560000	0.000000	0.000000	179.000000	55.000000	14.000000	53.000000
0.740000	16.150000	12.070000	0.000000	0.000000	176.000000	54.000000	24.000000	51.000000
0.750000	16.250000	12.380000	0.000000	0.000000	172.000000	53.000000	10.000000	31.000000
0.760000	16.250000	12.550000	0.000000	0.000000	170.000000	51.000000	0.000000	17.000000
0.770000	16.050000	12.620000	0.000000	0.000000	168.000000	49.000000	-20.000000	7.000000
0.780000	15.780000	12.670000	0.000000	0.000000	167.000000	48.000000	-27.000000	5.000000
0.790000	15.470000	12.670000	0.000000	0.000000	168.000000	47.000000	-31.000000	0.000000
0.800000	15.210000	12.670000	0.000000	0.000000	168.000000	47.000000	-26.000000	0.000000
0.810000	15.210000	12.670000	0.000000	0.000000	169.000000	47.000000	0.000000	0.000000
0.820000	14.820000	12.310000	0.000000	0.000000	170.000000	49.000000	-39.000000	-36.000000
0.830000	14.820000	12.310000	413.000000	1.000000	172.000000	50.000000	0.000000	0.000000
0.840000	14.760000	11.760000	446.000000	0.000000	174.000000	51.000000	-6.000000	-55.000000
0.850000	14.850000	11.520000	537.000000	0.000000	176.000000	52.000000	9.000000	-24.000000
0.860000	15.080000	11.250000	585.000000	0.000000	176.000000	53.000000	23.000000	-27.000000
0.870000	15.380000	11.170000	630.000000	0.000000	176.000000	54.000000	30.000000	-8.000000
0.880000	15.730000	11.220000	687.000000	0.000000	176.000000	55.000000	35.000000	5.000000
0.890000	16.050000	11.370000	736.000000	0.000000	176.000000	56.000000	32.000000	15.000000
0.900000	16.340000	11.750000	800.000000	0.000000	174.000000	57.000000	29.000000	38.000000
0.910000	16.580000	12.260000	819.000000	0.000000	171.000000	57.000000	24.000000	51.000000
0.920000	16.690000	12.870000	878.000000	0.000000	166.000000	56.000000	11.000000	61.000000
0.930000	16.690000	13.350000	909.000000	0.000000	162.000000	56.000000	0.000000	48.000000
0.940000	16.510000	13.770000	951.000000	0.000000	159.000000	55.000000	-18.000000	42.000000
0.950000	16.320000	14.080000	968.000000	0.000000	156.000000	55.000000	-19.000000	31.000000
0.960000	16.130000	14.080000	973.000000	0.000000	155.000000	54.000000	-19.000000	0.000000
0.970000	15.870000	13.900000	974.000000	0.000000	155.000000	54.000000	-26.000000	-18.000000
0.980000	15.560000	13.350000	971.000000	0.000000	158.000000	55.000000	-31.000000	-55.000000
0.990000	15.350000	12.590000	968.000000	0.000000	160.000000	55.000000	-21.000000	-76.000000
1.000000	15.190000	11.700000	965.000000	0.000000	164.000000	55.000000	-16.000000	-89.000000
1.010000	15.190000	10.900000	955.000000	0.000000	168.000000	55.000000	0.000000	-80.000000
1.020000	15.360000	10.290000	953.000000	0.000000	171.000000	57.000000	17.000000	-61.000000
1.030000	15.630000	9.820000	947.000000	0.000000	174.000000	57.000000	27.000000	-47.000000
1.040000	15.940000	9.440000	944.000000	0.000000	175.000000	57.000000	31.000000	-38.000000
1.050000	16.270000	9.220000	946.000000	0.000000	174.000000	57.000000	33.000000	-22.000000
1.060000	16.600000	9.100000	955.000000	0.000000	172.000000	57.000000	33.000000	-12.000000
1.070000	16.870000	9.100000	955.000000	0.000000	169.000000	57.000000	27.000000	0.000000
1.080000	17.150000	9.220000	956.000000	0.000000	165.000000	56.000000	28.000000	12.000000
1.090000	17.440000	9.360000	947.000000	0.000000	162.000000	56.000000	29.000000	14.000000
1.100000	17.590000	9.450000	946.000000	0.000000	158.000000	55.000000	15.000000	9.000000
1.110000	17.640000	9.510000	943.000000	0.000000	154.000000	55.000000	5.000000	6.000000
1.120000	17.640000	9.510000	940.000000	0.000000	151.000000	54.000000	0.000000	0.000000
1.130000	17.730000	9.510000	951.000000	0.000000	148.000000	54.000000	9.000000	0.000000
1.140000	17.730000	9.510000	941.000000	0.000000	148.000000	54.000000	0.000000	0.000000
1.150000	17.850000	9.460000	921.000000	0.000000	148.000000	54.000000	12.000000	-5.000000
1.160000	17.980000	9.400000	908.000000	0.000000	148.000000	54.000000	13.000000	-6.000000
1.170000	18.170000	9.310000	873.000000	0.000000	148.000000	54.000000	19.000000	-9.000000
1.180000	18.170000	9.310000	793.000000	0.000000	150.000000	54.000000	0.000000	0.000000
1.190000	18.470000	9.220000	546.000000	0.000000	150.000000	54.000000	30.000000	-9.000000
1.200000	18.470000	9.220000	0.000000	1.000000	151.000000	54.000000	0.000000	0.000000
1.210000	18.540000	9.300000	0.000000	0.000000	151.000000	54.000000	7.000000	8.000000
1.220000	18.410000	9.520000	0.000000	0.000000	153.000000	55.000000	-13.000000	22.000000
1.230000	18.410000	9.830000	0.000000	0.000000	154.000000	55.000000	0.000000	31.000000
1.240000	18.340000	10.130000	0.000000	0.000000	154.000000	55.000000	-7.000000	30.000000
1.250000	18.340000	10.400000	0.000000	0.000000	154.000000	55.000000	0.000000	27.000000
1.260000	18.280000	10.580000	0.000000	0.000000	154.000000	55.000000	-6.000000	18.000000
1.270000	18.230000	10.690000	0.000000	0.000000	155.000000	54.000000	-5.000000	11.000000
1.280000	18.160000	10.690000	0.000000	0.000000	155.000000	54.000000	-7.000000	0.000000
1.290000	18.160000	10.690000	468.000000	1.000000	155.000000	54.000000	0.000000	0.000000
1.300000	18.160000	10.690000	514.000000	0.000000	155.000000	54.000000	0.000000	0.000000
1.310000	18.160000	10.690000	588.000000	0.000000	154.000000	55.000000	0.000000	0.000000
1.320000	18.160000	10.690000	636.000000	0.000000	154.000000	55.000000	0.000000	0.000000
1.330000	18.200000	10.440000	640.000000	0.000000	154.000000	55.000000	4.000000	-25.000000
1.340000	18.410000	10.210000	653.000000	0.000000	153.000000	55.000000	21.000000	-23.000000
1.350000	18.670000	9.920000	664.000000	0.000000	152.000000	56.000000	26.000000	-29.000000
1.360000	18.970000	9.590000	678.000000	0.000000	152.000000	56.000000	30.000000	-33.000000
1.370000	19.260000	9.370000	694.000000	0.000000	152.000000	56.000000	29.000000	-22.000000
1.380000	19.570000	9.240000	725.000000	0.000000	152.000000	56.000000	31.000000	-13.000000
1.390000	19.870000	9.170000	743.000000	0.000000	152.000000	56.000000	30.000000	-7.000000
1.400000	20.070000	9.170000	777.000000	0.000000	153.000000	56.000000	20.000000	0.000000
1.410000	20.210000	9.110000	834.000000	0.000000	153.000000	56.000000	14.000000	-6.000000
1.420000	20.300000	9.220000	894.000000	0.000000	153.000000	56.000000	9.000000	11.000000
1.430000	20.390000	9.480000	942.000000	0.000000	154.000000	56.000000	9.000000	26.000000
1.440000	20.440000	9.840000	1023.000000	0.000000	154.000000	56.000000	5.000000	36.000000
1.450000	20.340000	10.200000	1023.000000	0.000000	154.000000	56.000000	-10.000000	36.000000
1.460000	20.160000	10.550000	1023.000000	0.000000	154.000000	56.000000	-18.000000	35.000000
1.470000	19.850000	10.720000	1023.000000	0.000000	153.000000	56.000000	-31.000000	17.000000
1.480000	19.400000	10.780000	991.000000	0.000000	153.000000	56.000000	-45.000000	6.000000
1.490000	18.860000	10.650000	693.000000	0.000000	153.000000	56.000000	-54.000000	-13.000000
1.500000	18.860000	10.650000	0.000000	1.000000	153.000000	56.000000	0.000000	0.000000
1.510000	18.260000	10.330000	0.000000	0.000000	152.000000	56.000000	-60.000000	-32.000000
1.520000	18.340000	10.330000	0.000000	0.000000	152.000000	56.000000	8.000000	0.000000
1.530000	18.550000	10.460000	0.000000	0.000000	152.000000	56.000000	21.000000	13.000000
1.540000	19.020000	10.600000	0.000000	0.000000	153.000000	55.000000	47.000000	14.000000
1.550000	19.650000	10.750000	0.000000	0.000000	152.000000	54.000000	63.000000	15.000000
1.560000	20.450000	10.890000	0.000000	0.000000	152.000000	53.000000	80.000000	14.000000
1.570000	21.260000	11.010000	0.000000	0.000000	153.000000	52.000000	81.000000	12.000000
1.580000	22.070000	11.100000	0.000000	0.000000	153.000000	50.000000	81.000000	9.000000
1.590000	22.590000	11.100000	0.000000	0.000000	154.000000	49.000000	52.000000	0.000000
1.600000	23.490000	11.100000	0.000000	0.000000	156.000000	48.000000	90.000000	0.000000
1.610000	24.630000	11.290000	0.000000	0.000000	158.000000	48.000000	114.000000	19.000000
1.620000	25.340000	11.580000	0.000000	0.000000	160.000000	48.000000	71.000000	29.000000
1.630000	25.880000	11.820000	0.000000	0.000000	162.000000	49.000000	54.000000	24.000000
1.640000	26.310000	12.050000	0.000000	0.000000	165.000000	49.000000	43.000000	23.000000
1.650000	26.590000	12.340000	0.000000	0.000000	165.000000	49.000000	28.000000	29.000000
1.660000	26.750000	12.670000	0.000000	0.000000	164.000000	50.000000	16.000000	33.000000
1.670000	26.830000	12.920000	0.000000	0.000000	163.000000	50.000000	8.000000	25.000000
1.680000	26.680000	13.160000	0.000000	0.000000	162.000000	50.000000	-15.000000	24.000000
1.690000	26.400000	13.270000	0.000000	0.000000	159.000000	50.000000	-28.000000	11.000000
1.700000	26.030000	13.270000	0.000000	0.000000	155.000000	50.000000	-37.000000	0.000000
1.710000	25.980000	13.370000	0.000000	0.000000	154.000000	50.000000	-5.000000	10.000000
1.720000	26.070000	13.370000	0.000000	0.000000	152.000000	51.000000	9.000000	0.000000
1.730000	26.260000	13.310000	0.000000	0.000000	152.000000	51.000000	19.000000	-6.000000
1.740000	26.370000	13.120000	0.000000	0.000000	153.000000	51.000000	11.000000	-19.000000
1.750000	26.680000	12.890000	0.000000	0.000000	156.000000	51.000000	31.000000	-23.000000
1.760000	27.110000	12.660000	0.000000	0.000000	157.000000	52.000000	43.000000	-23.000000
1.770000	27.560000	12.430000	0.000000	0.000000	157.000000	52.000000	45.000000	-23.000000
1.780000	27.890000	12.260000	0.000000	0.000000	156.000000	51.000000	33.000000	-17.000000
1.790000	28.150000	12.120000	0.000000	0.000000	155.000000	51.000000	26.000000	-14.000000
1.800000	28.150000	12.000000	0.000000	0.000000	153.000000	51.000000	0.000000	-12.000000
1.810000	27.910000	11.880000	0.000000	0.000000	150.000000	51.000000	-24.000000	-12.000000
1.820000	27.600000	11.760000	0.000000	0.000000	149.000000	51.000000	-31.000000	-12.000000
1.830000	27.340000	11.760000	0.000000	0.000000	148.000000	50.000000	-26.000000	0.000000
1.840000	27.120000	11.880000	0.000000	0.000000	147.000000	51.000000	-22.000000	12.000000
1.850000	26.980000	12.020000	0.000000	0.000000	147.000000	51.000000	-14.000000	14.000000
1.860000	26.980000	12.140000	0.000000	0.000000	147.000000	52.000000	0.000000	12.000000
1.870000	26.910000	12.250000	0.000000	0.000000	147.000000	52.000000	-7.000000	11.000000
1.880000	26.820000	12.250000	0.000000	0.000000	146.000000	53.000000	-9.000000	0.000000
1.890000	26.760000	12.250000	0.000000	0.000000	146.000000	53.000000	-6.000000	0.000000
1.900000	26.710000	12.200000	0.000000	0.000000	147.000000	53.000000	-5.000000	-5.000000
1.910000	26.710000	12.200000	0.000000	0.000000	146.000000	54.000000	0.000000	0.000000
1.920000	26.710000	12.120000	0.000000	0.000000	146.000000	54.000000	0.000000	-8.000000
1.930000	26.800000	12.120000	0.000000	0.000000	147.000000	55.000000	9.000000	0.000000
1.940000	26.970000	12.120000	0.000000	0.000000	147.000000	55.000000	17.000000	0.000000
1.950000	27.120000	12.120000	0.000000	0.000000	146.000000	55.000000	15.000000	0.000000
1.960000	27.270000	12.280000	0.000000	0.000000	148.000000	56.000000	15.000000	16.000000
1.970000	27.370000	12.390000	0.000000	0.000000	148.000000	56.000000	10.000000	11.000000
1.980000	27.370000	12.390000	304.000000	1.000000	147.000000	56.000000	0.000000	0.000000
1.990000	27.370000	12.780000	546.000000	0.000000	147.000000	56.000000	0.000000	39.000000
2.000000	27.230000	12.950000	669.000000	0.000000	146.000000	57.000000	-14.000000	17.000000
2.010000	27.050000	13.090000	763.000000	0.000000	146.000000	57.000000	-18.000000	14.000000
2.020000	26.760000	13.150000	796.000000	0.000000	146.000000	57.000000	-29.000000	6.000000
2.030000	26.480000	13.090000	836.000000	0.000000	144.000000	58.000000	-28.000000	-6.000000
2.040000	26.200000	12.950000	887.000000	0.000000	144.000000	58.000000	-28.000000	-14.000000
2.050000	25.900000	12.650000	903.000000	0.000000	146.000000	58.000000	-30.000000	-30.000000
2.060000	25.630000	12.170000	917.000000	0.000000	146.000000	58.000000	-27.000000	-48.000000
2.070000	25.380000	11.570000	924.000000	0.000000	146.000000	58.000000	-25.000000	-60.000000
2.080000	25.150000	10.930000	921.000000	0.000000	147.000000	59.000000	-23.000000	-64.000000
2.090000	25.150000	10.330000	899.000000	0.000000	149.000000	59.000000	0.000000	-60.000000
2.100000	25.260000	9.930000	881.000000	0.000000	151.000000	60.000000	11.000000	-40.000000
2.110000	25.560000	9.640000	843.000000	0.000000	151.000000	60.000000	30.000000	-29.000000
2.120000	25.870000	9.420000	823.000000	0.000000	151.000000	60.000000	31.000000	-22.000000
2.130000	26.190000	9.420000	790.000000	0.000000	151.000000	60.000000	32.000000	0.000000
2.140000	26.490000	9.500000	767.000000	0.000000	151.000000	60.000000	30.000000	8.000000
2.150000	26.780000	9.720000	757.000000	0.000000	151.000000	60.000000	29.000000	22.000000
2.160000	26.930000	10.000000	727.000000	0.000000	151.000000	60.000000	15.000000	28.000000
2.170000	26.980000	10.330000	725.000000	0.000000	149.000000	59.000000	5.000000	33.000000
2.180000	26.880000	10.430000	617.000000	0.000000	149.000000	59.000000	-10.000000	10.000000
2.190000	26.710000	10.490000	363.000000	0.000000	147.000000	59.000000	-17.000000	6.000000
2.200000	26.710000	10.490000	0.000000	1.000000	147.000000	59.000000	0.000000	0.000000
2.210000	26.330000	10.380000	0.000000	0.000000	146.000000	58.000000	-38.000000	-11.000000
2.220000	26.230000	10.290000	0.000000	0.000000	146.000000	58.000000	-10.000000	-9.000000
2.230000	26.230000	10.230000	0.000000	0.000000	147.000000	59.000000	0.000000	-6.000000
