t	x	y	pressure	penup	azimuth	inclination	v_x	v_y
0.000000	12.630000	77.320000	20.000000	1.000000	143.000000	59.000000	0.000000	0.000000
0.010000	13.040000	77.240000	49.000000	0.000000	143.000000	59.000000	41.000000	-8.000000
0.020000	13.190000	77.180000	105.000000	0.000000	142.000000	59.000000	15.000000	-6.000000
0.030000	13.290000	77.180000	184.000000	0.000000	142.000000	59.000000	10.000000	0.000000
0.040000	13.420000	77.000000	212.000000	0.000000	141.000000	60.000000	13.000000	-18.000000
0.050000	13.520000	76.850000	289.000000	0.000000	141.000000	60.000000	10.000000	-15.000000
0.060000	13.520000	76.660000	399.000000	0.000000	139.000000	60.000000	0.000000	-19.000000
0.070000	13.520000	76.450000	473.000000	0.000000	139.000000	60.000000	0.000000	-21.000000
0.080000	13.420000	76.240000	526.000000	0.000000	139.000000	60.000000	-10.000000	-21.000000
0.090000	13.200000	76.030000	577.000000	0.000000	139.000000	60.000000	-22.000000	-21.000000
0.100000	12.910000	75.830000	603.000000	0.000000	141.000000	59.000000	-29.000000	-20.000000
0.110000	12.580000	75.720000	638.000000	0.000000	141.000000	59.000000	-33.000000	-11.000000
0.120000	12.180000	75.670000	640.000000	0.000000	141.000000	59.000000	-40.000000	-5.000000
0.130000	11.730000	75.670000	664.000000	0.000000	141.000000	59.000000	-45.000000	0.000000
0.140000	11.100000	75.720000	693.000000	0.000000	142.000000	58.000000	-63.000000	5.000000
0.150000	10.500000	75.850000	700.000000	0.000000	142.000000	58.000000	-60.000000	13.000000
0.160000	9.910000	76.150000	725.000000	0.000000	142.000000	59.000000	-59.000000	30.000000
0.170000	9.490000	76.520000	725.000000	0.000000	142.000000	59.000000	-42.000000	37.000000
0.180000	9.090000	76.930000	728.000000	0.000000	142.000000	59.000000	-40.000000	41.000000
0.190000	8.840000	77.380000	727.000000	0.000000	144.000000	60.000000	-25.000000	45.000000
0.200000	8.690000	77.900000	728.000000	0.000000	144.000000	60.000000	-15.000000	52.000000
0.210000	8.630000	78.480000	725.000000	0.000000	144.000000	60.000000	-6.000000	58.000000
0.220000	8.680000	79.160000	725.000000	0.000000	145.000000	60.000000	5.000000	68.000000
0.230000	8.810000	79.810000	724.000000	0.000000	145.000000	60.000000	13.000000	65.000000
0.240000	8.970000	80.400000	721.000000	0.000000	148.000000	60.000000	16.000000	59.000000
0.250000	9.150000	80.970000	714.000000	0.000000	148.000000	60.000000	18.000000	57.000000
0.260000	9.400000	81.440000	716.000000	0.000000	148.000000	60.000000	25.000000	47.000000
0.270000	9.750000	81.840000	713.000000	0.000000	148.000000	60.000000	35.000000	40.000000
0.280000	10.160000	82.140000	711.000000	0.000000	149.000000	59.000000	41.000000	30.000000
0.290000	10.620000	82.430000	713.000000	0.000000	147.000000	59.000000	46.000000	29.000000
0.300000	10.970000	82.590000	710.000000	0.000000	147.000000	59.000000	35.000000	16.000000
0.310000	11.240000	82.660000	711.000000	0.000000	147.000000	59.000000	27.000000	7.000000
0.320000	11.510000	82.780000	713.000000	0.000000	146.000000	58.000000	27.000000	12.000000
0.330000	11.670000	82.850000	711.000000	0.000000	146.000000	58.000000	16.000000	7.000000
0.340000	11.750000	82.850000	710.000000	0.000000	146.000000	58.000000	8.000000	0.000000
0.350000	11.890000	82.740000	710.000000	0.000000	147.000000	58.000000	14.000000	-11.000000
0.360000	12.030000	82.610000	708.000000	0.000000	146.000000	57.000000	14.000000	-13.000000
0.370000	12.200000	82.390000	710.000000	0.000000	146.000000	57.000000	17.000000	-22.000000
0.380000	12.340000	82.090000	710.000000	0.000000	146.000000	57.000000	14.000000	-30.000000
0.390000	12.510000	81.700000	708.000000	0.000000	146.000000	57.000000	17.000000	-39.000000
0.400000	12.670000	81.260000	710.000000	0.000000	144.000000	58.000000	16.000000	-44.000000
0.410000	12.800000	80.800000	710.000000	0.000000	143.000000	57.000000	13.000000	-46.000000
0.420000	12.920000	80.350000	716.000000	0.000000	143.000000	57.000000	12.000000	-45.000000
0.430000	13.000000	79.860000	714.000000	0.000000	143.000000	57.000000	8.000000	-49.000000
0.440000	13.000000	79.510000	730.000000	0.000000	143.000000	57.000000	0.000000	-35.000000
0.450000	13.000000	79.250000	722.000000	0.000000	142.000000	57.000000	0.000000	-26.000000
0.460000	13.000000	79.040000	731.000000	0.000000	142.000000	57.000000	0.000000	-21.000000
0.470000	13.000000	78.910000	736.000000	0.000000	142.000000	57.000000	0.000000	-13.000000
0.480000	13.000000	78.840000	745.000000	0.000000	142.000000	57.000000	0.000000	-7.000000
0.490000	13.000000	78.840000	748.000000	0.000000	142.000000	57.000000	0.000000	0.000000
0.500000	13.000000	78.840000	757.000000	0.000000	142.000000	57.000000	0.000000	0.000000
0.510000	13.000000	78.840000	757.000000	0.000000	143.000000	56.000000	0.000000	0.000000
0.520000	13.000000	78.900000	763.000000	0.000000	143.000000	56.000000	0.000000	6.000000
0.530000	13.000000	78.990000	763.000000	0.000000	143.000000	56.000000	0.000000	9.000000
0.540000	13.000000	79.200000	757.000000	0.000000	144.000000	56.000000	0.000000	21.000000
0.550000	13.000000	79.490000	745.000000	0.000000	144.000000	56.000000	0.000000	29.000000
0.560000	13.000000	80.010000	739.000000	0.000000	143.000000	56.000000	0.000000	52.000000
0.570000	13.000000	80.350000	727.000000	0.000000	143.000000	56.000000	0.000000	34.000000
0.580000	13.000000	80.570000	720.000000	0.000000	143.000000	56.000000	0.000000	22.000000
0.590000	13.060000	80.690000	727.000000	0.000000	140.000000	56.000000	6.000000	12.000000
0.600000	13.170000	80.810000	722.000000	0.000000	140.000000	56.000000	11.000000	12.000000
0.610000	13.280000	80.940000	716.000000	0.000000	140.000000	56.000000	11.000000	13.000000
0.620000	13.360000	80.940000	700.000000	0.000000	139.000000	57.000000	8.000000	0.000000
0.630000	13.430000	80.940000	690.000000	0.000000	139.000000	57.000000	7.000000	0.000000
0.640000	13.560000	80.780000	700.000000	0.000000	139.000000	57.000000	13.000000	-16.000000
0.650000	13.680000	80.490000	700.000000	0.000000	140.000000	56.000000	12.000000	-29.000000
0.660000	13.750000	80.100000	699.000000	0.000000	140.000000	58.000000	7.000000	-39.000000
0.670000	13.800000	79.690000	702.000000	0.000000	140.000000	58.000000	5.000000	-41.000000
0.680000	13.870000	79.290000	693.000000	0.000000	140.000000	58.000000	7.000000	-40.000000
0.690000	13.940000	79.110000	696.000000	0.000000	140.000000	58.000000	7.000000	-18.000000
0.700000	13.940000	79.110000	708.000000	0.000000	140.000000	58.000000	0.000000	0.000000
0.710000	13.940000	79.060000	724.000000	0.000000	142.000000	57.000000	0.000000	-5.000000
0.720000	13.940000	79.130000	733.000000	0.000000	143.000000	57.000000	0.000000	7.000000
0.730000	13.940000	79.250000	725.000000	0.000000	143.000000	57.000000	0.000000	12.000000
0.740000	13.940000	79.440000	724.000000	0.000000	144.000000	57.000000	0.000000	19.000000
0.750000	13.940000	79.850000	719.000000	0.000000	144.000000	57.000000	0.000000	41.000000
0.760000	14.090000	80.420000	699.000000	0.000000	144.000000	57.000000	15.000000	57.000000
0.770000	14.160000	80.590000	702.000000	0.000000	143.000000	57.000000	7.000000	17.000000
0.780000	14.160000	80.590000	697.000000	0.000000	144.000000	58.000000	0.000000	0.000000
0.790000	14.340000	80.480000	696.000000	0.000000	144.000000	58.000000	18.000000	-11.000000
0.800000	14.490000	80.160000	700.000000	0.000000	143.000000	59.000000	15.000000	-32.000000
0.810000	14.630000	79.820000	702.000000	0.000000	143.000000	59.000000	14.000000	-34.000000
0.820000	14.720000	79.470000	702.000000	0.000000	143.000000	59.000000	9.000000	-35.000000
0.830000	14.830000	79.230000	702.000000	0.000000	143.000000	59.000000	11.000000	-24.000000
0.840000	14.950000	79.060000	702.000000	0.000000	145.000000	59.000000	12.000000	-17.000000
0.850000	15.000000	79.010000	691.000000	0.000000	146.000000	58.000000	5.000000	-5.000000
0.860000	15.060000	79.010000	628.000000	0.000000	146.000000	58.000000	6.000000	0.000000
0.870000	15.130000	79.010000	443.000000	0.000000	146.000000	58.000000	7.000000	0.000000
0.880000	15.200000	79.200000	180.000000	0.000000	147.000000	58.000000	7.000000	19.000000
0.890000	15.200000	79.200000	0.000000	1.000000	147.000000	58.000000	0.000000	0.000000
0.900000	15.360000	79.500000	0.000000	0.000000	147.000000	58.000000	16.000000	30.000000
0.910000	15.430000	79.660000	0.000000	0.000000	147.000000	59.000000	7.000000	16.000000
0.920000	15.630000	79.810000	0.000000	0.000000	147.000000	59.000000	20.000000	15.000000
0.930000	15.880000	80.040000	0.000000	0.000000	147.000000	59.000000	25.000000	23.000000
0.940000	16.240000	80.320000	0.000000	0.000000	146.000000	60.000000	36.000000	28.000000
0.950000	16.630000	80.520000	0.000000	0.000000	146.000000	60.000000	39.000000	20.000000
0.960000	17.010000	80.710000	0.000000	0.000000	145.000000	60.000000	38.000000	19.000000
0.970000	17.010000	80.710000	63.000000	1.000000	145.000000	60.000000	0.000000	0.000000
0.980000	17.410000	81.050000	215.000000	0.000000	145.000000	60.000000	40.000000	34.000000
0.990000	17.320000	81.190000	310.000000	0.000000	146.000000	60.000000	-9.000000	14.000000
1.000000	17.240000	81.330000	402.000000	0.000000	146.000000	60.000000	-8.000000	14.000000
1.010000	17.090000	81.430000	469.000000	0.000000	146.000000	60.000000	-15.000000	10.000000
1.020000	16.890000	81.530000	512.000000	0.000000	147.000000	59.000000	-20.000000	10.000000
1.030000	16.740000	81.600000	526.000000	0.000000	147.000000	59.000000	-15.000000	7.000000
1.040000	16.560000	81.660000	570.000000	0.000000	147.000000	59.000000	-18.000000	6.000000
1.050000	16.360000	81.660000	577.000000	0.000000	149.000000	58.000000	-20.000000	0.000000
1.060000	16.170000	81.660000	575.000000	0.000000	149.000000	58.000000	-19.000000	0.000000
1.070000	15.980000	81.660000	583.000000	0.000000	149.000000	58.000000	-19.000000	0.000000
1.080000	15.790000	81.530000	586.000000	0.000000	149.000000	58.000000	-19.000000	-13.000000
1.090000	15.670000	81.350000	588.000000	0.000000	149.000000	58.000000	-12.000000	-18.000000
1.100000	15.570000	81.150000	591.000000	0.000000	149.000000	58.000000	-10.000000	-20.000000
1.110000	15.510000	80.960000	591.000000	0.000000	149.000000	58.000000	-6.000000	-19.000000
1.120000	15.510000	80.820000	609.000000	0.000000	149.000000	58.000000	0.000000	-14.000000
1.130000	15.580000	80.700000	614.000000	0.000000	149.000000	58.000000	7.000000	-12.000000
1.140000	15.670000	80.600000	631.000000	0.000000	149.000000	58.000000	9.000000	-10.000000
1.150000	15.780000	80.600000	637.000000	0.000000	147.000000	59.000000	11.000000	0.000000
1.160000	16.030000	80.600000	650.000000	0.000000	147.000000	59.000000	25.000000	0.000000
1.170000	16.360000	80.690000	652.000000	0.000000	147.000000	59.000000	33.000000	9.000000
1.180000	16.740000	80.770000	647.000000	0.000000	147.000000	59.000000	38.000000	8.000000
1.190000	16.960000	80.850000	610.000000	0.000000	147.000000	59.000000	22.000000	8.000000
1.200000	17.070000	80.850000	559.000000	0.000000	146.000000	58.000000	11.000000	0.000000
1.210000	17.200000	80.850000	460.000000	0.000000	147.000000	59.000000	13.000000	0.000000
1.220000	17.200000	80.730000	307.000000	0.000000	147.000000	59.000000	0.000000	-12.000000
1.230000	17.130000	80.580000	160.000000	0.000000	147.000000	59.000000	-7.000000	-15.000000
1.240000	16.870000	80.320000	48.000000	0.000000	147.000000	59.000000	-26.000000	-26.000000
1.250000	16.570000	79.990000	13.000000	1.000000	147.000000	59.000000	0.000000	0.000000
1.260000	16.250000	79.830000	30.000000	1.000000	147.000000	59.000000	0.000000	0.000000
1.270000	15.980000	79.650000	119.000000	0.000000	146.000000	60.000000	-27.000000	-18.000000
1.280000	15.860000	79.590000	254.000000	0.000000	146.000000	60.000000	-12.000000	-6.000000
1.290000	15.860000	79.590000	337.000000	0.000000	146.000000	60.000000	0.000000	0.000000
1.300000	15.860000	79.660000	392.000000	0.000000	146.000000	60.000000	0.000000	7.000000
1.310000	15.950000	79.660000	447.000000	0.000000	145.000000	60.000000	9.000000	0.000000
1.320000	16.120000	79.710000	477.000000	0.000000	145.000000	60.000000	17.000000	5.000000
1.330000	16.370000	79.710000	485.000000	0.000000	145.000000	60.000000	25.000000	0.000000
1.340000	16.620000	79.710000	493.000000	0.000000	145.000000	60.000000	25.000000	0.000000
1.350000	16.850000	79.760000	488.000000	0.000000	145.000000	60.000000	23.000000	5.000000
1.360000	17.080000	79.760000	472.000000	0.000000	145.000000	59.000000	23.000000	0.000000
1.370000	17.300000	79.760000	414.000000	0.000000	146.000000	60.000000	22.000000	0.000000
1.380000	17.490000	79.820000	304.000000	0.000000	146.000000	60.000000	19.000000	6.000000
1.390000	17.660000	79.910000	108.000000	0.000000	146.000000	60.000000	17.000000	9.000000
1.400000	17.660000	79.910000	0.000000	1.000000	149.000000	59.000000	0.000000	0.000000
1.410000	18.020000	80.320000	0.000000	0.000000	149.000000	59.000000	36.000000	41.000000
1.420000	18.140000	80.700000	0.000000	0.000000	149.000000	59.000000	12.000000	38.000000
1.430000	18.250000	81.160000	0.000000	0.000000	151.000000	60.000000	11.000000	46.000000
1.440000	18.360000	81.620000	0.000000	0.000000	151.000000	60.000000	11.000000	46.000000
1.450000	18.440000	82.030000	0.000000	0.000000	151.000000	60.000000	8.000000	41.000000
1.460000	18.440000	82.250000	0.000000	0.000000	151.000000	60.000000	0.000000	22.000000
1.470000	18.440000	82.250000	80.000000	1.000000	152.000000	59.000000	0.000000	0.000000
1.480000	18.440000	82.250000	148.000000	0.000000	152.000000	59.000000	0.000000	0.000000
1.490000	18.440000	82.250000	262.000000	0.000000	152.000000	59.000000	0.000000	0.000000
1.500000	18.440000	82.250000	353.000000	0.000000	150.000000	58.000000	0.000000	0.000000
1.510000	18.660000	81.710000	394.000000	0.000000	150.000000	58.000000	22.000000	-54.000000
1.520000	18.750000	81.080000	439.000000	0.000000	152.000000	59.000000	9.000000	-63.000000
1.530000	18.850000	80.300000	491.000000	0.000000	152.000000	59.000000	10.000000	-78.000000
1.540000	18.980000	79.430000	551.000000	0.000000	152.000000	59.000000	13.000000	-87.000000
1.550000	19.110000	78.810000	605.000000	0.000000	152.000000	59.000000	13.000000	-62.000000
1.560000	19.290000	78.460000	630.000000	0.000000	152.000000	59.000000	18.000000	-35.000000
1.570000	19.290000	78.280000	650.000000	0.000000	152.000000	59.000000	0.000000	-18.000000
1.580000	19.290000	78.280000	673.000000	0.000000	152.000000	59.000000	0.000000	0.000000
1.590000	19.290000	78.350000	691.000000	0.000000	153.000000	59.000000	0.000000	7.000000
1.600000	19.210000	78.440000	640.000000	0.000000	153.000000	59.000000	-8.000000	9.000000
1.610000	19.110000	78.760000	536.000000	0.000000	153.000000	59.000000	-10.000000	32.000000
1.620000	19.110000	79.110000	182.000000	0.000000	153.000000	59.000000	0.000000	35.000000
1.630000	19.110000	79.110000	0.000000	1.000000	153.000000	59.000000	0.000000	0.000000
1.640000	19.180000	79.720000	0.000000	0.000000	153.000000	59.000000	7.000000	61.000000
1.650000	19.360000	79.910000	0.000000	0.000000	152.000000	59.000000	18.000000	19.000000
1.660000	19.590000	79.980000	0.000000	0.000000	151.000000	60.000000	23.000000	7.000000
1.670000	19.810000	79.980000	0.000000	0.000000	149.000000	59.000000	22.000000	0.000000
1.680000	20.010000	80.060000	0.000000	0.000000	148.000000	60.000000	20.000000	8.000000
1.690000	20.240000	80.220000	0.000000	0.000000	146.000000	60.000000	23.000000	16.000000
1.700000	20.370000	80.390000	0.000000	0.000000	144.000000	60.000000	13.000000	17.000000
1.710000	20.440000	80.560000	0.000000	0.000000	142.000000	59.000000	7.000000	17.000000
1.720000	20.440000	80.760000	0.000000	0.000000	141.000000	59.000000	0.000000	20.000000
1.730000	20.330000	80.990000	0.000000	0.000000	141.000000	59.000000	-11.000000	23.000000
1.740000	20.170000	81.160000	0.000000	0.000000	141.000000	59.000000	-16.000000	17.000000
1.750000	19.860000	81.290000	0.000000	0.000000	139.000000	58.000000	-31.000000	13.000000
1.760000	19.450000	81.360000	0.000000	0.000000	139.000000	58.000000	-41.000000	7.000000
1.770000	18.980000	81.410000	0.000000	0.000000	141.000000	59.000000	-47.000000	5.000000
1.780000	18.400000	81.410000	0.000000	0.000000	141.000000	59.000000	-58.000000	0.000000
1.790000	17.730000	81.410000	0.000000	0.000000	142.000000	59.000000	-67.000000	0.000000
1.800000	17.730000	81.410000	143.000000	1.000000	143.000000	59.000000	0.000000	0.000000
1.810000	16.300000	81.460000	217.000000	0.000000	145.000000	59.000000	-143.000000	5.000000
1.820000	15.900000	81.700000	253.000000	0.000000	147.000000	59.000000	-40.000000	24.000000
1.830000	15.690000	82.110000	287.000000	0.000000	147.000000	59.000000	-21.000000	41.000000
1.840000	15.690000	82.540000	306.000000	0.000000	149.000000	59.000000	0.000000	43.000000
1.850000	15.950000	82.990000	307.000000	0.000000	150.000000	58.000000	26.000000	45.000000
1.860000	16.360000	83.450000	311.000000	0.000000	150.000000	58.000000	41.000000	46.000000
1.870000	17.120000	83.890000	312.000000	0.000000	152.000000	59.000000	76.000000	44.000000
1.880000	17.890000	84.160000	317.000000	0.000000	153.000000	58.000000	77.000000	27.000000
1.890000	18.660000	84.320000	312.000000	0.000000	153.000000	58.000000	77.000000	16.000000
1.900000	19.450000	84.270000	314.000000	0.000000	153.000000	58.000000	79.000000	-5.000000
1.910000	20.150000	84.050000	310.000000	0.000000	153.000000	58.000000	70.000000	-22.000000
1.920000	20.800000	83.720000	304.000000	0.000000	153.000000	58.000000	65.000000	-33.000000
1.930000	21.270000	83.240000	304.000000	0.000000	153.000000	58.000000	47.000000	-48.000000
1.940000	21.520000	82.760000	325.000000	0.000000	154.000000	57.000000	25.000000	-48.000000
1.950000	21.610000	82.370000	366.000000	0.000000	154.000000	57.000000	9.000000	-39.000000
1.960000	21.430000	82.040000	397.000000	0.000000	154.000000	57.000000	-18.000000	-33.000000
1.970000	21.020000	81.830000	439.000000	0.000000	154.000000	57.000000	-41.000000	-21.000000
1.980000	20.450000	81.680000	468.000000	0.000000	152.000000	57.000000	-57.000000	-15.000000
1.990000	19.840000	81.580000	493.000000	0.000000	154.000000	57.000000	-61.000000	-10.000000
2.000000	19.260000	81.470000	509.000000	0.000000	154.000000	57.000000	-58.000000	-11.000000
2.010000	18.710000	81.400000	521.000000	0.000000	154.000000	57.000000	-55.000000	-7.000000
2.020000	18.350000	81.400000	521.000000	0.000000	155.000000	58.000000	-36.000000	0.000000
2.030000	18.170000	81.530000	518.000000	0.000000	155.000000	58.000000	-18.000000	13.000000
2.040000	18.100000	81.530000	496.000000	0.000000	157.000000	58.000000	-7.000000	0.000000
2.050000	18.150000	81.530000	450.000000	0.000000	157.000000	58.000000	5.000000	0.000000
2.060000	18.500000	81.530000	361.000000	0.000000	157.000000	58.000000	35.000000	0.000000
2.070000	19.040000	81.610000	218.000000	0.000000	157.000000	58.000000	54.000000	8.000000
2.080000	19.040000	81.610000	0.000000	1.000000	157.000000	58.000000	0.000000	0.000000
2.090000	20.450000	81.710000	0.000000	0.000000	157.000000	58.000000	141.000000	10.000000
2.100000	21.080000	81.620000	0.000000	0.000000	155.000000	58.000000	63.000000	-9.000000
2.110000	21.530000	81.470000	0.000000	0.000000	154.000000	58.000000	45.000000	-15.000000
2.120000	21.830000	81.300000	0.000000	0.000000	153.000000	58.000000	30.000000	-17.000000
2.130000	22.020000	81.100000	0.000000	0.000000	153.000000	58.000000	19.000000	-20.000000
2.140000	22.020000	80.850000	0.000000	0.000000	150.000000	58.000000	0.000000	-25.000000
2.150000	22.020000	80.610000	0.000000	0.000000	150.000000	58.000000	0.000000	-24.000000
2.160000	21.960000	80.400000	0.000000	0.000000	150.000000	58.000000	-6.000000	-21.000000
2.170000	21.960000	80.210000	0.000000	0.000000	147.000000	59.000000	0.000000	-19.000000
2.180000	21.960000	80.040000	0.000000	0.000000	147.000000	59.000000	0.000000	-17.000000
2.190000	22.010000	79.930000	0.000000	0.000000	146.000000	60.000000	5.000000	-11.000000
2.200000	22.100000	79.870000	0.000000	0.000000	145.000000	59.000000	9.000000	-6.000000
2.210000	22.200000	79.780000	0.000000	0.000000	144.000000	60.000000	10.000000	-9.000000
2.220000	22.300000	79.710000	0.000000	0.000000	144.000000	60.000000	10.000000	-7.000000
