t	x	y	pressure	penup	azimuth	inclination	v_x	v_y
0.000000	21.660000	78.980000	186.000000	1.000000	155.000000	62.000000	0.000000	0.000000
0.010000	21.460000	78.720000	244.000000	0.000000	154.000000	63.000000	-20.000000	-26.000000
0.020000	21.380000	78.720000	262.000000	0.000000	153.000000	63.000000	-8.000000	0.000000
0.030000	21.380000	78.850000	325.000000	0.000000	151.000000	64.000000	0.000000	13.000000
0.040000	21.490000	78.850000	404.000000	0.000000	151.000000	64.000000	11.000000	0.000000
0.050000	21.690000	78.850000	477.000000	0.000000	150.000000	65.000000	20.000000	0.000000
0.060000	22.160000	78.850000	532.000000	0.000000	150.000000	65.000000	47.000000	0.000000
0.070000	22.790000	78.990000	575.000000	0.000000	150.000000	65.000000	63.000000	14.000000
0.080000	23.550000	79.290000	603.000000	0.000000	150.000000	65.000000	76.000000	30.000000
0.090000	24.350000	79.680000	616.000000	0.000000	149.000000	66.000000	80.000000	39.000000
0.100000	25.230000	80.020000	619.000000	0.000000	151.000000	66.000000	88.000000	34.000000
0.110000	25.930000	80.430000	613.000000	0.000000	151.000000	66.000000	70.000000	41.000000
0.120000	26.510000	80.880000	620.000000	0.000000	151.000000	66.000000	58.000000	45.000000
0.130000	26.780000	81.260000	605.000000	0.000000	153.000000	67.000000	27.000000	38.000000
0.140000	26.660000	81.620000	592.000000	0.000000	153.000000	67.000000	-12.000000	36.000000
0.150000	26.270000	81.950000	562.000000	0.000000	153.000000	67.000000	-39.000000	33.000000
0.160000	25.400000	82.220000	524.000000	0.000000	153.000000	67.000000	-87.000000	27.000000
0.170000	24.140000	82.300000	493.000000	0.000000	153.000000	67.000000	-126.000000	8.000000
0.180000	22.620000	82.300000	480.000000	0.000000	153.000000	67.000000	-152.000000	0.000000
0.190000	21.070000	81.990000	497.000000	0.000000	153.000000	67.000000	-155.000000	-31.000000
0.200000	20.000000	81.550000	524.000000	0.000000	153.000000	67.000000	-107.000000	-44.000000
0.210000	19.240000	81.000000	527.000000	0.000000	153.000000	67.000000	-76.000000	-55.000000
0.220000	19.240000	80.610000	559.000000	0.000000	153.000000	67.000000	0.000000	-39.000000
0.230000	19.840000	80.220000	599.000000	0.000000	152.000000	68.000000	60.000000	-39.000000
0.240000	20.850000	79.790000	643.000000	0.000000	152.000000	68.000000	101.000000	-43.000000
0.250000	22.240000	79.330000	678.000000	0.000000	152.000000	68.000000	139.000000	-46.000000
0.260000	23.430000	78.820000	696.000000	0.000000	150.000000	67.000000	119.000000	-51.000000
0.270000	24.490000	78.390000	693.000000	0.000000	150.000000	67.000000	106.000000	-43.000000
0.280000	25.040000	78.010000	672.000000	0.000000	150.000000	67.000000	55.000000	-38.000000
0.290000	25.040000	77.570000	694.000000	0.000000	150.000000	67.000000	0.000000	-44.000000
0.300000	24.690000	77.120000	685.000000	0.000000	150.000000	67.000000	-35.000000	-45.000000
0.310000	23.740000	76.630000	685.000000	0.000000	150.000000	67.000000	-95.000000	-49.000000
0.320000	22.320000	76.120000	684.000000	0.000000	151.000000	66.000000	-142.000000	-51.000000
0.330000	20.580000	75.850000	659.000000	0.000000	153.000000	67.000000	-174.000000	-27.000000
0.340000	18.690000	75.730000	642.000000	0.000000	153.000000	67.000000	-189.000000	-12.000000
0.350000	17.060000	75.730000	656.000000	0.000000	153.000000	67.000000	-163.000000	0.000000
0.360000	15.610000	75.980000	640.000000	0.000000	153.000000	67.000000	-145.000000	25.000000
0.370000	15.330000	76.460000	619.000000	0.000000	153.000000	67.000000	-28.000000	48.000000
0.380000	15.680000	77.050000	619.000000	0.000000	153.000000	67.000000	35.000000	59.000000
0.390000	16.460000	77.880000	599.000000	0.000000	153.000000	67.000000	78.000000	83.000000
0.400000	18.020000	78.880000	574.000000	0.000000	153.000000	67.000000	156.000000	100.000000
0.410000	20.110000	79.860000	583.000000	0.000000	153.000000	67.000000	209.000000	98.000000
0.420000	22.560000	80.840000	584.000000	0.000000	153.000000	67.000000	245.000000	98.000000
0.430000	25.340000	81.440000	583.000000	0.000000	153.000000	67.000000	278.000000	60.000000
0.440000	27.800000	81.780000	586.000000	0.000000	155.000000	67.000000	246.000000	34.000000
0.450000	30.040000	81.870000	594.000000	0.000000	155.000000	67.000000	224.000000	9.000000
0.460000	31.570000	81.740000	578.000000	0.000000	156.000000	66.000000	153.000000	-13.000000
0.470000	32.260000	81.460000	578.000000	0.000000	156.000000	66.000000	69.000000	-28.000000
0.480000	32.380000	81.100000	594.000000	0.000000	156.000000	66.000000	12.000000	-36.000000
0.490000	31.730000	80.490000	595.000000	0.000000	157.000000	65.000000	-65.000000	-61.000000
0.500000	30.330000	79.710000	588.000000	0.000000	157.000000	65.000000	-140.000000	-78.000000
0.510000	28.440000	78.710000	588.000000	0.000000	157.000000	65.000000	-189.000000	-100.000000
0.520000	25.730000	77.660000	640.000000	0.000000	156.000000	66.000000	-271.000000	-105.000000
0.530000	22.300000	76.590000	700.000000	0.000000	156.000000	66.000000	-343.000000	-107.000000
0.540000	18.380000	75.420000	717.000000	0.000000	156.000000	66.000000	-392.000000	-117.000000
0.550000	14.630000	74.270000	710.000000	0.000000	153.000000	67.000000	-375.000000	-115.000000
0.560000	12.130000	73.140000	693.000000	0.000000	153.000000	67.000000	-250.000000	-113.000000
0.570000	10.450000	72.970000	688.000000	0.000000	151.000000	66.000000	-168.000000	-17.000000
0.580000	9.800000	72.970000	670.000000	0.000000	149.000000	66.000000	-65.000000	0.000000
0.590000	9.880000	73.020000	667.000000	0.000000	149.000000	66.000000	8.000000	5.000000
0.600000	10.450000	73.470000	663.000000	0.000000	147.000000	65.000000	57.000000	45.000000
0.610000	11.850000	74.370000	675.000000	0.000000	147.000000	65.000000	140.000000	90.000000
0.620000	14.030000	75.570000	697.000000	0.000000	147.000000	65.000000	218.000000	120.000000
0.630000	16.720000	76.860000	673.000000	0.000000	147.000000	65.000000	269.000000	129.000000
0.640000	20.340000	78.280000	655.000000	0.000000	147.000000	65.000000	362.000000	142.000000
0.650000	24.390000	79.790000	631.000000	0.000000	147.000000	65.000000	405.000000	151.000000
0.660000	28.720000	81.040000	611.000000	0.000000	149.000000	66.000000	433.000000	125.000000
0.670000	32.090000	81.700000	613.000000	0.000000	150.000000	65.000000	337.000000	66.000000
0.680000	34.620000	81.960000	603.000000	0.000000	152.000000	65.000000	253.000000	26.000000
0.690000	36.580000	82.060000	599.000000	0.000000	152.000000	65.000000	196.000000	10.000000
0.700000	37.860000	82.110000	563.000000	0.000000	155.000000	65.000000	128.000000	5.000000
0.710000	38.520000	82.110000	509.000000	0.000000	157.000000	65.000000	66.000000	0.000000
0.720000	38.770000	82.040000	361.000000	0.000000	157.000000	65.000000	25.000000	-7.000000
0.730000	38.690000	82.040000	94.000000	0.000000	160.000000	65.000000	-8.000000	0.000000
0.740000	38.690000	82.040000	0.000000	1.000000	160.000000	65.000000	0.000000	0.000000
0.750000	37.770000	81.990000	0.000000	0.000000	160.000000	65.000000	-92.000000	-5.000000
0.760000	36.950000	81.990000	0.000000	0.000000	160.000000	65.000000	-82.000000	0.000000
0.770000	36.170000	81.920000	0.000000	0.000000	160.000000	65.000000	-78.000000	-7.000000
0.780000	35.410000	81.850000	0.000000	0.000000	160.000000	65.000000	-76.000000	-7.000000
0.790000	34.700000	81.720000	0.000000	0.000000	160.000000	66.000000	-71.000000	-13.000000
0.800000	33.730000	81.540000	0.000000	0.000000	160.000000	66.000000	-97.000000	-18.000000
0.810000	32.590000	81.360000	0.000000	0.000000	160.000000	66.000000	-114.000000	-18.000000
0.820000	31.090000	81.170000	0.000000	0.000000	159.000000	67.000000	-150.000000	-19.000000
0.830000	29.340000	80.930000	0.000000	0.000000	156.000000	66.000000	-175.000000	-24.000000
0.840000	27.430000	80.630000	0.000000	0.000000	153.000000	67.000000	-191.000000	-30.000000
0.850000	25.270000	80.260000	0.000000	0.000000	152.000000	68.000000	-216.000000	-37.000000
0.860000	23.510000	79.830000	0.000000	0.000000	150.000000	67.000000	-176.000000	-43.000000
0.870000	22.010000	79.350000	0.000000	0.000000	146.000000	67.000000	-150.000000	-48.000000
0.880000	20.980000	79.070000	0.000000	0.000000	144.000000	67.000000	-103.000000	-28.000000
0.890000	20.310000	78.930000	0.000000	0.000000	144.000000	67.000000	-67.000000	-14.000000
0.900000	19.880000	78.810000	0.000000	0.000000	144.000000	66.000000	-43.000000	-12.000000
0.910000	19.660000	78.810000	0.000000	0.000000	145.000000	65.000000	-22.000000	0.000000
0.920000	19.600000	78.810000	0.000000	0.000000	145.000000	65.000000	-6.000000	0.000000
0.930000	19.600000	78.810000	0.000000	0.000000	146.000000	64.000000	0.000000	0.000000
0.940000	19.710000	78.870000	0.000000	0.000000	148.000000	63.000000	11.000000	6.000000
0.950000	19.710000	78.870000	0.000000	0.000000	147.000000	62.000000	0.000000	0.000000
0.960000	19.710000	78.930000	0.000000	0.000000	148.000000	61.000000	0.000000	6.000000
0.970000	19.710000	78.930000	0.000000	0.000000	148.000000	61.000000	0.000000	0.000000
0.980000	19.710000	79.000000	0.000000	0.000000	147.000000	62.000000	0.000000	7.000000
0.990000	19.760000	79.070000	0.000000	0.000000	147.000000	62.000000	5.000000	7.000000
1.000000	19.820000	79.170000	0.000000	0.000000	147.000000	62.000000	6.000000	10.000000
1.010000	19.910000	79.250000	0.000000	0.000000	149.000000	63.000000	9.000000	8.000000
1.020000	20.010000	79.300000	0.000000	0.000000	148.000000	63.000000	10.000000	5.000000
1.030000	20.140000	79.300000	0.000000	0.000000	148.000000	63.000000	13.000000	0.000000
1.040000	20.290000	79.410000	0.000000	0.000000	146.000000	64.000000	15.000000	11.000000
1.050000	20.290000	79.410000	180.000000	1.000000	146.000000	64.000000	0.000000	0.000000
1.060000	20.290000	79.410000	255.000000	0.000000	145.000000	65.000000	0.000000	0.000000
1.070000	20.480000	79.680000	348.000000	0.000000	144.000000	66.000000	19.000000	27.000000
1.080000	20.420000	79.680000	441.000000	0.000000	142.000000	66.000000	-6.000000	0.000000
1.090000	20.360000	79.750000	494.000000	0.000000	140.000000	67.000000	-6.000000	7.000000
1.100000	20.280000	79.750000	537.000000	0.000000	140.000000	67.000000	-8.000000	0.000000
1.110000	20.130000	79.660000	542.000000	0.000000	140.000000	67.000000	-15.000000	-9.000000
1.120000	19.920000	79.550000	561.000000	0.000000	140.000000	67.000000	-21.000000	-11.000000
1.130000	19.680000	79.420000	572.000000	0.000000	140.000000	67.000000	-24.000000	-13.000000
1.140000	19.540000	79.270000	575.000000	0.000000	140.000000	67.000000	-14.000000	-15.000000
1.150000	19.390000	79.070000	580.000000	0.000000	140.000000	67.000000	-15.000000	-20.000000
1.160000	19.240000	78.830000	580.000000	0.000000	140.000000	67.000000	-15.000000	-24.000000
1.170000	19.130000	78.530000	580.000000	0.000000	144.000000	67.000000	-11.000000	-30.000000
1.180000	19.030000	78.240000	570.000000	0.000000	144.000000	67.000000	-10.000000	-29.000000
1.190000	18.960000	77.960000	562.000000	0.000000	144.000000	67.000000	-7.000000	-28.000000
1.200000	18.960000	77.840000	551.000000	0.000000	146.000000	66.000000	0.000000	-12.000000
1.210000	18.960000	77.840000	550.000000	0.000000	146.000000	66.000000	0.000000	0.000000
1.220000	19.290000	77.940000	546.000000	0.000000	146.000000	66.000000	33.000000	10.000000
1.230000	19.540000	78.060000	554.000000	0.000000	146.000000	66.000000	25.000000	12.000000
1.240000	19.840000	78.460000	557.000000	0.000000	146.000000	66.000000	30.000000	40.000000
1.250000	20.170000	79.050000	564.000000	0.000000	146.000000	66.000000	33.000000	59.000000
1.260000	20.520000	79.570000	570.000000	0.000000	146.000000	66.000000	35.000000	52.000000
1.270000	20.590000	80.030000	606.000000	0.000000	146.000000	66.000000	7.000000	46.000000
1.280000	20.590000	80.250000	640.000000	0.000000	146.000000	66.000000	0.000000	22.000000
1.290000	20.640000	80.330000	658.000000	0.000000	146.000000	66.000000	5.000000	8.000000
1.300000	20.640000	80.330000	662.000000	0.000000	146.000000	66.000000	0.000000	0.000000
1.310000	20.570000	80.210000	664.000000	0.000000	146.000000	66.000000	-7.000000	-12.000000
1.320000	20.520000	79.960000	661.000000	0.000000	142.000000	66.000000	-5.000000	-25.000000
1.330000	20.440000	79.600000	650.000000	0.000000	142.000000	66.000000	-8.000000	-36.000000
1.340000	20.340000	79.120000	641.000000	0.000000	142.000000	66.000000	-10.000000	-48.000000
1.350000	20.410000	78.880000	611.000000	0.000000	142.000000	66.000000	7.000000	-24.000000
1.360000	20.490000	78.790000	538.000000	0.000000	142.000000	66.000000	8.000000	-9.000000
1.370000	20.560000	78.560000	381.000000	0.000000	144.000000	66.000000	7.000000	-23.000000
1.380000	20.560000	78.430000	34.000000	0.000000	144.000000	66.000000	0.000000	-13.000000
1.390000	20.560000	78.430000	0.000000	1.000000	146.000000	66.000000	0.000000	0.000000
1.400000	20.560000	78.440000	0.000000	0.000000	147.000000	65.000000	0.000000	1.000000
1.410000	20.560000	78.760000	0.000000	0.000000	147.000000	65.000000	0.000000	32.000000
1.420000	20.560000	79.240000	0.000000	0.000000	147.000000	65.000000	0.000000	48.000000
1.430000	20.680000	79.820000	0.000000	0.000000	147.000000	65.000000	12.000000	58.000000
1.440000	20.750000	80.540000	0.000000	0.000000	147.000000	65.000000	7.000000	72.000000
1.450000	21.050000	81.350000	0.000000	0.000000	147.000000	65.000000	30.000000	81.000000
1.460000	21.510000	82.380000	0.000000	0.000000	145.000000	65.000000	46.000000	103.000000
1.470000	21.830000	82.930000	0.000000	0.000000	145.000000	65.000000	32.000000	55.000000
1.480000	21.830000	82.930000	267.000000	1.000000	145.000000	65.000000	0.000000	0.000000
1.490000	21.870000	83.230000	337.000000	0.000000	145.000000	65.000000	4.000000	30.000000
1.500000	21.800000	83.290000	398.000000	0.000000	145.000000	65.000000	-7.000000	6.000000
1.510000	21.800000	83.290000	466.000000	0.000000	145.000000	65.000000	0.000000	0.000000
1.520000	21.800000	83.290000	509.000000	0.000000	146.000000	64.000000	0.000000	0.000000
1.530000	21.800000	83.290000	535.000000	0.000000	148.000000	63.000000	0.000000	0.000000
1.540000	21.750000	82.820000	537.000000	0.000000	148.000000	63.000000	-5.000000	-47.000000
1.550000	21.750000	82.380000	543.000000	0.000000	148.000000	63.000000	0.000000	-44.000000
1.560000	21.700000	81.760000	540.000000	0.000000	148.000000	63.000000	-5.000000	-62.000000
1.570000	21.640000	81.140000	544.000000	0.000000	148.000000	63.000000	-6.000000	-62.000000
1.580000	21.580000	80.500000	518.000000	0.000000	148.000000	63.000000	-6.000000	-64.000000
1.590000	21.510000	79.850000	488.000000	0.000000	146.000000	64.000000	-7.000000	-65.000000
1.600000	21.590000	79.380000	407.000000	0.000000	146.000000	64.000000	8.000000	-47.000000
1.610000	21.590000	79.050000	274.000000	0.000000	146.000000	64.000000	0.000000	-33.000000
1.620000	21.590000	78.860000	41.000000	0.000000	146.000000	64.000000	0.000000	-19.000000
1.630000	21.590000	78.860000	0.000000	1.000000	146.000000	64.000000	0.000000	0.000000
1.640000	21.590000	78.970000	0.000000	0.000000	146.000000	64.000000	0.000000	11.000000
1.650000	21.590000	79.300000	0.000000	0.000000	145.000000	65.000000	0.000000	33.000000
1.660000	21.730000	79.820000	0.000000	0.000000	145.000000	65.000000	14.000000	52.000000
1.670000	21.880000	80.480000	0.000000	0.000000	145.000000	65.000000	15.000000	66.000000
1.680000	22.050000	81.170000	0.000000	0.000000	145.000000	65.000000	17.000000	69.000000
1.690000	22.260000	81.880000	0.000000	0.000000	145.000000	65.000000	21.000000	71.000000
1.700000	22.540000	82.610000	0.000000	0.000000	145.000000	65.000000	28.000000	73.000000
1.710000	22.540000	82.610000	241.000000	1.000000	145.000000	65.000000	0.000000	0.000000
1.720000	22.910000	83.800000	329.000000	0.000000	145.000000	65.000000	37.000000	119.000000
1.730000	22.910000	83.890000	399.000000	0.000000	145.000000	65.000000	0.000000	9.000000
1.740000	22.850000	83.890000	443.000000	0.000000	148.000000	65.000000	-6.000000	0.000000
1.750000	22.850000	83.780000	463.000000	0.000000	148.000000	65.000000	0.000000	-11.000000
1.760000	22.850000	83.680000	475.000000	0.000000	150.000000	64.000000	0.000000	-10.000000
1.770000	22.850000	83.320000	496.000000	0.000000	150.000000	64.000000	0.000000	-36.000000
1.780000	22.850000	82.810000	494.000000	0.000000	150.000000	64.000000	0.000000	-51.000000
1.790000	22.790000	82.220000	515.000000	0.000000	151.000000	63.000000	-6.000000	-59.000000
1.800000	22.790000	81.550000	516.000000	0.000000	149.000000	63.000000	0.000000	-67.000000
1.810000	22.680000	80.840000	521.000000	0.000000	148.000000	63.000000	-11.000000	-71.000000
1.820000	22.580000	80.280000	522.000000	0.000000	148.000000	63.000000	-10.000000	-56.000000
1.830000	22.320000	79.670000	496.000000	0.000000	148.000000	63.000000	-26.000000	-61.000000
1.840000	21.960000	79.190000	475.000000	0.000000	146.000000	64.000000	-36.000000	-48.000000
1.850000	21.600000	78.800000	467.000000	0.000000	146.000000	64.000000	-36.000000	-39.000000
1.860000	21.500000	78.800000	465.000000	0.000000	146.000000	64.000000	-10.000000	0.000000
1.870000	21.580000	78.890000	465.000000	0.000000	148.000000	65.000000	8.000000	9.000000
1.880000	21.690000	79.100000	452.000000	0.000000	148.000000	65.000000	11.000000	21.000000
1.890000	21.840000	79.520000	446.000000	0.000000	148.000000	65.000000	15.000000	42.000000
1.900000	22.110000	80.030000	440.000000	0.000000	148.000000	65.000000	27.000000	51.000000
1.910000	22.450000	80.600000	422.000000	0.000000	148.000000	65.000000	34.000000	57.000000
1.920000	22.780000	80.920000	422.000000	0.000000	148.000000	65.000000	33.000000	32.000000
1.930000	23.070000	81.100000	420.000000	0.000000	147.000000	65.000000	29.000000	18.000000
1.940000	23.310000	81.190000	418.000000	0.000000	147.000000	65.000000	24.000000	9.000000
1.950000	23.590000	81.190000	418.000000	0.000000	145.000000	65.000000	28.000000	0.000000
1.960000	23.770000	81.190000	414.000000	0.000000	145.000000	65.000000	18.000000	0.000000
1.970000	23.880000	81.130000	422.000000	0.000000	145.000000	65.000000	11.000000	-6.000000
1.980000	23.880000	81.020000	430.000000	0.000000	147.000000	65.000000	0.000000	-11.000000
1.990000	23.880000	81.020000	440.000000	0.000000	147.000000	65.000000	0.000000	0.000000
2.000000	23.520000	80.620000	439.000000	0.000000	147.000000	65.000000	-36.000000	-40.000000
2.010000	23.180000	80.330000	448.000000	0.000000	147.000000	65.000000	-34.000000	-29.000000
2.020000	22.840000	80.060000	440.000000	0.000000	147.000000	65.000000	-34.000000	-27.000000
2.030000	22.660000	79.930000	415.000000	0.000000	146.000000	66.000000	-18.000000	-13.000000
2.040000	22.580000	79.930000	398.000000	0.000000	144.000000	66.000000	-8.000000	0.000000
2.050000	22.630000	79.930000	356.000000	0.000000	144.000000	66.000000	5.000000	0.000000
2.060000	22.690000	79.930000	339.000000	0.000000	144.000000	66.000000	6.000000	0.000000
2.070000	22.790000	79.930000	344.000000	0.000000	142.000000	66.000000	10.000000	0.000000
2.080000	22.960000	79.930000	342.000000	0.000000	142.000000	66.000000	17.000000	0.000000
2.090000	23.210000	80.010000	340.000000	0.000000	142.000000	66.000000	25.000000	8.000000
2.100000	23.550000	80.250000	333.000000	0.000000	142.000000	66.000000	34.000000	24.000000
2.110000	23.940000	80.440000	330.000000	0.000000	142.000000	66.000000	39.000000	19.000000
2.120000	24.180000	80.610000	333.000000	0.000000	142.000000	66.000000	24.000000	17.000000
2.130000	24.430000	80.830000	348.000000	0.000000	144.000000	66.000000	25.000000	22.000000
2.140000	24.590000	81.090000	361.000000	0.000000	144.000000	66.000000	16.000000	26.000000
2.150000	24.700000	81.250000	404.000000	0.000000	146.000000	66.000000	11.000000	16.000000
2.160000	24.700000	81.370000	440.000000	0.000000	146.000000	66.000000	0.000000	12.000000
2.170000	24.700000	81.430000	452.000000	0.000000	146.000000	66.000000	0.000000	6.000000
2.180000	24.700000	81.430000	465.000000	0.000000	147.000000	65.000000	0.000000	0.000000
2.190000	24.640000	81.430000	467.000000	0.000000	147.000000	65.000000	-6.000000	0.000000
2.200000	24.530000	81.430000	474.000000	0.000000	147.000000	65.000000	-11.000000	0.000000
