t	x	y	pressure	penup	azimuth	inclination	v_x	v_y
0.000000	19.930000	34.530000	101.000000	1.000000	130.000000	54.000000	0.000000	0.000000
0.010000	20.700000	34.020000	134.000000	0.000000	131.000000	55.000000	77.000000	-51.000000
0.020000	20.430000	33.620000	193.000000	0.000000	131.000000	55.000000	-27.000000	-40.000000
0.030000	20.430000	32.540000	269.000000	0.000000	132.000000	55.000000	0.000000	-108.000000
0.040000	20.700000	31.020000	373.000000	0.000000	132.000000	55.000000	27.000000	-152.000000
0.050000	20.820000	29.400000	446.000000	0.000000	131.000000	56.000000	12.000000	-162.000000
0.060000	20.940000	27.860000	488.000000	0.000000	132.000000	57.000000	12.000000	-154.000000
0.070000	21.060000	26.380000	512.000000	0.000000	131.000000	57.000000	12.000000	-148.000000
0.080000	21.260000	25.340000	537.000000	0.000000	130.000000	58.000000	20.000000	-104.000000
0.090000	21.460000	24.640000	561.000000	0.000000	131.000000	58.000000	20.000000	-70.000000
0.100000	21.600000	24.160000	574.000000	0.000000	129.000000	59.000000	14.000000	-48.000000
0.110000	21.690000	23.930000	585.000000	0.000000	129.000000	60.000000	9.000000	-23.000000
0.120000	21.690000	23.930000	611.000000	0.000000	126.000000	61.000000	0.000000	0.000000
0.130000	21.540000	24.060000	633.000000	0.000000	126.000000	62.000000	-15.000000	13.000000
0.140000	21.290000	24.390000	631.000000	0.000000	126.000000	62.000000	-25.000000	33.000000
0.150000	20.760000	24.820000	636.000000	0.000000	126.000000	62.000000	-53.000000	43.000000
0.160000	20.170000	25.310000	644.000000	0.000000	126.000000	62.000000	-59.000000	49.000000
0.170000	19.540000	25.600000	636.000000	0.000000	126.000000	62.000000	-63.000000	29.000000
0.180000	18.640000	25.690000	627.000000	0.000000	124.000000	62.000000	-90.000000	9.000000
0.190000	17.490000	25.690000	628.000000	0.000000	124.000000	62.000000	-115.000000	0.000000
0.200000	16.170000	25.390000	647.000000	0.000000	124.000000	62.000000	-132.000000	-30.000000
0.210000	14.940000	25.130000	644.000000	0.000000	124.000000	62.000000	-123.000000	-26.000000
0.220000	14.010000	24.870000	661.000000	0.000000	126.000000	62.000000	-93.000000	-26.000000
0.230000	13.270000	24.720000	662.000000	0.000000	126.000000	62.000000	-74.000000	-15.000000
0.240000	12.890000	24.620000	672.000000	0.000000	127.000000	63.000000	-38.000000	-10.000000
0.250000	12.800000	24.620000	673.000000	0.000000	129.000000	63.000000	-9.000000	0.000000
0.260000	12.890000	24.700000	663.000000	0.000000	130.000000	63.000000	9.000000	8.000000
0.270000	13.040000	24.700000	668.000000	0.000000	132.000000	64.000000	15.000000	0.000000
0.280000	13.570000	24.700000	664.000000	0.000000	132.000000	64.000000	53.000000	0.000000
0.290000	14.350000	24.840000	668.000000	0.000000	133.000000	63.000000	78.000000	14.000000
0.300000	15.750000	25.110000	682.000000	0.000000	133.000000	63.000000	140.000000	27.000000
0.310000	17.880000	25.680000	691.000000	0.000000	133.000000	63.000000	213.000000	57.000000
0.320000	20.500000	26.380000	719.000000	0.000000	132.000000	63.000000	262.000000	70.000000
0.330000	23.620000	27.170000	727.000000	0.000000	132.000000	63.000000	312.000000	79.000000
0.340000	26.640000	28.150000	763.000000	0.000000	130.000000	62.000000	302.000000	98.000000
0.350000	29.590000	28.890000	777.000000	0.000000	130.000000	62.000000	295.000000	74.000000
0.360000	32.480000	29.470000	788.000000	0.000000	131.000000	61.000000	289.000000	58.000000
0.370000	34.830000	29.990000	824.000000	0.000000	131.000000	61.000000	235.000000	52.000000
0.380000	36.820000	30.330000	834.000000	0.000000	132.000000	60.000000	199.000000	34.000000
0.390000	38.150000	30.560000	836.000000	0.000000	132.000000	59.000000	133.000000	23.000000
0.400000	38.960000	30.680000	843.000000	0.000000	132.000000	59.000000	81.000000	12.000000
0.410000	39.420000	30.770000	837.000000	0.000000	134.000000	58.000000	46.000000	9.000000
0.420000	39.530000	30.770000	817.000000	0.000000	134.000000	58.000000	11.000000	0.000000
0.430000	39.530000	30.820000	720.000000	0.000000	134.000000	58.000000	0.000000	5.000000
0.440000	39.380000	30.820000	329.000000	0.000000	135.000000	58.000000	-15.000000	0.000000
0.450000	39.380000	30.820000	0.000000	1.000000	135.000000	58.000000	0.000000	0.000000
0.460000	38.300000	30.820000	0.000000	0.000000	135.000000	58.000000	-108.000000	0.000000
0.470000	37.230000	30.820000	0.000000	0.000000	135.000000	58.000000	-107.000000	0.000000
0.480000	35.680000	30.820000	0.000000	0.000000	135.000000	58.000000	-155.000000	0.000000
0.490000	34.030000	30.720000	0.000000	0.000000	135.000000	59.000000	-165.000000	-10.000000
0.500000	32.310000	30.590000	0.000000	0.000000	135.000000	59.000000	-172.000000	-13.000000
0.510000	30.550000	30.410000	0.000000	0.000000	134.000000	58.000000	-176.000000	-18.000000
0.520000	28.970000	30.210000	0.000000	0.000000	134.000000	58.000000	-158.000000	-20.000000
0.530000	27.470000	29.970000	0.000000	0.000000	132.000000	58.000000	-150.000000	-24.000000
0.540000	25.970000	29.720000	0.000000	0.000000	132.000000	58.000000	-150.000000	-25.000000
0.550000	24.860000	29.460000	0.000000	0.000000	130.000000	58.000000	-111.000000	-26.000000
0.560000	24.220000	29.310000	0.000000	0.000000	130.000000	58.000000	-64.000000	-15.000000
0.570000	23.880000	29.240000	0.000000	0.000000	128.000000	57.000000	-34.000000	-7.000000
0.580000	23.200000	29.320000	0.000000	0.000000	128.000000	57.000000	-68.000000	8.000000
0.590000	22.840000	29.440000	0.000000	0.000000	127.000000	56.000000	-36.000000	12.000000
0.600000	22.680000	29.600000	0.000000	0.000000	128.000000	57.000000	-16.000000	16.000000
0.610000	22.450000	29.690000	0.000000	0.000000	128.000000	57.000000	-23.000000	9.000000
0.620000	22.350000	29.780000	0.000000	0.000000	128.000000	57.000000	-10.000000	9.000000
0.630000	22.350000	29.850000	0.000000	0.000000	128.000000	57.000000	0.000000	7.000000
0.640000	22.350000	29.910000	0.000000	0.000000	127.000000	56.000000	0.000000	6.000000
0.650000	22.350000	29.910000	0.000000	0.000000	127.000000	56.000000	0.000000	0.000000
0.660000	22.350000	30.020000	0.000000	0.000000	127.000000	56.000000	0.000000	11.000000
0.670000	22.290000	30.140000	0.000000	0.000000	126.000000	56.000000	-6.000000	12.000000
0.680000	22.190000	30.270000	0.000000	0.000000	126.000000	56.000000	-10.000000	13.000000
0.690000	22.060000	30.400000	0.000000	0.000000	126.000000	56.000000	-13.000000	13.000000
0.700000	21.850000	30.510000	0.000000	0.000000	126.000000	56.000000	-21.000000	11.000000
0.710000	21.640000	30.630000	0.000000	0.000000	126.000000	56.000000	-21.000000	12.000000
0.720000	21.390000	30.760000	0.000000	0.000000	127.000000	55.000000	-25.000000	13.000000
0.730000	21.120000	30.900000	0.000000	0.000000	127.000000	55.000000	-27.000000	14.000000
0.740000	20.920000	31.160000	0.000000	0.000000	127.000000	55.000000	-20.000000	26.000000
0.750000	20.780000	31.500000	0.000000	0.000000	126.000000	54.000000	-14.000000	34.000000
0.760000	20.730000	31.620000	0.000000	0.000000	127.000000	55.000000	-5.000000	12.000000
0.770000	20.730000	32.340000	0.000000	0.000000	127.000000	55.000000	0.000000	72.000000
0.780000	20.880000	33.450000	0.000000	0.000000	127.000000	55.000000	15.000000	111.000000
0.790000	20.880000	33.450000	125.000000	1.000000	127.000000	55.000000	0.000000	0.000000
0.800000	21.190000	34.620000	267.000000	0.000000	127.000000	55.000000	31.000000	117.000000
0.810000	21.190000	34.960000	333.000000	0.000000	129.000000	56.000000	0.000000	34.000000
0.820000	21.070000	35.050000	398.000000	0.000000	127.000000	56.000000	-12.000000	9.000000
0.830000	21.070000	34.960000	417.000000	0.000000	127.000000	56.000000	0.000000	-9.000000
0.840000	21.070000	34.760000	455.000000	0.000000	128.000000	57.000000	0.000000	-20.000000
0.850000	21.070000	34.130000	490.000000	0.000000	128.000000	57.000000	0.000000	-63.000000
0.860000	21.020000	32.950000	529.000000	0.000000	128.000000	57.000000	-5.000000	-118.000000
0.870000	21.120000	31.400000	592.000000	0.000000	128.000000	57.000000	10.000000	-155.000000
0.880000	21.210000	30.030000	641.000000	0.000000	128.000000	57.000000	9.000000	-137.000000
0.890000	21.340000	28.880000	667.000000	0.000000	128.000000	57.000000	13.000000	-115.000000
0.900000	21.540000	27.870000	675.000000	0.000000	131.000000	57.000000	20.000000	-101.000000
0.910000	21.810000	27.100000	682.000000	0.000000	130.000000	58.000000	27.000000	-77.000000
0.920000	22.100000	26.700000	693.000000	0.000000	130.000000	58.000000	29.000000	-40.000000
0.930000	22.370000	26.550000	691.000000	0.000000	128.000000	58.000000	27.000000	-15.000000
0.940000	22.620000	26.660000	700.000000	0.000000	128.000000	58.000000	25.000000	11.000000
0.950000	22.880000	27.250000	717.000000	0.000000	127.000000	59.000000	26.000000	59.000000
0.960000	23.120000	28.160000	719.000000	0.000000	127.000000	59.000000	24.000000	91.000000
0.970000	23.250000	29.230000	727.000000	0.000000	127.000000	59.000000	13.000000	107.000000
0.980000	23.300000	30.250000	721.000000	0.000000	127.000000	59.000000	5.000000	102.000000
0.990000	23.300000	30.920000	725.000000	0.000000	127.000000	59.000000	0.000000	67.000000
1.000000	23.180000	31.380000	728.000000	0.000000	127.000000	59.000000	-12.000000	46.000000
1.010000	23.060000	31.680000	758.000000	0.000000	128.000000	58.000000	-12.000000	30.000000
1.020000	23.000000	31.750000	757.000000	0.000000	130.000000	58.000000	-6.000000	7.000000
1.030000	22.950000	31.670000	759.000000	0.000000	130.000000	58.000000	-5.000000	-8.000000
1.040000	22.950000	31.490000	759.000000	0.000000	131.000000	57.000000	0.000000	-18.000000
1.050000	22.860000	31.030000	757.000000	0.000000	131.000000	57.000000	-9.000000	-46.000000
1.060000	22.790000	30.380000	757.000000	0.000000	132.000000	58.000000	-7.000000	-65.000000
1.070000	22.930000	29.790000	759.000000	0.000000	134.000000	57.000000	14.000000	-59.000000
1.080000	23.090000	29.210000	757.000000	0.000000	134.000000	57.000000	16.000000	-58.000000
1.090000	23.290000	28.630000	760.000000	0.000000	132.000000	58.000000	20.000000	-58.000000
1.100000	23.510000	28.240000	760.000000	0.000000	132.000000	58.000000	22.000000	-39.000000
1.110000	23.760000	27.970000	759.000000	0.000000	132.000000	58.000000	25.000000	-27.000000
1.120000	24.050000	27.780000	751.000000	0.000000	131.000000	58.000000	29.000000	-19.000000
1.130000	24.370000	27.980000	754.000000	0.000000	131.000000	58.000000	32.000000	20.000000
1.140000	24.700000	28.430000	746.000000	0.000000	131.000000	58.000000	33.000000	45.000000
1.150000	24.890000	29.060000	746.000000	0.000000	129.000000	59.000000	19.000000	63.000000
1.160000	24.980000	29.680000	748.000000	0.000000	129.000000	59.000000	9.000000	62.000000
1.170000	24.980000	30.260000	758.000000	0.000000	129.000000	59.000000	0.000000	58.000000
1.180000	24.900000	30.620000	758.000000	0.000000	129.000000	59.000000	-8.000000	36.000000
1.190000	24.740000	30.850000	765.000000	0.000000	129.000000	59.000000	-16.000000	23.000000
1.200000	24.650000	30.850000	770.000000	0.000000	129.000000	59.000000	-9.000000	0.000000
1.210000	24.600000	30.850000	760.000000	0.000000	131.000000	58.000000	-5.000000	0.000000
1.220000	24.600000	30.650000	760.000000	0.000000	131.000000	58.000000	0.000000	-20.000000
1.230000	24.600000	30.270000	757.000000	0.000000	131.000000	58.000000	0.000000	-38.000000
1.240000	24.540000	29.670000	753.000000	0.000000	132.000000	58.000000	-6.000000	-60.000000
1.250000	24.720000	29.070000	755.000000	0.000000	132.000000	58.000000	18.000000	-60.000000
1.260000	25.020000	28.610000	755.000000	0.000000	134.000000	58.000000	30.000000	-46.000000
1.270000	25.540000	28.260000	746.000000	0.000000	134.000000	58.000000	52.000000	-35.000000
1.280000	26.090000	28.210000	736.000000	0.000000	132.000000	59.000000	55.000000	-5.000000
1.290000	26.660000	28.350000	722.000000	0.000000	132.000000	59.000000	57.000000	14.000000
1.300000	27.070000	28.620000	725.000000	0.000000	132.000000	59.000000	41.000000	27.000000
1.310000	27.370000	29.130000	714.000000	0.000000	131.000000	60.000000	30.000000	51.000000
1.320000	27.460000	29.790000	710.000000	0.000000	129.000000	59.000000	9.000000	66.000000
1.330000	27.460000	30.540000	727.000000	0.000000	129.000000	59.000000	0.000000	75.000000
1.340000	27.330000	31.160000	730.000000	0.000000	129.000000	59.000000	-13.000000	62.000000
1.350000	27.150000	31.470000	745.000000	0.000000	130.000000	58.000000	-18.000000	31.000000
1.360000	26.960000	31.570000	757.000000	0.000000	130.000000	58.000000	-19.000000	10.000000
1.370000	26.750000	31.480000	763.000000	0.000000	130.000000	58.000000	-21.000000	-9.000000
1.380000	26.470000	30.830000	776.000000	0.000000	130.000000	58.000000	-28.000000	-65.000000
1.390000	26.240000	29.820000	799.000000	0.000000	130.000000	58.000000	-23.000000	-101.000000
1.400000	26.120000	28.450000	837.000000	0.000000	130.000000	58.000000	-12.000000	-137.000000
1.410000	25.970000	27.020000	853.000000	0.000000	131.000000	58.000000	-15.000000	-143.000000
1.420000	25.800000	25.560000	855.000000	0.000000	129.000000	59.000000	-17.000000	-146.000000
1.430000	25.710000	24.500000	854.000000	0.000000	129.000000	60.000000	-9.000000	-106.000000
1.440000	25.850000	23.840000	768.000000	0.000000	128.000000	61.000000	14.000000	-66.000000
1.450000	26.150000	23.440000	591.000000	0.000000	127.000000	62.000000	30.000000	-40.000000
1.460000	26.330000	23.500000	46.000000	0.000000	126.000000	62.000000	18.000000	6.000000
1.470000	26.330000	23.500000	0.000000	1.000000	126.000000	62.000000	0.000000	0.000000
1.480000	26.790000	24.770000	0.000000	0.000000	124.000000	63.000000	46.000000	127.000000
1.490000	26.970000	25.630000	0.000000	0.000000	123.000000	62.000000	18.000000	86.000000
1.500000	27.080000	26.580000	0.000000	0.000000	121.000000	63.000000	11.000000	95.000000
1.510000	27.180000	27.600000	0.000000	0.000000	122.000000	61.000000	10.000000	102.000000
1.520000	27.270000	28.630000	0.000000	0.000000	122.000000	61.000000	9.000000	103.000000
1.530000	27.350000	29.490000	0.000000	0.000000	123.000000	61.000000	8.000000	86.000000
1.540000	27.410000	30.230000	0.000000	0.000000	122.000000	60.000000	6.000000	74.000000
1.550000	27.410000	30.850000	0.000000	0.000000	124.000000	60.000000	0.000000	62.000000
1.560000	27.410000	30.850000	398.000000	1.000000	125.000000	59.000000	0.000000	0.000000
1.570000	27.410000	31.360000	475.000000	0.000000	127.000000	59.000000	0.000000	51.000000
1.580000	27.260000	31.410000	544.000000	0.000000	128.000000	58.000000	-15.000000	5.000000
1.590000	27.260000	31.410000	588.000000	0.000000	128.000000	58.000000	0.000000	0.000000
1.600000	27.260000	31.230000	637.000000	0.000000	130.000000	58.000000	0.000000	-18.000000
1.610000	27.260000	30.940000	668.000000	0.000000	130.000000	58.000000	0.000000	-29.000000
1.620000	27.390000	30.460000	673.000000	0.000000	130.000000	58.000000	13.000000	-48.000000
1.630000	27.550000	29.930000	684.000000	0.000000	131.000000	57.000000	16.000000	-53.000000
1.640000	27.770000	29.410000	693.000000	0.000000	131.000000	57.000000	22.000000	-52.000000
1.650000	28.070000	28.900000	700.000000	0.000000	131.000000	57.000000	30.000000	-51.000000
1.660000	28.460000	28.610000	696.000000	0.000000	131.000000	57.000000	39.000000	-29.000000
1.670000	28.920000	28.610000	696.000000	0.000000	131.000000	57.000000	46.000000	0.000000
1.680000	29.340000	28.770000	697.000000	0.000000	130.000000	58.000000	42.000000	16.000000
1.690000	29.690000	29.080000	696.000000	0.000000	130.000000	58.000000	35.000000	31.000000
1.700000	29.980000	29.540000	699.000000	0.000000	130.000000	58.000000	29.000000	46.000000
1.710000	30.150000	30.090000	693.000000	0.000000	130.000000	58.000000	17.000000	55.000000
1.720000	30.210000	30.570000	717.000000	0.000000	130.000000	58.000000	6.000000	48.000000
1.730000	30.210000	31.000000	727.000000	0.000000	130.000000	58.000000	0.000000	43.000000
1.740000	30.090000	31.340000	761.000000	0.000000	130.000000	58.000000	-12.000000	34.000000
1.750000	29.940000	31.560000	776.000000	0.000000	130.000000	58.000000	-15.000000	22.000000
1.760000	29.770000	31.690000	791.000000	0.000000	130.000000	58.000000	-17.000000	13.000000
1.770000	29.670000	31.690000	803.000000	0.000000	130.000000	58.000000	-10.000000	0.000000
1.780000	29.590000	31.590000	797.000000	0.000000	130.000000	58.000000	-8.000000	-10.000000
1.790000	29.590000	31.450000	799.000000	0.000000	132.000000	58.000000	0.000000	-14.000000
1.800000	29.540000	31.100000	800.000000	0.000000	132.000000	58.000000	-5.000000	-35.000000
1.810000	29.610000	30.630000	800.000000	0.000000	132.000000	58.000000	7.000000	-47.000000
1.820000	29.770000	30.180000	799.000000	0.000000	132.000000	58.000000	16.000000	-45.000000
1.830000	30.040000	29.870000	797.000000	0.000000	132.000000	58.000000	27.000000	-31.000000
1.840000	30.390000	29.660000	800.000000	0.000000	132.000000	58.000000	35.000000	-21.000000
1.850000	30.820000	29.600000	802.000000	0.000000	132.000000	58.000000	43.000000	-6.000000
1.860000	31.260000	29.720000	800.000000	0.000000	132.000000	58.000000	44.000000	12.000000
1.870000	31.700000	29.970000	808.000000	0.000000	132.000000	58.000000	44.000000	25.000000
1.880000	32.010000	30.390000	814.000000	0.000000	131.000000	58.000000	31.000000	42.000000
1.890000	32.250000	30.870000	812.000000	0.000000	131.000000	58.000000	24.000000	48.000000
1.900000	32.430000	31.380000	818.000000	0.000000	131.000000	58.000000	18.000000	51.000000
1.910000	32.430000	31.770000	824.000000	0.000000	131.000000	58.000000	0.000000	39.000000
1.920000	32.430000	32.120000	827.000000	0.000000	131.000000	58.000000	0.000000	35.000000
1.930000	32.330000	32.370000	828.000000	0.000000	132.000000	59.000000	-10.000000	25.000000
1.940000	32.230000	32.460000	818.000000	0.000000	132.000000	59.000000	-10.000000	9.000000
1.950000	32.090000	32.460000	826.000000	0.000000	132.000000	59.000000	-14.000000	0.000000
1.960000	31.920000	32.350000	808.000000	0.000000	132.000000	59.000000	-17.000000	-11.000000
1.970000	31.820000	32.060000	799.000000	0.000000	132.000000	59.000000	-10.000000	-29.000000
1.980000	31.760000	31.650000	797.000000	0.000000	132.000000	59.000000	-6.000000	-41.000000
1.990000	31.760000	31.150000	785.000000	0.000000	132.000000	59.000000	0.000000	-50.000000
2.000000	31.890000	30.650000	774.000000	0.000000	132.000000	59.000000	13.000000	-50.000000
2.010000	32.070000	30.130000	771.000000	0.000000	132.000000	59.000000	18.000000	-52.000000
2.020000	32.380000	29.780000	770.000000	0.000000	134.000000	58.000000	31.000000	-35.000000
2.030000	32.740000	29.560000	774.000000	0.000000	134.000000	58.000000	36.000000	-22.000000
2.040000	33.170000	29.560000	762.000000	0.000000	134.000000	58.000000	43.000000	0.000000
2.050000	33.550000	29.920000	757.000000	0.000000	132.000000	58.000000	38.000000	36.000000
2.060000	33.890000	30.440000	754.000000	0.000000	131.000000	58.000000	34.000000	52.000000
2.070000	34.080000	31.180000	760.000000	0.000000	131.000000	58.000000	19.000000	74.000000
2.080000	34.130000	32.150000	784.000000	0.000000	131.000000	58.000000	5.000000	97.000000
2.090000	34.080000	33.270000	821.000000	0.000000	131.000000	58.000000	-5.000000	112.000000
2.100000	33.930000	33.940000	860.000000	0.000000	129.000000	59.000000	-15.000000	67.000000
2.110000	33.740000	34.280000	882.000000	0.000000	129.000000	59.000000	-19.000000	34.000000
2.120000	33.520000	34.400000	909.000000	0.000000	129.000000	59.000000	-22.000000	12.000000
2.130000	33.360000	34.400000	896.000000	0.000000	129.000000	59.000000	-16.000000	0.000000
2.140000	33.360000	33.820000	899.000000	0.000000	129.000000	59.000000	0.000000	-58.000000
2.150000	33.420000	32.950000	905.000000	0.000000	129.000000	59.000000	6.000000	-87.000000
2.160000	33.620000	31.900000	906.000000	0.000000	129.000000	59.000000	20.000000	-105.000000
2.170000	33.860000	31.110000	860.000000	0.000000	131.000000	60.000000	24.000000	-79.000000
2.180000	34.240000	30.490000	770.000000	0.000000	131.000000	60.000000	38.000000	-62.000000
2.190000	34.690000	29.990000	620.000000	0.000000	131.000000	60.000000	45.000000	-50.000000
2.200000	35.060000	29.850000	196.000000	0.000000	131.000000	60.000000	37.000000	-14.000000
