t	x	y	pressure	penup	azimuth	inclination	v_x	v_y
0.000000	30.670000	17.260000	54.000000	1.000000	121.000000	63.000000	0.000000	0.000000
0.010000	31.310000	17.130000	70.000000	0.000000	123.000000	62.000000	64.000000	-13.000000
0.020000	31.590000	17.130000	96.000000	0.000000	123.000000	62.000000	28.000000	0.000000
0.030000	31.930000	17.200000	155.000000	0.000000	123.000000	62.000000	34.000000	7.000000
0.040000	32.180000	17.310000	211.000000	0.000000	123.000000	62.000000	25.000000	11.000000
0.050000	32.380000	17.450000	269.000000	0.000000	124.000000	62.000000	20.000000	14.000000
0.060000	32.510000	17.570000	334.000000	0.000000	124.000000	62.000000	13.000000	12.000000
0.070000	32.510000	17.690000	371.000000	0.000000	124.000000	62.000000	0.000000	12.000000
0.080000	32.460000	17.810000	402.000000	0.000000	124.000000	62.000000	-5.000000	12.000000
0.090000	32.150000	17.910000	412.000000	0.000000	124.000000	62.000000	-31.000000	10.000000
0.100000	31.380000	17.990000	423.000000	0.000000	124.000000	62.000000	-77.000000	8.000000
0.110000	30.290000	17.790000	422.000000	0.000000	124.000000	62.000000	-109.000000	-20.000000
0.120000	28.830000	17.410000	441.000000	0.000000	126.000000	61.000000	-146.000000	-38.000000
0.130000	26.920000	16.600000	472.000000	0.000000	128.000000	61.000000	-191.000000	-81.000000
0.140000	24.720000	15.400000	570.000000	0.000000	129.000000	60.000000	-220.000000	-120.000000
0.150000	22.580000	13.950000	647.000000	0.000000	132.000000	60.000000	-214.000000	-145.000000
0.160000	20.460000	12.220000	663.000000	0.000000	134.000000	60.000000	-212.000000	-173.000000
0.170000	19.140000	10.830000	685.000000	0.000000	134.000000	60.000000	-132.000000	-139.000000
0.180000	18.350000	9.680000	682.000000	0.000000	136.000000	60.000000	-79.000000	-115.000000
0.190000	18.150000	8.920000	682.000000	0.000000	138.000000	59.000000	-20.000000	-76.000000
0.200000	18.480000	8.340000	675.000000	0.000000	139.000000	58.000000	33.000000	-58.000000
0.210000	19.160000	7.890000	678.000000	0.000000	141.000000	59.000000	68.000000	-45.000000
0.220000	20.310000	7.550000	671.000000	0.000000	141.000000	59.000000	115.000000	-34.000000
0.230000	21.880000	7.660000	665.000000	0.000000	139.000000	60.000000	157.000000	11.000000
0.240000	23.720000	8.070000	655.000000	0.000000	139.000000	60.000000	184.000000	41.000000
0.250000	25.790000	8.820000	644.000000	0.000000	139.000000	60.000000	207.000000	75.000000
0.260000	27.860000	9.710000	628.000000	0.000000	138.000000	60.000000	207.000000	89.000000
0.270000	29.900000	10.700000	614.000000	0.000000	135.000000	60.000000	204.000000	99.000000
0.280000	31.620000	11.910000	614.000000	0.000000	132.000000	61.000000	172.000000	121.000000
0.290000	33.160000	13.100000	606.000000	0.000000	130.000000	62.000000	154.000000	119.000000
0.300000	34.100000	14.230000	605.000000	0.000000	126.000000	62.000000	94.000000	113.000000
0.310000	34.490000	15.010000	619.000000	0.000000	124.000000	63.000000	39.000000	78.000000
0.320000	34.490000	15.560000	639.000000	0.000000	124.000000	63.000000	0.000000	55.000000
0.330000	34.150000	15.940000	641.000000	0.000000	124.000000	63.000000	-34.000000	38.000000
0.340000	33.390000	16.130000	644.000000	0.000000	124.000000	63.000000	-76.000000	19.000000
0.350000	32.350000	16.200000	661.000000	0.000000	124.000000	62.000000	-104.000000	7.000000
0.360000	30.770000	15.780000	664.000000	0.000000	126.000000	61.000000	-158.000000	-42.000000
0.370000	29.000000	15.060000	678.000000	0.000000	128.000000	61.000000	-177.000000	-72.000000
0.380000	27.100000	14.140000	724.000000	0.000000	128.000000	61.000000	-190.000000	-92.000000
0.390000	25.140000	12.920000	753.000000	0.000000	129.000000	60.000000	-196.000000	-122.000000
0.400000	23.970000	11.880000	770.000000	0.000000	131.000000	61.000000	-117.000000	-104.000000
0.410000	23.320000	10.950000	760.000000	0.000000	131.000000	61.000000	-65.000000	-93.000000
0.420000	23.320000	10.410000	749.000000	0.000000	131.000000	61.000000	0.000000	-54.000000
0.430000	23.880000	10.000000	728.000000	0.000000	129.000000	61.000000	56.000000	-41.000000
0.440000	24.900000	9.680000	714.000000	0.000000	130.000000	62.000000	102.000000	-32.000000
0.450000	26.550000	9.680000	700.000000	0.000000	130.000000	62.000000	165.000000	0.000000
0.460000	28.240000	10.000000	673.000000	0.000000	129.000000	63.000000	169.000000	32.000000
0.470000	29.960000	10.510000	646.000000	0.000000	129.000000	63.000000	172.000000	51.000000
0.480000	31.360000	11.010000	610.000000	0.000000	127.000000	63.000000	140.000000	50.000000
0.490000	32.310000	11.480000	591.000000	0.000000	124.000000	63.000000	95.000000	47.000000
0.500000	32.960000	11.930000	599.000000	0.000000	122.000000	63.000000	65.000000	45.000000
0.510000	32.960000	12.110000	611.000000	0.000000	120.000000	64.000000	0.000000	18.000000
0.520000	32.400000	12.270000	647.000000	0.000000	120.000000	64.000000	-56.000000	16.000000
0.530000	31.520000	12.430000	644.000000	0.000000	119.000000	64.000000	-88.000000	16.000000
0.540000	30.130000	12.250000	664.000000	0.000000	117.000000	63.000000	-139.000000	-18.000000
0.550000	28.380000	11.800000	670.000000	0.000000	117.000000	63.000000	-175.000000	-45.000000
0.560000	26.390000	11.170000	693.000000	0.000000	119.000000	63.000000	-199.000000	-63.000000
0.570000	24.150000	10.320000	707.000000	0.000000	120.000000	64.000000	-224.000000	-85.000000
0.580000	21.970000	9.330000	740.000000	0.000000	122.000000	63.000000	-218.000000	-99.000000
0.590000	20.420000	8.260000	763.000000	0.000000	126.000000	62.000000	-155.000000	-107.000000
0.600000	19.270000	7.560000	740.000000	0.000000	129.000000	63.000000	-115.000000	-70.000000
0.610000	19.180000	7.020000	728.000000	0.000000	132.000000	61.000000	-9.000000	-54.000000
0.620000	19.660000	6.580000	705.000000	0.000000	136.000000	61.000000	48.000000	-44.000000
0.630000	20.530000	6.280000	693.000000	0.000000	139.000000	60.000000	87.000000	-30.000000
0.640000	21.850000	6.280000	652.000000	0.000000	141.000000	59.000000	132.000000	0.000000
0.650000	23.190000	6.580000	570.000000	0.000000	143.000000	57.000000	134.000000	30.000000
0.660000	24.220000	6.950000	412.000000	0.000000	143.000000	57.000000	103.000000	37.000000
0.670000	25.040000	7.310000	257.000000	0.000000	144.000000	57.000000	82.000000	36.000000
0.680000	25.170000	7.650000	153.000000	0.000000	143.000000	57.000000	13.000000	34.000000
0.690000	24.640000	7.980000	48.000000	0.000000	143.000000	57.000000	-53.000000	33.000000
0.700000	23.680000	8.290000	149.000000	0.000000	142.000000	58.000000	-96.000000	31.000000
0.710000	22.230000	8.570000	206.000000	0.000000	142.000000	58.000000	-145.000000	28.000000
0.720000	20.510000	8.470000	414.000000	0.000000	139.000000	58.000000	-172.000000	-10.000000
0.730000	18.600000	8.190000	574.000000	0.000000	139.000000	58.000000	-191.000000	-28.000000
0.740000	17.150000	7.790000	668.000000	0.000000	142.000000	58.000000	-145.000000	-40.000000
0.750000	16.440000	7.450000	667.000000	0.000000	142.000000	58.000000	-71.000000	-34.000000
0.760000	16.210000	7.380000	669.000000	0.000000	144.000000	58.000000	-23.000000	-7.000000
0.770000	16.740000	7.500000	691.000000	0.000000	146.000000	57.000000	53.000000	12.000000
0.780000	18.350000	7.840000	690.000000	0.000000	147.000000	58.000000	161.000000	34.000000
0.790000	20.690000	8.630000	690.000000	0.000000	147.000000	58.000000	234.000000	79.000000
0.800000	23.700000	9.720000	699.000000	0.000000	147.000000	58.000000	301.000000	109.000000
0.810000	26.700000	10.730000	682.000000	0.000000	146.000000	58.000000	300.000000	101.000000
0.820000	29.700000	11.440000	646.000000	0.000000	144.000000	60.000000	300.000000	71.000000
0.830000	32.200000	11.960000	565.000000	0.000000	139.000000	61.000000	250.000000	52.000000
0.840000	34.020000	12.290000	364.000000	0.000000	135.000000	62.000000	182.000000	33.000000
0.850000	35.380000	12.390000	71.000000	0.000000	130.000000	62.000000	136.000000	10.000000
0.860000	35.380000	12.390000	0.000000	1.000000	126.000000	62.000000	0.000000	0.000000
0.870000	36.350000	12.340000	0.000000	0.000000	122.000000	63.000000	97.000000	-5.000000
0.880000	36.110000	12.420000	0.000000	0.000000	122.000000	65.000000	-24.000000	8.000000
0.890000	35.610000	12.610000	0.000000	0.000000	122.000000	65.000000	-50.000000	19.000000
0.900000	35.160000	13.000000	0.000000	0.000000	125.000000	65.000000	-45.000000	39.000000
0.910000	34.460000	13.270000	0.000000	0.000000	127.000000	64.000000	-70.000000	27.000000
0.920000	33.570000	13.460000	0.000000	0.000000	130.000000	63.000000	-89.000000	19.000000
0.930000	32.400000	13.600000	0.000000	0.000000	133.000000	62.000000	-117.000000	14.000000
0.940000	31.380000	13.700000	0.000000	0.000000	135.000000	60.000000	-102.000000	10.000000
0.950000	30.450000	13.780000	0.000000	0.000000	136.000000	57.000000	-93.000000	8.000000
0.960000	29.830000	13.730000	0.000000	0.000000	135.000000	54.000000	-62.000000	-5.000000
0.970000	28.630000	13.650000	0.000000	0.000000	135.000000	51.000000	-120.000000	-8.000000
0.980000	27.030000	13.370000	0.000000	0.000000	133.000000	47.000000	-160.000000	-28.000000
0.990000	25.580000	12.960000	0.000000	0.000000	132.000000	45.000000	-145.000000	-41.000000
1.000000	24.180000	12.470000	0.000000	0.000000	132.000000	43.000000	-140.000000	-49.000000
1.010000	22.900000	11.910000	0.000000	0.000000	134.000000	42.000000	-128.000000	-56.000000
1.020000	21.680000	11.300000	0.000000	0.000000	135.000000	41.000000	-122.000000	-61.000000
1.030000	20.400000	10.870000	0.000000	0.000000	136.000000	41.000000	-128.000000	-43.000000
1.040000	19.190000	10.510000	0.000000	0.000000	137.000000	41.000000	-121.000000	-36.000000
1.050000	18.330000	10.200000	0.000000	0.000000	138.000000	41.000000	-86.000000	-31.000000
1.060000	17.670000	9.800000	0.000000	0.000000	137.000000	41.000000	-66.000000	-40.000000
1.070000	17.440000	9.400000	0.000000	0.000000	137.000000	41.000000	-23.000000	-40.000000
1.080000	17.840000	9.010000	0.000000	0.000000	136.000000	42.000000	40.000000	-39.000000
1.090000	18.650000	8.900000	0.000000	0.000000	135.000000	42.000000	81.000000	-11.000000
1.100000	19.190000	8.980000	0.000000	0.000000	134.000000	43.000000	54.000000	8.000000
1.110000	19.190000	8.910000	0.000000	0.000000	133.000000	44.000000	0.000000	-7.000000
1.120000	18.720000	8.780000	0.000000	0.000000	134.000000	46.000000	-47.000000	-13.000000
1.130000	18.390000	8.710000	0.000000	0.000000	134.000000	47.000000	-33.000000	-7.000000
1.140000	18.260000	8.710000	0.000000	0.000000	135.000000	49.000000	-13.000000	0.000000
1.150000	18.260000	8.710000	0.000000	0.000000	136.000000	50.000000	0.000000	0.000000
1.160000	18.410000	8.760000	0.000000	0.000000	137.000000	52.000000	15.000000	5.000000
1.170000	18.550000	8.890000	0.000000	0.000000	139.000000	52.000000	14.000000	13.000000
1.180000	18.700000	9.050000	0.000000	0.000000	139.000000	52.000000	15.000000	16.000000
1.190000	18.700000	9.260000	0.000000	0.000000	139.000000	52.000000	0.000000	21.000000
1.200000	18.700000	9.510000	0.000000	0.000000	139.000000	52.000000	0.000000	25.000000
1.210000	18.700000	9.770000	0.000000	0.000000	139.000000	52.000000	0.000000	26.000000
1.220000	18.650000	10.030000	0.000000	0.000000	139.000000	52.000000	-5.000000	26.000000
1.230000	18.650000	10.260000	0.000000	0.000000	139.000000	52.000000	0.000000	23.000000
1.240000	18.650000	10.260000	0.000000	0.000000	139.000000	52.000000	0.000000	0.000000
1.250000	18.750000	10.690000	0.000000	0.000000	139.000000	52.000000	10.000000	43.000000
1.260000	18.840000	10.970000	0.000000	0.000000	139.000000	52.000000	9.000000	28.000000
1.270000	18.910000	11.280000	0.000000	0.000000	139.000000	52.000000	7.000000	31.000000
1.280000	19.010000	11.590000	0.000000	0.000000	139.000000	54.000000	10.000000	31.000000
1.290000	19.140000	11.860000	0.000000	0.000000	139.000000	54.000000	13.000000	27.000000
1.300000	19.140000	11.860000	349.000000	1.000000	137.000000	54.000000	0.000000	0.000000
1.310000	19.140000	11.860000	387.000000	0.000000	138.000000	55.000000	0.000000	0.000000
1.320000	19.140000	11.860000	407.000000	0.000000	138.000000	57.000000	0.000000	0.000000
1.330000	19.140000	11.860000	435.000000	0.000000	138.000000	58.000000	0.000000	0.000000
1.340000	18.860000	11.960000	478.000000	0.000000	136.000000	58.000000	-28.000000	10.000000
1.350000	18.750000	11.680000	501.000000	0.000000	136.000000	60.000000	-11.000000	-28.000000
1.360000	18.680000	11.280000	512.000000	0.000000	135.000000	60.000000	-7.000000	-40.000000
1.370000	18.740000	10.870000	514.000000	0.000000	135.000000	62.000000	6.000000	-41.000000
1.380000	18.880000	10.450000	514.000000	0.000000	135.000000	62.000000	14.000000	-42.000000
1.390000	19.040000	10.060000	512.000000	0.000000	135.000000	62.000000	16.000000	-39.000000
1.400000	19.210000	9.690000	512.000000	0.000000	135.000000	62.000000	17.000000	-37.000000
1.410000	19.370000	9.370000	499.000000	0.000000	135.000000	62.000000	16.000000	-32.000000
1.420000	19.450000	9.080000	494.000000	0.000000	135.000000	62.000000	8.000000	-29.000000
1.430000	19.450000	8.800000	494.000000	0.000000	135.000000	62.000000	0.000000	-28.000000
1.440000	19.450000	8.530000	499.000000	0.000000	137.000000	62.000000	0.000000	-27.000000
1.450000	19.210000	8.310000	504.000000	0.000000	138.000000	61.000000	-24.000000	-22.000000
1.460000	18.890000	8.130000	519.000000	0.000000	138.000000	61.000000	-32.000000	-18.000000
1.470000	18.380000	8.040000	543.000000	0.000000	139.000000	61.000000	-51.000000	-9.000000
1.480000	17.840000	7.950000	580.000000	0.000000	141.000000	60.000000	-54.000000	-9.000000
1.490000	17.290000	7.950000	588.000000	0.000000	141.000000	60.000000	-55.000000	0.000000
1.500000	16.870000	8.070000	603.000000	0.000000	142.000000	59.000000	-42.000000	12.000000
1.510000	16.680000	8.200000	602.000000	0.000000	142.000000	59.000000	-19.000000	13.000000
1.520000	16.630000	8.320000	562.000000	0.000000	142.000000	59.000000	-5.000000	12.000000
1.530000	16.700000	8.420000	473.000000	0.000000	145.000000	59.000000	7.000000	10.000000
1.540000	17.030000	8.620000	344.000000	0.000000	145.000000	59.000000	33.000000	20.000000
1.550000	17.520000	8.870000	206.000000	0.000000	145.000000	59.000000	49.000000	25.000000
1.560000	18.190000	9.070000	93.000000	0.000000	144.000000	60.000000	67.000000	20.000000
1.570000	18.190000	9.070000	0.000000	1.000000	144.000000	60.000000	0.000000	0.000000
1.580000	19.560000	9.490000	0.000000	0.000000	142.000000	59.000000	137.000000	42.000000
1.590000	20.300000	9.750000	0.000000	0.000000	141.000000	60.000000	74.000000	26.000000
1.600000	21.020000	10.020000	0.000000	0.000000	139.000000	61.000000	72.000000	27.000000
1.610000	21.610000	10.230000	0.000000	0.000000	136.000000	61.000000	59.000000	21.000000
1.620000	21.610000	10.230000	71.000000	1.000000	135.000000	62.000000	0.000000	0.000000
1.630000	22.340000	10.550000	136.000000	0.000000	134.000000	61.000000	73.000000	32.000000
1.640000	22.400000	10.620000	203.000000	0.000000	131.000000	61.000000	6.000000	7.000000
1.650000	22.340000	10.620000	282.000000	0.000000	131.000000	61.000000	-6.000000	0.000000
1.660000	22.270000	10.710000	354.000000	0.000000	129.000000	61.000000	-7.000000	9.000000
1.670000	22.080000	10.780000	422.000000	0.000000	128.000000	61.000000	-19.000000	7.000000
1.680000	21.800000	10.780000	448.000000	0.000000	128.000000	61.000000	-28.000000	0.000000
1.690000	21.490000	10.720000	473.000000	0.000000	128.000000	61.000000	-31.000000	-6.000000
1.700000	21.080000	10.620000	497.000000	0.000000	128.000000	61.000000	-41.000000	-10.000000
1.710000	20.600000	10.350000	515.000000	0.000000	129.000000	61.000000	-48.000000	-27.000000
1.720000	20.100000	9.970000	546.000000	0.000000	129.000000	61.000000	-50.000000	-38.000000
1.730000	19.830000	9.570000	556.000000	0.000000	129.000000	61.000000	-27.000000	-40.000000
1.740000	19.720000	9.320000	559.000000	0.000000	132.000000	61.000000	-11.000000	-25.000000
1.750000	19.830000	9.180000	556.000000	0.000000	132.000000	61.000000	11.000000	-14.000000
1.760000	20.120000	8.990000	553.000000	0.000000	133.000000	62.000000	29.000000	-19.000000
1.770000	20.540000	8.990000	554.000000	0.000000	135.000000	62.000000	42.000000	0.000000
1.780000	21.230000	8.990000	537.000000	0.000000	135.000000	62.000000	69.000000	0.000000
1.790000	21.830000	9.280000	520.000000	0.000000	135.000000	62.000000	60.000000	29.000000
1.800000	22.360000	9.580000	504.000000	0.000000	135.000000	62.000000	53.000000	30.000000
1.810000	22.680000	9.890000	491.000000	0.000000	132.000000	61.000000	32.000000	31.000000
1.820000	22.770000	10.070000	489.000000	0.000000	132.000000	61.000000	9.000000	18.000000
1.830000	22.700000	10.250000	499.000000	0.000000	131.000000	61.000000	-7.000000	18.000000
1.840000	22.440000	10.430000	514.000000	0.000000	129.000000	61.000000	-26.000000	18.000000
1.850000	22.090000	10.430000	516.000000	0.000000	129.000000	61.000000	-35.000000	0.000000
1.860000	21.670000	10.430000	526.000000	0.000000	128.000000	61.000000	-42.000000	0.000000
1.870000	21.350000	10.430000	526.000000	0.000000	128.000000	61.000000	-32.000000	0.000000
1.880000	21.230000	10.370000	520.000000	0.000000	129.000000	61.000000	-12.000000	-6.000000
1.890000	21.230000	10.370000	489.000000	0.000000	129.000000	61.000000	0.000000	0.000000
1.900000	21.420000	10.370000	491.000000	0.000000	129.000000	61.000000	19.000000	0.000000
1.910000	21.850000	10.490000	443.000000	0.000000	129.000000	61.000000	43.000000	12.000000
1.920000	22.460000	10.690000	394.000000	0.000000	129.000000	61.000000	61.000000	20.000000
1.930000	23.120000	10.900000	356.000000	0.000000	127.000000	62.000000	66.000000	21.000000
1.940000	23.730000	11.120000	314.000000	0.000000	127.000000	62.000000	61.000000	22.000000
1.950000	24.260000	11.310000	273.000000	0.000000	127.000000	62.000000	53.000000	19.000000
1.960000	24.760000	11.510000	282.000000	0.000000	126.000000	62.000000	50.000000	20.000000
1.970000	25.130000	11.700000	276.000000	0.000000	126.000000	62.000000	37.000000	19.000000
1.980000	25.270000	11.880000	309.000000	0.000000	126.000000	62.000000	14.000000	18.000000
1.990000	25.270000	12.000000	362.000000	0.000000	124.000000	63.000000	0.000000	12.000000
2.000000	25.160000	12.120000	412.000000	0.000000	124.000000	63.000000	-11.000000	12.000000
2.010000	24.930000	12.240000	446.000000	0.000000	124.000000	63.000000	-23.000000	12.000000
2.020000	24.610000	12.320000	460.000000	0.000000	124.000000	63.000000	-32.000000	8.000000
2.030000	24.240000	12.390000	496.000000	0.000000	124.000000	63.000000	-37.000000	7.000000
2.040000	23.880000	12.330000	519.000000	0.000000	124.000000	63.000000	-36.000000	-6.000000
2.050000	23.550000	12.260000	546.000000	0.000000	124.000000	63.000000	-33.000000	-7.000000
2.060000	23.280000	12.130000	546.000000	0.000000	124.000000	63.000000	-27.000000	-13.000000
2.070000	23.110000	11.960000	556.000000	0.000000	124.000000	63.000000	-17.000000	-17.000000
2.080000	23.110000	11.710000	562.000000	0.000000	124.000000	63.000000	0.000000	-25.000000
2.090000	23.200000	11.420000	565.000000	0.000000	124.000000	63.000000	9.000000	-29.000000
2.100000	23.460000	11.120000	551.000000	0.000000	126.000000	62.000000	26.000000	-30.000000
2.110000	23.760000	10.840000	539.000000	0.000000	126.000000	62.000000	30.000000	-28.000000
2.120000	24.080000	10.650000	512.000000	0.000000	126.000000	62.000000	32.000000	-19.000000
2.130000	24.390000	10.460000	472.000000	0.000000	126.000000	62.000000	31.000000	-19.000000
2.140000	24.600000	10.260000	442.000000	0.000000	126.000000	62.000000	21.000000	-20.000000
2.150000	24.660000	10.100000	414.000000	0.000000	126.000000	62.000000	6.000000	-16.000000
2.160000	24.610000	9.970000	412.000000	0.000000	126.000000	62.000000	-5.000000	-13.000000
2.170000	24.380000	9.870000	413.000000	0.000000	126.000000	62.000000	-23.000000	-10.000000
2.180000	24.060000	9.870000	423.000000	0.000000	126.000000	62.000000	-32.000000	0.000000
2.190000	23.690000	9.800000	480.000000	0.000000	126.000000	62.000000	-37.000000	-7.000000
2.200000	23.360000	9.800000	519.000000	0.000000	126.000000	62.000000	-33.000000	0.000000
