t	x	y	pressure	penup	azimuth	inclination	v_x	v_y
0.000000	26.980000	50.000000	15.000000	1.000000	122.000000	61.000000	0.000000	0.000000
0.010000	28.450000	50.090000	54.000000	0.000000	124.000000	62.000000	147.000000	9.000000
0.020000	29.150000	50.180000	65.000000	0.000000	124.000000	62.000000	70.000000	9.000000
0.030000	29.840000	50.310000	51.000000	0.000000	126.000000	61.000000	69.000000	13.000000
0.040000	30.530000	50.360000	80.000000	0.000000	126.000000	61.000000	69.000000	5.000000
0.050000	31.230000	50.420000	105.000000	0.000000	126.000000	61.000000	70.000000	6.000000
0.060000	31.850000	50.510000	139.000000	0.000000	126.000000	60.000000	62.000000	9.000000
0.070000	32.380000	50.620000	205.000000	0.000000	126.000000	60.000000	53.000000	11.000000
0.080000	32.840000	50.720000	242.000000	0.000000	125.000000	59.000000	46.000000	10.000000
0.090000	33.060000	50.840000	294.000000	0.000000	125.000000	59.000000	22.000000	12.000000
0.100000	33.180000	50.970000	349.000000	0.000000	125.000000	59.000000	12.000000	13.000000
0.110000	33.180000	51.120000	404.000000	0.000000	124.000000	58.000000	0.000000	15.000000
0.120000	33.040000	51.350000	418.000000	0.000000	126.000000	58.000000	-14.000000	23.000000
0.130000	32.550000	51.630000	448.000000	0.000000	126.000000	58.000000	-49.000000	28.000000
0.140000	31.850000	51.830000	475.000000	0.000000	126.000000	58.000000	-70.000000	20.000000
0.150000	30.740000	51.830000	491.000000	0.000000	127.000000	59.000000	-111.000000	0.000000
0.160000	29.330000	51.690000	499.000000	0.000000	127.000000	59.000000	-141.000000	-14.000000
0.170000	27.710000	51.230000	526.000000	0.000000	128.000000	58.000000	-162.000000	-46.000000
0.180000	25.710000	50.380000	581.000000	0.000000	127.000000	59.000000	-200.000000	-85.000000
0.190000	23.580000	49.260000	655.000000	0.000000	127.000000	59.000000	-213.000000	-112.000000
0.200000	21.360000	47.650000	731.000000	0.000000	126.000000	60.000000	-222.000000	-161.000000
0.210000	19.470000	46.040000	754.000000	0.000000	125.000000	60.000000	-189.000000	-161.000000
0.220000	18.360000	44.630000	757.000000	0.000000	123.000000	61.000000	-111.000000	-141.000000
0.230000	17.760000	43.360000	758.000000	0.000000	122.000000	61.000000	-60.000000	-127.000000
0.240000	17.760000	42.480000	758.000000	0.000000	120.000000	62.000000	0.000000	-88.000000
0.250000	18.140000	41.830000	749.000000	0.000000	118.000000	62.000000	38.000000	-65.000000
0.260000	18.820000	41.330000	740.000000	0.000000	118.000000	62.000000	68.000000	-50.000000
0.270000	19.920000	41.060000	725.000000	0.000000	116.000000	63.000000	110.000000	-27.000000
0.280000	21.570000	41.360000	722.000000	0.000000	114.000000	62.000000	165.000000	30.000000
0.290000	23.590000	42.040000	699.000000	0.000000	114.000000	62.000000	202.000000	68.000000
0.300000	25.920000	43.170000	690.000000	0.000000	114.000000	62.000000	233.000000	113.000000
0.310000	28.280000	44.390000	681.000000	0.000000	111.000000	61.000000	236.000000	122.000000
0.320000	30.340000	45.670000	652.000000	0.000000	111.000000	61.000000	206.000000	128.000000
0.330000	32.190000	46.900000	628.000000	0.000000	110.000000	60.000000	185.000000	123.000000
0.340000	33.560000	48.190000	622.000000	0.000000	112.000000	60.000000	137.000000	129.000000
0.350000	34.390000	49.220000	630.000000	0.000000	112.000000	60.000000	83.000000	103.000000
0.360000	34.850000	50.070000	637.000000	0.000000	113.000000	60.000000	46.000000	85.000000
0.370000	34.850000	50.580000	646.000000	0.000000	115.000000	60.000000	0.000000	51.000000
0.380000	34.340000	51.070000	664.000000	0.000000	117.000000	59.000000	-51.000000	49.000000
0.390000	33.590000	51.240000	656.000000	0.000000	118.000000	59.000000	-75.000000	17.000000
0.400000	32.340000	51.240000	666.000000	0.000000	121.000000	59.000000	-125.000000	0.000000
0.410000	30.650000	50.810000	682.000000	0.000000	123.000000	59.000000	-169.000000	-43.000000
0.420000	28.660000	50.030000	691.000000	0.000000	124.000000	60.000000	-199.000000	-78.000000
0.430000	26.600000	48.990000	731.000000	0.000000	124.000000	60.000000	-206.000000	-104.000000
0.440000	24.770000	47.580000	782.000000	0.000000	124.000000	60.000000	-183.000000	-141.000000
0.450000	23.080000	46.330000	800.000000	0.000000	122.000000	60.000000	-169.000000	-125.000000
0.460000	22.340000	45.200000	797.000000	0.000000	120.000000	60.000000	-74.000000	-113.000000
0.470000	22.270000	44.260000	794.000000	0.000000	119.000000	61.000000	-7.000000	-94.000000
0.480000	22.640000	43.540000	787.000000	0.000000	117.000000	61.000000	37.000000	-72.000000
0.490000	23.700000	42.980000	794.000000	0.000000	115.000000	62.000000	106.000000	-56.000000
0.500000	25.320000	42.900000	767.000000	0.000000	114.000000	61.000000	162.000000	-8.000000
0.510000	27.310000	43.240000	758.000000	0.000000	113.000000	61.000000	199.000000	34.000000
0.520000	29.140000	43.850000	746.000000	0.000000	111.000000	61.000000	183.000000	61.000000
0.530000	30.850000	44.490000	733.000000	0.000000	111.000000	61.000000	171.000000	64.000000
0.540000	32.480000	45.190000	702.000000	0.000000	111.000000	61.000000	163.000000	70.000000
0.550000	33.460000	45.920000	688.000000	0.000000	110.000000	60.000000	98.000000	73.000000
0.560000	33.820000	46.560000	696.000000	0.000000	110.000000	60.000000	36.000000	64.000000
0.570000	33.770000	46.960000	702.000000	0.000000	110.000000	60.000000	-5.000000	40.000000
0.580000	33.120000	47.200000	731.000000	0.000000	110.000000	60.000000	-65.000000	24.000000
0.590000	31.920000	47.100000	727.000000	0.000000	109.000000	60.000000	-120.000000	-10.000000
0.600000	30.360000	46.720000	758.000000	0.000000	110.000000	60.000000	-156.000000	-38.000000
0.610000	28.540000	46.160000	777.000000	0.000000	112.000000	60.000000	-182.000000	-56.000000
0.620000	26.680000	45.240000	814.000000	0.000000	112.000000	60.000000	-186.000000	-92.000000
0.630000	24.790000	44.240000	819.000000	0.000000	113.000000	61.000000	-189.000000	-100.000000
0.640000	23.680000	43.180000	822.000000	0.000000	113.000000	61.000000	-111.000000	-106.000000
0.650000	23.360000	42.440000	827.000000	0.000000	114.000000	61.000000	-32.000000	-74.000000
0.660000	23.570000	41.980000	805.000000	0.000000	114.000000	61.000000	21.000000	-46.000000
0.670000	24.150000	41.710000	793.000000	0.000000	114.000000	61.000000	58.000000	-27.000000
0.680000	25.160000	41.710000	784.000000	0.000000	114.000000	61.000000	101.000000	0.000000
0.690000	26.450000	41.950000	749.000000	0.000000	115.000000	62.000000	129.000000	24.000000
0.700000	27.760000	42.430000	711.000000	0.000000	114.000000	62.000000	131.000000	48.000000
0.710000	28.550000	42.950000	664.000000	0.000000	114.000000	62.000000	79.000000	52.000000
0.720000	28.980000	43.560000	608.000000	0.000000	114.000000	62.000000	43.000000	61.000000
0.730000	28.650000	44.230000	495.000000	0.000000	114.000000	62.000000	-33.000000	67.000000
0.740000	27.500000	44.910000	463.000000	0.000000	114.000000	62.000000	-115.000000	68.000000
0.750000	25.790000	45.290000	497.000000	0.000000	114.000000	62.000000	-171.000000	38.000000
0.760000	23.420000	45.470000	536.000000	0.000000	114.000000	62.000000	-237.000000	18.000000
0.770000	20.980000	45.160000	681.000000	0.000000	114.000000	62.000000	-244.000000	-31.000000
0.780000	18.480000	44.650000	757.000000	0.000000	114.000000	62.000000	-250.000000	-51.000000
0.790000	16.540000	44.000000	821.000000	0.000000	115.000000	63.000000	-194.000000	-65.000000
0.800000	15.560000	43.560000	822.000000	0.000000	115.000000	63.000000	-98.000000	-44.000000
0.810000	15.230000	43.420000	824.000000	0.000000	115.000000	63.000000	-33.000000	-14.000000
0.820000	15.760000	43.490000	842.000000	0.000000	116.000000	64.000000	53.000000	7.000000
0.830000	17.250000	43.610000	854.000000	0.000000	116.000000	64.000000	149.000000	12.000000
0.840000	19.390000	44.220000	854.000000	0.000000	117.000000	63.000000	214.000000	61.000000
0.850000	22.260000	45.150000	843.000000	0.000000	116.000000	64.000000	287.000000	93.000000
0.860000	25.160000	46.070000	845.000000	0.000000	116.000000	64.000000	290.000000	92.000000
0.870000	28.120000	46.820000	832.000000	0.000000	116.000000	64.000000	296.000000	75.000000
0.880000	31.100000	47.460000	787.000000	0.000000	115.000000	63.000000	298.000000	64.000000
0.890000	33.720000	47.940000	643.000000	0.000000	115.000000	63.000000	262.000000	48.000000
0.900000	35.700000	48.180000	327.000000	0.000000	114.000000	62.000000	198.000000	24.000000
0.910000	35.700000	48.180000	0.000000	1.000000	114.000000	62.000000	0.000000	0.000000
0.920000	37.910000	48.250000	0.000000	0.000000	114.000000	62.000000	221.000000	7.000000
0.930000	37.670000	48.300000	0.000000	0.000000	115.000000	62.000000	-24.000000	5.000000
0.940000	36.810000	48.410000	0.000000	0.000000	115.000000	62.000000	-86.000000	11.000000
0.950000	35.900000	48.580000	0.000000	0.000000	114.000000	61.000000	-91.000000	17.000000
0.960000	34.870000	48.930000	0.000000	0.000000	114.000000	61.000000	-103.000000	35.000000
0.970000	33.750000	49.280000	0.000000	0.000000	113.000000	61.000000	-112.000000	35.000000
0.980000	32.400000	49.460000	0.000000	0.000000	113.000000	61.000000	-135.000000	18.000000
0.990000	30.510000	49.540000	0.000000	0.000000	111.000000	61.000000	-189.000000	8.000000
1.000000	28.270000	49.400000	0.000000	0.000000	109.000000	62.000000	-224.000000	-14.000000
1.010000	26.090000	49.110000	0.000000	0.000000	108.000000	63.000000	-218.000000	-29.000000
1.020000	24.500000	48.730000	0.000000	0.000000	105.000000	64.000000	-159.000000	-38.000000
1.030000	23.300000	48.140000	0.000000	0.000000	105.000000	65.000000	-120.000000	-59.000000
1.040000	22.350000	47.550000	0.000000	0.000000	110.000000	65.000000	-95.000000	-59.000000
1.050000	21.210000	46.970000	0.000000	0.000000	114.000000	62.000000	-114.000000	-58.000000
1.060000	19.950000	46.410000	0.000000	0.000000	116.000000	60.000000	-126.000000	-56.000000
1.070000	18.870000	45.800000	0.000000	0.000000	117.000000	58.000000	-108.000000	-61.000000
1.080000	17.810000	45.210000	0.000000	0.000000	118.000000	57.000000	-106.000000	-59.000000
1.090000	17.510000	44.810000	0.000000	0.000000	118.000000	57.000000	-30.000000	-40.000000
1.100000	17.710000	44.540000	0.000000	0.000000	115.000000	54.000000	20.000000	-27.000000
1.110000	18.000000	44.790000	0.000000	0.000000	116.000000	50.000000	29.000000	25.000000
1.120000	17.910000	44.990000	0.000000	0.000000	115.000000	46.000000	-9.000000	20.000000
1.130000	17.570000	45.080000	0.000000	0.000000	114.000000	42.000000	-34.000000	9.000000
1.140000	17.150000	45.080000	0.000000	0.000000	117.000000	43.000000	-42.000000	0.000000
1.150000	17.020000	44.960000	0.000000	0.000000	116.000000	45.000000	-13.000000	-12.000000
1.160000	17.070000	44.960000	0.000000	0.000000	115.000000	46.000000	5.000000	0.000000
1.170000	17.170000	44.960000	0.000000	0.000000	114.000000	48.000000	10.000000	0.000000
1.180000	17.170000	44.900000	0.000000	0.000000	113.000000	51.000000	0.000000	-6.000000
1.190000	17.030000	44.800000	0.000000	0.000000	114.000000	53.000000	-14.000000	-10.000000
1.200000	16.750000	44.740000	0.000000	0.000000	112.000000	54.000000	-28.000000	-6.000000
1.210000	16.410000	44.740000	0.000000	0.000000	111.000000	55.000000	-34.000000	0.000000
1.220000	16.040000	44.690000	0.000000	0.000000	112.000000	56.000000	-37.000000	-5.000000
1.230000	15.860000	44.690000	0.000000	0.000000	113.000000	57.000000	-18.000000	0.000000
1.240000	15.710000	44.740000	0.000000	0.000000	113.000000	58.000000	-15.000000	5.000000
1.250000	15.650000	44.740000	0.000000	0.000000	115.000000	60.000000	-6.000000	0.000000
1.260000	15.650000	44.740000	0.000000	0.000000	116.000000	60.000000	0.000000	0.000000
1.270000	15.650000	44.680000	0.000000	0.000000	118.000000	62.000000	0.000000	-6.000000
1.280000	15.650000	44.620000	0.000000	0.000000	119.000000	63.000000	0.000000	-6.000000
1.290000	15.650000	44.550000	0.000000	0.000000	122.000000	65.000000	0.000000	-7.000000
1.300000	15.650000	44.480000	0.000000	0.000000	123.000000	65.000000	0.000000	-7.000000
1.310000	15.650000	44.480000	0.000000	0.000000	124.000000	66.000000	0.000000	0.000000
1.320000	15.700000	44.480000	0.000000	0.000000	124.000000	66.000000	5.000000	0.000000
1.330000	15.820000	44.480000	0.000000	0.000000	124.000000	66.000000	12.000000	0.000000
1.340000	15.980000	44.700000	0.000000	0.000000	124.000000	66.000000	16.000000	22.000000
1.350000	16.230000	44.960000	0.000000	0.000000	123.000000	65.000000	25.000000	26.000000
1.360000	16.550000	45.280000	0.000000	0.000000	120.000000	64.000000	32.000000	32.000000
1.370000	16.890000	45.690000	0.000000	0.000000	119.000000	63.000000	34.000000	41.000000
1.380000	17.210000	46.150000	0.000000	0.000000	118.000000	62.000000	32.000000	46.000000
1.390000	17.520000	46.580000	0.000000	0.000000	117.000000	61.000000	31.000000	43.000000
1.400000	17.810000	46.980000	0.000000	0.000000	114.000000	61.000000	29.000000	40.000000
1.410000	17.810000	46.980000	216.000000	1.000000	114.000000	61.000000	0.000000	0.000000
1.420000	17.940000	47.340000	250.000000	0.000000	114.000000	61.000000	13.000000	36.000000
1.430000	17.830000	47.430000	285.000000	0.000000	115.000000	62.000000	-11.000000	9.000000
1.440000	17.690000	47.380000	327.000000	0.000000	115.000000	62.000000	-14.000000	-5.000000
1.450000	17.520000	47.240000	389.000000	0.000000	116.000000	63.000000	-17.000000	-14.000000
1.460000	17.330000	46.850000	418.000000	0.000000	116.000000	63.000000	-19.000000	-39.000000
1.470000	17.180000	46.420000	428.000000	0.000000	116.000000	63.000000	-15.000000	-43.000000
1.480000	17.110000	45.880000	443.000000	0.000000	115.000000	63.000000	-7.000000	-54.000000
1.490000	17.110000	45.280000	446.000000	0.000000	115.000000	63.000000	0.000000	-60.000000
1.500000	17.280000	44.830000	448.000000	0.000000	115.000000	63.000000	17.000000	-45.000000
1.510000	17.520000	44.440000	443.000000	0.000000	115.000000	63.000000	24.000000	-39.000000
1.520000	17.750000	44.090000	428.000000	0.000000	113.000000	63.000000	23.000000	-35.000000
1.530000	17.910000	43.640000	386.000000	0.000000	113.000000	63.000000	16.000000	-45.000000
1.540000	18.030000	43.520000	354.000000	0.000000	113.000000	63.000000	12.000000	-12.000000
1.550000	18.030000	43.610000	344.000000	0.000000	113.000000	63.000000	0.000000	9.000000
1.560000	17.950000	43.610000	343.000000	0.000000	113.000000	63.000000	-8.000000	0.000000
1.570000	17.750000	43.610000	343.000000	0.000000	113.000000	63.000000	-20.000000	0.000000
1.580000	17.320000	43.710000	389.000000	0.000000	113.000000	63.000000	-43.000000	10.000000
1.590000	16.750000	43.710000	430.000000	0.000000	113.000000	63.000000	-57.000000	0.000000
1.600000	16.090000	43.650000	449.000000	0.000000	116.000000	64.000000	-66.000000	-6.000000
1.610000	15.560000	43.560000	465.000000	0.000000	116.000000	64.000000	-53.000000	-9.000000
1.620000	15.300000	43.560000	466.000000	0.000000	116.000000	64.000000	-26.000000	0.000000
1.630000	15.210000	43.510000	423.000000	0.000000	116.000000	64.000000	-9.000000	-5.000000
1.640000	15.260000	43.510000	363.000000	0.000000	117.000000	65.000000	5.000000	0.000000
1.650000	15.520000	43.570000	226.000000	0.000000	117.000000	65.000000	26.000000	6.000000
1.660000	15.520000	43.570000	0.000000	1.000000	117.000000	65.000000	0.000000	0.000000
1.670000	16.630000	43.820000	0.000000	0.000000	117.000000	65.000000	111.000000	25.000000
1.680000	17.290000	44.070000	0.000000	0.000000	117.000000	65.000000	66.000000	25.000000
1.690000	17.910000	44.410000	0.000000	0.000000	117.000000	65.000000	62.000000	34.000000
1.700000	18.500000	44.780000	0.000000	0.000000	116.000000	64.000000	59.000000	37.000000
1.710000	19.030000	45.160000	0.000000	0.000000	115.000000	63.000000	53.000000	38.000000
1.720000	19.520000	45.470000	0.000000	0.000000	115.000000	63.000000	49.000000	31.000000
1.730000	19.950000	45.740000	0.000000	0.000000	114.000000	62.000000	43.000000	27.000000
1.740000	20.280000	45.940000	0.000000	0.000000	113.000000	61.000000	33.000000	20.000000
1.750000	20.550000	46.090000	0.000000	0.000000	113.000000	60.000000	27.000000	15.000000
1.760000	20.660000	46.160000	0.000000	0.000000	113.000000	60.000000	11.000000	7.000000
1.770000	20.720000	46.160000	0.000000	0.000000	113.000000	59.000000	6.000000	0.000000
1.780000	20.720000	46.280000	0.000000	0.000000	113.000000	59.000000	0.000000	12.000000
1.790000	20.720000	46.280000	98.000000	1.000000	111.000000	59.000000	0.000000	0.000000
1.800000	20.720000	46.280000	143.000000	0.000000	112.000000	60.000000	0.000000	0.000000
1.810000	20.590000	46.620000	203.000000	0.000000	112.000000	60.000000	-13.000000	34.000000
1.820000	20.460000	46.700000	284.000000	0.000000	110.000000	60.000000	-13.000000	8.000000
1.830000	20.290000	46.700000	335.000000	0.000000	111.000000	61.000000	-17.000000	0.000000
1.840000	20.100000	46.700000	389.000000	0.000000	111.000000	61.000000	-19.000000	0.000000
1.850000	19.840000	46.510000	404.000000	0.000000	111.000000	61.000000	-26.000000	-19.000000
1.860000	19.520000	46.160000	436.000000	0.000000	111.000000	61.000000	-32.000000	-35.000000
1.870000	19.170000	45.710000	472.000000	0.000000	112.000000	62.000000	-35.000000	-45.000000
1.880000	18.870000	45.250000	502.000000	0.000000	112.000000	62.000000	-30.000000	-46.000000
1.890000	18.740000	44.920000	512.000000	0.000000	112.000000	62.000000	-13.000000	-33.000000
1.900000	18.740000	44.690000	520.000000	0.000000	112.000000	62.000000	0.000000	-23.000000
1.910000	18.930000	44.530000	512.000000	0.000000	112.000000	62.000000	19.000000	-16.000000
1.920000	19.300000	44.470000	512.000000	0.000000	112.000000	62.000000	37.000000	-6.000000
1.930000	19.770000	44.470000	509.000000	0.000000	112.000000	62.000000	47.000000	0.000000
1.940000	20.300000	44.690000	485.000000	0.000000	112.000000	62.000000	53.000000	22.000000
1.950000	20.800000	45.060000	467.000000	0.000000	112.000000	62.000000	50.000000	37.000000
1.960000	21.100000	45.530000	450.000000	0.000000	112.000000	62.000000	30.000000	47.000000
1.970000	21.260000	45.840000	448.000000	0.000000	110.000000	63.000000	16.000000	31.000000
1.980000	21.260000	46.140000	455.000000	0.000000	109.000000	62.000000	0.000000	30.000000
1.990000	21.010000	46.270000	461.000000	0.000000	109.000000	62.000000	-25.000000	13.000000
2.000000	20.650000	46.270000	465.000000	0.000000	109.000000	62.000000	-36.000000	0.000000
2.010000	20.310000	46.270000	473.000000	0.000000	109.000000	62.000000	-34.000000	0.000000
2.020000	20.170000	46.170000	449.000000	0.000000	108.000000	61.000000	-14.000000	-10.000000
2.030000	20.170000	46.170000	371.000000	0.000000	109.000000	62.000000	0.000000	0.000000
2.040000	20.300000	46.170000	325.000000	0.000000	109.000000	62.000000	13.000000	0.000000
2.050000	20.670000	46.120000	242.000000	0.000000	109.000000	62.000000	37.000000	-5.000000
2.060000	21.190000	46.210000	100.000000	0.000000	111.000000	61.000000	52.000000	9.000000
2.070000	21.190000	46.210000	0.000000	1.000000	111.000000	61.000000	0.000000	0.000000
2.080000	22.340000	46.500000	0.000000	0.000000	111.000000	61.000000	115.000000	29.000000
2.090000	22.860000	46.650000	0.000000	0.000000	111.000000	61.000000	52.000000	15.000000
2.100000	23.340000	46.800000	0.000000	0.000000	111.000000	61.000000	48.000000	15.000000
2.110000	23.770000	46.960000	0.000000	0.000000	110.000000	60.000000	43.000000	16.000000
2.120000	23.770000	46.960000	17.000000	1.000000	110.000000	60.000000	0.000000	0.000000
2.130000	24.280000	47.010000	91.000000	0.000000	110.000000	60.000000	51.000000	5.000000
2.140000	24.280000	47.060000	141.000000	0.000000	110.000000	60.000000	0.000000	5.000000
2.150000	24.200000	47.060000	193.000000	0.000000	110.000000	60.000000	-8.000000	0.000000
2.160000	24.100000	47.140000	280.000000	0.000000	110.000000	60.000000	-10.000000	8.000000
2.170000	23.930000	47.240000	297.000000	0.000000	112.000000	60.000000	-17.000000	10.000000
2.180000	23.680000	47.340000	325.000000	0.000000	112.000000	60.000000	-25.000000	10.000000
2.190000	23.380000	47.410000	369.000000	0.000000	112.000000	60.000000	-30.000000	7.000000
2.200000	23.040000	47.410000	394.000000	0.000000	112.000000	60.000000	-34.000000	0.000000
