t	x	y	pressure	penup	azimuth	inclination	v_x	v_y
0.000000	30.820000	62.940000	61.000000	1.000000	109.000000	59.000000	0.000000	0.000000
0.010000	30.820000	62.940000	91.000000	0.000000	109.000000	59.000000	0.000000	0.000000
0.020000	30.820000	62.940000	163.000000	0.000000	109.000000	59.000000	0.000000	0.000000
0.030000	30.820000	62.940000	225.000000	0.000000	109.000000	59.000000	0.000000	0.000000
0.040000	30.820000	62.940000	274.000000	0.000000	109.000000	59.000000	0.000000	0.000000
0.050000	31.160000	63.370000	289.000000	0.000000	109.000000	59.000000	34.000000	43.000000
0.060000	31.370000	63.770000	314.000000	0.000000	109.000000	59.000000	21.000000	40.000000
0.070000	31.580000	64.300000	344.000000	0.000000	107.000000	59.000000	21.000000	53.000000
0.080000	31.780000	64.930000	349.000000	0.000000	107.000000	59.000000	20.000000	63.000000
0.090000	31.940000	65.820000	335.000000	0.000000	107.000000	59.000000	16.000000	89.000000
0.100000	32.070000	66.920000	329.000000	0.000000	106.000000	58.000000	13.000000	110.000000
0.110000	32.190000	68.170000	324.000000	0.000000	106.000000	58.000000	12.000000	125.000000
0.120000	32.310000	69.020000	322.000000	0.000000	108.000000	58.000000	12.000000	85.000000
0.130000	32.310000	69.410000	330.000000	0.000000	108.000000	58.000000	0.000000	39.000000
0.140000	32.240000	69.490000	333.000000	0.000000	110.000000	58.000000	-7.000000	8.000000
0.150000	32.070000	69.420000	336.000000	0.000000	112.000000	58.000000	-17.000000	-7.000000
0.160000	31.660000	68.760000	334.000000	0.000000	113.000000	58.000000	-41.000000	-66.000000
0.170000	31.100000	67.710000	338.000000	0.000000	113.000000	58.000000	-56.000000	-105.000000
0.180000	30.380000	66.160000	341.000000	0.000000	114.000000	59.000000	-72.000000	-155.000000
0.190000	29.400000	64.350000	358.000000	0.000000	114.000000	59.000000	-98.000000	-181.000000
0.200000	28.250000	62.360000	396.000000	0.000000	114.000000	59.000000	-115.000000	-199.000000
0.210000	26.950000	60.730000	417.000000	0.000000	113.000000	59.000000	-130.000000	-163.000000
0.220000	25.690000	59.520000	448.000000	0.000000	111.000000	59.000000	-126.000000	-121.000000
0.230000	24.660000	58.590000	447.000000	0.000000	108.000000	60.000000	-103.000000	-93.000000
0.240000	23.760000	57.850000	445.000000	0.000000	106.000000	60.000000	-90.000000	-74.000000
0.250000	22.900000	57.460000	453.000000	0.000000	102.000000	60.000000	-86.000000	-39.000000
0.260000	22.280000	57.300000	445.000000	0.000000	101.000000	61.000000	-62.000000	-16.000000
0.270000	21.830000	57.540000	433.000000	0.000000	99.000000	61.000000	-45.000000	24.000000
0.280000	21.630000	58.180000	405.000000	0.000000	99.000000	61.000000	-20.000000	64.000000
0.290000	21.480000	59.100000	386.000000	0.000000	97.000000	60.000000	-15.000000	92.000000
0.300000	21.600000	60.760000	342.000000	0.000000	97.000000	60.000000	12.000000	166.000000
0.310000	21.890000	63.120000	334.000000	0.000000	97.000000	60.000000	29.000000	236.000000
0.320000	22.260000	65.950000	358.000000	0.000000	98.000000	59.000000	37.000000	283.000000
0.330000	22.810000	67.960000	361.000000	0.000000	100.000000	59.000000	55.000000	201.000000
0.340000	23.480000	69.310000	359.000000	0.000000	103.000000	58.000000	67.000000	135.000000
0.350000	24.140000	70.210000	369.000000	0.000000	105.000000	59.000000	66.000000	90.000000
0.360000	24.740000	70.350000	386.000000	0.000000	109.000000	59.000000	60.000000	14.000000
0.370000	25.260000	69.990000	399.000000	0.000000	110.000000	58.000000	52.000000	-36.000000
0.380000	25.750000	69.300000	420.000000	0.000000	113.000000	59.000000	49.000000	-69.000000
0.390000	25.900000	68.130000	441.000000	0.000000	114.000000	59.000000	15.000000	-117.000000
0.400000	25.740000	66.950000	448.000000	0.000000	115.000000	60.000000	-16.000000	-118.000000
0.410000	25.370000	65.760000	463.000000	0.000000	115.000000	60.000000	-37.000000	-119.000000
0.420000	24.910000	64.670000	469.000000	0.000000	115.000000	60.000000	-46.000000	-109.000000
0.430000	24.470000	63.920000	471.000000	0.000000	113.000000	60.000000	-44.000000	-75.000000
0.440000	24.220000	63.410000	469.000000	0.000000	112.000000	60.000000	-25.000000	-51.000000
0.450000	24.100000	63.250000	455.000000	0.000000	110.000000	60.000000	-12.000000	-16.000000
0.460000	24.150000	63.440000	444.000000	0.000000	110.000000	60.000000	5.000000	19.000000
0.470000	24.240000	63.860000	414.000000	0.000000	108.000000	61.000000	9.000000	42.000000
0.480000	24.590000	64.820000	409.000000	0.000000	108.000000	61.000000	35.000000	96.000000
0.490000	25.100000	65.750000	404.000000	0.000000	108.000000	60.000000	51.000000	93.000000
0.500000	25.600000	66.170000	389.000000	0.000000	108.000000	61.000000	50.000000	42.000000
0.510000	25.880000	66.270000	409.000000	0.000000	108.000000	61.000000	28.000000	10.000000
0.520000	26.000000	66.030000	422.000000	0.000000	108.000000	61.000000	12.000000	-24.000000
0.530000	26.070000	65.760000	452.000000	0.000000	109.000000	62.000000	7.000000	-27.000000
0.540000	25.970000	65.300000	480.000000	0.000000	109.000000	62.000000	-10.000000	-46.000000
0.550000	25.750000	64.740000	498.000000	0.000000	109.000000	62.000000	-22.000000	-56.000000
0.560000	25.630000	64.390000	489.000000	0.000000	109.000000	62.000000	-12.000000	-35.000000
0.570000	25.570000	64.200000	496.000000	0.000000	109.000000	62.000000	-6.000000	-19.000000
0.580000	25.570000	64.110000	460.000000	0.000000	111.000000	61.000000	0.000000	-9.000000
0.590000	25.720000	64.110000	439.000000	0.000000	111.000000	61.000000	15.000000	0.000000
0.600000	25.890000	64.270000	439.000000	0.000000	111.000000	61.000000	17.000000	16.000000
0.610000	26.150000	64.480000	439.000000	0.000000	111.000000	61.000000	26.000000	21.000000
0.620000	26.430000	64.740000	446.000000	0.000000	111.000000	61.000000	28.000000	26.000000
0.630000	26.710000	65.000000	444.000000	0.000000	111.000000	61.000000	28.000000	26.000000
0.640000	26.920000	65.120000	444.000000	0.000000	111.000000	61.000000	21.000000	12.000000
0.650000	27.160000	65.120000	443.000000	0.000000	109.000000	62.000000	24.000000	0.000000
0.660000	27.350000	65.120000	448.000000	0.000000	108.000000	61.000000	19.000000	0.000000
0.670000	27.510000	65.170000	449.000000	0.000000	108.000000	61.000000	16.000000	5.000000
0.680000	27.730000	65.170000	448.000000	0.000000	108.000000	61.000000	22.000000	0.000000
0.690000	27.950000	65.170000	449.000000	0.000000	108.000000	60.000000	22.000000	0.000000
0.700000	28.190000	65.170000	440.000000	0.000000	110.000000	60.000000	24.000000	0.000000
0.710000	28.350000	65.170000	455.000000	0.000000	110.000000	60.000000	16.000000	0.000000
0.720000	28.450000	65.120000	468.000000	0.000000	110.000000	60.000000	10.000000	-5.000000
0.730000	28.600000	65.120000	467.000000	0.000000	110.000000	60.000000	15.000000	0.000000
0.740000	28.730000	65.040000	467.000000	0.000000	110.000000	60.000000	13.000000	-8.000000
0.750000	28.850000	65.040000	470.000000	0.000000	110.000000	60.000000	12.000000	0.000000
0.760000	29.100000	65.040000	467.000000	0.000000	110.000000	60.000000	25.000000	0.000000
0.770000	29.350000	65.110000	467.000000	0.000000	110.000000	60.000000	25.000000	7.000000
0.780000	29.600000	65.170000	474.000000	0.000000	109.000000	60.000000	25.000000	6.000000
0.790000	29.850000	65.170000	471.000000	0.000000	109.000000	60.000000	25.000000	0.000000
0.800000	30.060000	65.220000	460.000000	0.000000	109.000000	60.000000	21.000000	5.000000
0.810000	30.250000	65.220000	460.000000	0.000000	109.000000	60.000000	19.000000	0.000000
0.820000	30.490000	65.220000	458.000000	0.000000	109.000000	59.000000	24.000000	0.000000
0.830000	30.780000	65.220000	456.000000	0.000000	109.000000	59.000000	29.000000	0.000000
0.840000	31.060000	65.220000	456.000000	0.000000	109.000000	59.000000	28.000000	0.000000
0.850000	31.310000	65.220000	456.000000	0.000000	109.000000	59.000000	25.000000	0.000000
0.860000	31.560000	65.220000	456.000000	0.000000	109.000000	59.000000	25.000000	0.000000
0.870000	31.750000	65.220000	458.000000	0.000000	109.000000	59.000000	19.000000	0.000000
0.880000	31.890000	65.150000	455.000000	0.000000	109.000000	59.000000	14.000000	-7.000000
0.890000	31.990000	65.150000	452.000000	0.000000	108.000000	58.000000	10.000000	0.000000
0.900000	32.090000	65.080000	448.000000	0.000000	108.000000	58.000000	10.000000	-7.000000
0.910000	32.180000	65.080000	418.000000	0.000000	108.000000	58.000000	9.000000	0.000000
0.920000	32.340000	65.080000	422.000000	0.000000	108.000000	58.000000	16.000000	0.000000
0.930000	32.490000	65.160000	412.000000	0.000000	108.000000	58.000000	15.000000	8.000000
0.940000	32.540000	65.220000	413.000000	0.000000	108.000000	58.000000	5.000000	6.000000
0.950000	32.540000	65.270000	413.000000	0.000000	108.000000	58.000000	0.000000	5.000000
0.960000	32.390000	65.270000	412.000000	0.000000	108.000000	58.000000	-15.000000	0.000000
0.970000	32.080000	65.270000	379.000000	0.000000	108.000000	58.000000	-31.000000	0.000000
0.980000	31.660000	65.160000	381.000000	0.000000	108.000000	58.000000	-42.000000	-11.000000
0.990000	31.110000	65.050000	379.000000	0.000000	108.000000	58.000000	-55.000000	-11.000000
1.000000	30.600000	64.960000	379.000000	0.000000	108.000000	58.000000	-51.000000	-9.000000
1.010000	30.150000	64.880000	379.000000	0.000000	108.000000	58.000000	-45.000000	-8.000000
1.020000	29.690000	64.960000	309.000000	0.000000	108.000000	58.000000	-46.000000	8.000000
1.030000	29.160000	65.140000	317.000000	0.000000	109.000000	59.000000	-53.000000	18.000000
1.040000	28.590000	65.470000	314.000000	0.000000	110.000000	58.000000	-57.000000	33.000000
1.050000	28.190000	66.120000	319.000000	0.000000	109.000000	59.000000	-40.000000	65.000000
1.060000	28.030000	66.990000	340.000000	0.000000	109.000000	60.000000	-16.000000	87.000000
1.070000	28.030000	67.810000	329.000000	0.000000	109.000000	60.000000	0.000000	82.000000
1.080000	28.250000	68.780000	317.000000	0.000000	112.000000	60.000000	22.000000	97.000000
1.090000	28.530000	69.840000	319.000000	0.000000	112.000000	60.000000	28.000000	106.000000
1.100000	28.890000	70.310000	327.000000	0.000000	114.000000	61.000000	36.000000	47.000000
1.110000	29.280000	70.480000	354.000000	0.000000	116.000000	60.000000	39.000000	17.000000
1.120000	29.560000	70.480000	398.000000	0.000000	119.000000	61.000000	28.000000	0.000000
1.130000	29.760000	69.990000	433.000000	0.000000	120.000000	60.000000	20.000000	-49.000000
1.140000	29.760000	68.960000	469.000000	0.000000	120.000000	60.000000	0.000000	-103.000000
1.150000	29.360000	67.550000	491.000000	0.000000	122.000000	60.000000	-40.000000	-141.000000
1.160000	28.670000	66.150000	520.000000	0.000000	120.000000	60.000000	-69.000000	-140.000000
1.170000	27.490000	64.720000	516.000000	0.000000	120.000000	60.000000	-118.000000	-143.000000
1.180000	25.770000	63.130000	537.000000	0.000000	118.000000	60.000000	-172.000000	-159.000000
1.190000	23.700000	61.450000	526.000000	0.000000	116.000000	60.000000	-207.000000	-168.000000
1.200000	21.690000	59.940000	546.000000	0.000000	113.000000	60.000000	-201.000000	-151.000000
1.210000	19.720000	58.740000	548.000000	0.000000	112.000000	60.000000	-197.000000	-120.000000
1.220000	18.350000	57.750000	553.000000	0.000000	110.000000	60.000000	-137.000000	-99.000000
1.230000	17.360000	57.370000	562.000000	0.000000	108.000000	60.000000	-99.000000	-38.000000
1.240000	16.660000	57.370000	557.000000	0.000000	106.000000	60.000000	-70.000000	0.000000
1.250000	16.360000	57.550000	554.000000	0.000000	104.000000	60.000000	-30.000000	18.000000
1.260000	16.360000	57.850000	554.000000	0.000000	103.000000	61.000000	0.000000	30.000000
1.270000	16.710000	58.230000	561.000000	0.000000	103.000000	61.000000	35.000000	38.000000
1.280000	17.520000	58.670000	589.000000	0.000000	103.000000	61.000000	81.000000	44.000000
1.290000	18.610000	59.050000	628.000000	0.000000	103.000000	61.000000	109.000000	38.000000
1.300000	19.910000	59.440000	675.000000	0.000000	103.000000	61.000000	130.000000	39.000000
1.310000	21.640000	59.820000	691.000000	0.000000	103.000000	61.000000	173.000000	38.000000
1.320000	23.660000	60.310000	716.000000	0.000000	105.000000	61.000000	202.000000	49.000000
1.330000	25.810000	60.870000	728.000000	0.000000	105.000000	61.000000	215.000000	56.000000
1.340000	27.810000	61.220000	743.000000	0.000000	107.000000	61.000000	200.000000	35.000000
1.350000	29.700000	61.550000	755.000000	0.000000	108.000000	61.000000	189.000000	33.000000
1.360000	31.320000	61.700000	755.000000	0.000000	108.000000	61.000000	162.000000	15.000000
1.370000	32.560000	61.750000	755.000000	0.000000	108.000000	61.000000	124.000000	5.000000
1.380000	33.540000	61.670000	751.000000	0.000000	111.000000	61.000000	98.000000	-8.000000
1.390000	33.970000	61.550000	746.000000	0.000000	111.000000	61.000000	43.000000	-12.000000
1.400000	34.160000	61.360000	740.000000	0.000000	111.000000	61.000000	19.000000	-19.000000
1.410000	34.160000	61.170000	739.000000	0.000000	111.000000	61.000000	0.000000	-19.000000
1.420000	34.160000	61.010000	736.000000	0.000000	111.000000	61.000000	0.000000	-16.000000
1.430000	34.100000	60.870000	737.000000	0.000000	113.000000	61.000000	-6.000000	-14.000000
1.440000	34.040000	60.870000	733.000000	0.000000	113.000000	61.000000	-6.000000	0.000000
1.450000	34.040000	60.780000	722.000000	0.000000	113.000000	61.000000	0.000000	-9.000000
1.460000	34.040000	60.780000	727.000000	0.000000	113.000000	61.000000	0.000000	0.000000
1.470000	33.980000	60.840000	722.000000	0.000000	113.000000	61.000000	-6.000000	6.000000
1.480000	33.980000	60.900000	728.000000	0.000000	111.000000	61.000000	0.000000	6.000000
1.490000	33.930000	60.960000	724.000000	0.000000	111.000000	61.000000	-5.000000	6.000000
1.500000	33.930000	61.040000	691.000000	0.000000	111.000000	61.000000	0.000000	8.000000
1.510000	33.930000	61.140000	697.000000	0.000000	111.000000	61.000000	0.000000	10.000000
1.520000	33.880000	61.190000	679.000000	0.000000	111.000000	61.000000	-5.000000	5.000000
1.530000	33.880000	61.190000	671.000000	0.000000	111.000000	61.000000	0.000000	0.000000
1.540000	33.880000	61.190000	659.000000	0.000000	111.000000	61.000000	0.000000	0.000000
1.550000	33.880000	61.190000	646.000000	0.000000	111.000000	61.000000	0.000000	0.000000
1.560000	33.830000	61.190000	641.000000	0.000000	111.000000	61.000000	-5.000000	0.000000
1.570000	33.740000	61.190000	617.000000	0.000000	111.000000	61.000000	-9.000000	0.000000
1.580000	33.460000	61.110000	599.000000	0.000000	111.000000	61.000000	-28.000000	-8.000000
1.590000	33.010000	61.040000	561.000000	0.000000	111.000000	61.000000	-45.000000	-7.000000
1.600000	32.440000	61.040000	542.000000	0.000000	113.000000	61.000000	-57.000000	0.000000
1.610000	31.750000	61.040000	543.000000	0.000000	113.000000	61.000000	-69.000000	0.000000
1.620000	31.130000	61.040000	548.000000	0.000000	112.000000	60.000000	-62.000000	0.000000
1.630000	30.550000	61.040000	548.000000	0.000000	112.000000	60.000000	-58.000000	0.000000
1.640000	30.330000	61.130000	543.000000	0.000000	112.000000	60.000000	-22.000000	9.000000
1.650000	30.330000	61.130000	536.000000	0.000000	113.000000	61.000000	0.000000	0.000000
1.660000	30.430000	61.320000	540.000000	0.000000	113.000000	61.000000	10.000000	19.000000
1.670000	30.790000	61.580000	540.000000	0.000000	113.000000	61.000000	36.000000	26.000000
1.680000	31.160000	61.770000	540.000000	0.000000	113.000000	61.000000	37.000000	19.000000
1.690000	31.520000	61.920000	541.000000	0.000000	113.000000	61.000000	36.000000	15.000000
1.700000	31.720000	62.000000	536.000000	0.000000	113.000000	61.000000	20.000000	8.000000
1.710000	31.850000	62.000000	551.000000	0.000000	113.000000	61.000000	13.000000	0.000000
1.720000	31.850000	61.940000	559.000000	0.000000	113.000000	61.000000	0.000000	-6.000000
1.730000	31.770000	61.780000	562.000000	0.000000	113.000000	61.000000	-8.000000	-16.000000
1.740000	31.590000	61.560000	561.000000	0.000000	113.000000	61.000000	-18.000000	-22.000000
1.750000	31.410000	61.390000	550.000000	0.000000	113.000000	61.000000	-18.000000	-17.000000
1.760000	31.410000	61.310000	537.000000	0.000000	112.000000	60.000000	0.000000	-8.000000
1.770000	31.510000	61.310000	530.000000	0.000000	112.000000	60.000000	10.000000	0.000000
1.780000	31.680000	61.310000	529.000000	0.000000	112.000000	60.000000	17.000000	0.000000
1.790000	31.850000	61.490000	533.000000	0.000000	110.000000	60.000000	17.000000	18.000000
1.800000	32.040000	61.680000	538.000000	0.000000	110.000000	60.000000	19.000000	19.000000
1.810000	32.110000	61.680000	536.000000	0.000000	110.000000	60.000000	7.000000	0.000000
1.820000	32.110000	61.680000	546.000000	0.000000	110.000000	60.000000	0.000000	0.000000
1.830000	32.160000	61.680000	557.000000	0.000000	110.000000	60.000000	5.000000	0.000000
1.840000	32.240000	61.530000	562.000000	0.000000	110.000000	60.000000	8.000000	-15.000000
1.850000	32.380000	61.410000	561.000000	0.000000	110.000000	60.000000	14.000000	-12.000000
1.860000	32.650000	61.410000	559.000000	0.000000	110.000000	60.000000	27.000000	0.000000
1.870000	33.010000	61.410000	556.000000	0.000000	110.000000	60.000000	36.000000	0.000000
1.880000	33.320000	61.510000	551.000000	0.000000	110.000000	60.000000	31.000000	10.000000
1.890000	33.640000	61.590000	521.000000	0.000000	110.000000	60.000000	32.000000	8.000000
1.900000	33.840000	61.650000	259.000000	0.000000	110.000000	60.000000	20.000000	6.000000
