t	x	y	pressure	penup	azimuth	inclination	v_x	v_y
0.000000	14.480000	31.440000	173.000000	1.000000	163.000000	54.000000	0.000000	0.000000
0.010000	13.610000	31.670000	191.000000	0.000000	163.000000	55.000000	-87.000000	23.000000
0.020000	13.170000	31.670000	214.000000	0.000000	163.000000	55.000000	-44.000000	0.000000
0.030000	12.890000	31.550000	269.000000	0.000000	163.000000	55.000000	-28.000000	-12.000000
0.040000	13.130000	31.440000	307.000000	0.000000	163.000000	55.000000	24.000000	-11.000000
0.050000	13.720000	31.220000	339.000000	0.000000	164.000000	55.000000	59.000000	-22.000000
0.060000	15.580000	30.890000	366.000000	0.000000	164.000000	55.000000	186.000000	-33.000000
0.070000	18.820000	30.580000	368.000000	0.000000	165.000000	55.000000	324.000000	-31.000000
0.080000	22.970000	30.300000	368.000000	0.000000	167.000000	55.000000	415.000000	-28.000000
0.090000	26.730000	29.920000	369.000000	0.000000	168.000000	55.000000	376.000000	-38.000000
0.100000	29.380000	29.520000	369.000000	0.000000	170.000000	56.000000	265.000000	-40.000000
0.110000	31.290000	29.130000	356.000000	0.000000	173.000000	55.000000	191.000000	-39.000000
0.120000	31.700000	28.700000	361.000000	0.000000	174.000000	55.000000	41.000000	-43.000000
0.130000	31.270000	28.250000	381.000000	0.000000	176.000000	55.000000	-43.000000	-45.000000
0.140000	30.290000	27.770000	404.000000	0.000000	177.000000	56.000000	-98.000000	-48.000000
0.150000	28.740000	27.260000	448.000000	0.000000	179.000000	56.000000	-155.000000	-51.000000
0.160000	26.830000	26.780000	480.000000	0.000000	179.000000	56.000000	-191.000000	-48.000000
0.170000	24.680000	26.340000	514.000000	0.000000	178.000000	57.000000	-215.000000	-44.000000
0.180000	22.300000	25.660000	535.000000	0.000000	178.000000	58.000000	-238.000000	-68.000000
0.190000	19.770000	24.970000	550.000000	0.000000	177.000000	58.000000	-253.000000	-69.000000
0.200000	17.150000	24.430000	559.000000	0.000000	177.000000	59.000000	-262.000000	-54.000000
0.210000	15.640000	24.010000	556.000000	0.000000	177.000000	60.000000	-151.000000	-42.000000
0.220000	15.020000	23.810000	554.000000	0.000000	175.000000	60.000000	-62.000000	-20.000000
0.230000	15.020000	23.910000	554.000000	0.000000	176.000000	61.000000	0.000000	10.000000
0.240000	15.180000	24.200000	546.000000	0.000000	176.000000	61.000000	16.000000	29.000000
0.250000	15.720000	25.130000	542.000000	0.000000	176.000000	61.000000	54.000000	93.000000
0.260000	16.510000	26.230000	540.000000	0.000000	176.000000	61.000000	79.000000	110.000000
0.270000	17.360000	27.440000	530.000000	0.000000	176.000000	61.000000	85.000000	121.000000
0.280000	18.170000	28.930000	515.000000	0.000000	175.000000	60.000000	81.000000	149.000000
0.290000	18.870000	30.380000	519.000000	0.000000	172.000000	59.000000	70.000000	145.000000
0.300000	19.510000	31.770000	522.000000	0.000000	170.000000	59.000000	64.000000	139.000000
0.310000	19.860000	32.410000	502.000000	0.000000	167.000000	57.000000	35.000000	64.000000
0.320000	19.930000	32.570000	502.000000	0.000000	166.000000	56.000000	7.000000	16.000000
0.330000	19.810000	32.070000	512.000000	0.000000	165.000000	55.000000	-12.000000	-50.000000
0.340000	19.180000	31.010000	526.000000	0.000000	164.000000	54.000000	-63.000000	-106.000000
0.350000	18.460000	29.580000	536.000000	0.000000	165.000000	53.000000	-72.000000	-143.000000
0.360000	17.670000	27.960000	556.000000	0.000000	164.000000	54.000000	-79.000000	-162.000000
0.370000	17.000000	26.290000	567.000000	0.000000	164.000000	54.000000	-67.000000	-167.000000
0.380000	16.340000	24.580000	570.000000	0.000000	165.000000	55.000000	-66.000000	-171.000000
0.390000	15.740000	23.100000	533.000000	0.000000	165.000000	56.000000	-60.000000	-148.000000
0.400000	15.430000	22.050000	381.000000	0.000000	166.000000	57.000000	-31.000000	-105.000000
0.410000	15.290000	21.300000	101.000000	0.000000	167.000000	57.000000	-14.000000	-75.000000
0.420000	15.290000	21.300000	0.000000	1.000000	167.000000	58.000000	0.000000	0.000000
0.430000	16.100000	21.480000	0.000000	0.000000	168.000000	59.000000	81.000000	18.000000
0.440000	16.830000	22.320000	0.000000	0.000000	168.000000	59.000000	73.000000	84.000000
0.450000	17.350000	23.480000	0.000000	0.000000	168.000000	59.000000	52.000000	116.000000
0.460000	17.800000	24.630000	0.000000	0.000000	166.000000	59.000000	45.000000	115.000000
0.470000	18.210000	26.080000	0.000000	0.000000	163.000000	59.000000	41.000000	145.000000
0.480000	18.960000	27.720000	0.000000	0.000000	162.000000	58.000000	75.000000	164.000000
0.490000	19.940000	29.500000	0.000000	0.000000	159.000000	57.000000	98.000000	178.000000
0.500000	21.070000	30.850000	0.000000	0.000000	157.000000	57.000000	113.000000	135.000000
0.510000	22.130000	31.910000	0.000000	0.000000	157.000000	56.000000	106.000000	106.000000
0.520000	22.750000	32.800000	0.000000	0.000000	157.000000	56.000000	62.000000	89.000000
0.530000	23.070000	33.370000	0.000000	0.000000	156.000000	55.000000	32.000000	57.000000
0.540000	23.010000	33.720000	0.000000	0.000000	157.000000	54.000000	-6.000000	35.000000
0.550000	22.650000	33.950000	0.000000	0.000000	158.000000	53.000000	-36.000000	23.000000
0.560000	22.100000	33.950000	0.000000	0.000000	159.000000	53.000000	-55.000000	0.000000
0.570000	21.290000	33.700000	0.000000	0.000000	160.000000	52.000000	-81.000000	-25.000000
0.580000	20.510000	33.160000	0.000000	0.000000	160.000000	52.000000	-78.000000	-54.000000
0.590000	19.740000	32.530000	0.000000	0.000000	160.000000	52.000000	-77.000000	-63.000000
0.600000	19.490000	31.850000	0.000000	0.000000	158.000000	52.000000	-25.000000	-68.000000
0.610000	19.180000	31.350000	0.000000	0.000000	158.000000	53.000000	-31.000000	-50.000000
0.620000	18.820000	30.910000	0.000000	0.000000	156.000000	53.000000	-36.000000	-44.000000
0.630000	18.750000	30.510000	0.000000	0.000000	156.000000	53.000000	-7.000000	-40.000000
0.640000	18.830000	30.350000	0.000000	0.000000	153.000000	54.000000	8.000000	-16.000000
0.650000	19.010000	30.350000	0.000000	0.000000	153.000000	55.000000	18.000000	0.000000
0.660000	19.270000	30.480000	0.000000	0.000000	153.000000	55.000000	26.000000	13.000000
0.670000	19.520000	30.770000	0.000000	0.000000	153.000000	55.000000	25.000000	29.000000
0.680000	19.770000	31.090000	0.000000	0.000000	151.000000	54.000000	25.000000	32.000000
0.690000	19.950000	31.430000	0.000000	0.000000	153.000000	55.000000	18.000000	34.000000
0.700000	20.140000	31.860000	0.000000	0.000000	153.000000	55.000000	19.000000	43.000000
0.710000	20.140000	31.860000	83.000000	1.000000	153.000000	55.000000	0.000000	0.000000
0.720000	20.520000	33.100000	98.000000	0.000000	154.000000	55.000000	38.000000	124.000000
0.730000	20.650000	33.690000	107.000000	0.000000	155.000000	54.000000	13.000000	59.000000
0.740000	20.760000	33.930000	177.000000	0.000000	155.000000	54.000000	11.000000	24.000000
0.750000	20.760000	33.930000	203.000000	0.000000	156.000000	55.000000	0.000000	0.000000
0.760000	20.760000	33.830000	240.000000	0.000000	156.000000	55.000000	0.000000	-10.000000
0.770000	20.660000	33.520000	265.000000	0.000000	158.000000	55.000000	-10.000000	-31.000000
0.780000	20.520000	33.080000	277.000000	0.000000	158.000000	55.000000	-14.000000	-44.000000
0.790000	20.360000	32.530000	309.000000	0.000000	158.000000	55.000000	-16.000000	-55.000000
0.800000	20.290000	31.990000	315.000000	0.000000	158.000000	55.000000	-7.000000	-54.000000
0.810000	20.230000	31.470000	327.000000	0.000000	158.000000	55.000000	-6.000000	-52.000000
0.820000	20.170000	30.990000	332.000000	0.000000	158.000000	55.000000	-6.000000	-48.000000
0.830000	20.110000	30.730000	329.000000	0.000000	156.000000	55.000000	-6.000000	-26.000000
0.840000	20.110000	30.610000	335.000000	0.000000	156.000000	55.000000	0.000000	-12.000000
0.850000	20.160000	30.610000	339.000000	0.000000	156.000000	55.000000	5.000000	0.000000
0.860000	20.210000	30.850000	342.000000	0.000000	156.000000	55.000000	5.000000	24.000000
0.870000	20.320000	31.200000	345.000000	0.000000	156.000000	55.000000	11.000000	35.000000
0.880000	20.500000	31.710000	344.000000	0.000000	156.000000	55.000000	18.000000	51.000000
0.890000	20.750000	32.220000	337.000000	0.000000	156.000000	55.000000	25.000000	51.000000
0.900000	20.990000	32.880000	317.000000	0.000000	156.000000	55.000000	24.000000	66.000000
0.910000	21.230000	33.640000	314.000000	0.000000	156.000000	55.000000	24.000000	76.000000
0.920000	21.500000	34.320000	309.000000	0.000000	156.000000	55.000000	27.000000	68.000000
0.930000	21.620000	34.650000	307.000000	0.000000	156.000000	55.000000	12.000000	33.000000
0.940000	21.620000	34.740000	305.000000	0.000000	156.000000	55.000000	0.000000	9.000000
0.950000	21.620000	34.600000	307.000000	0.000000	155.000000	55.000000	0.000000	-14.000000
0.960000	21.620000	34.310000	309.000000	0.000000	154.000000	55.000000	0.000000	-29.000000
0.970000	21.500000	33.930000	309.000000	0.000000	154.000000	55.000000	-12.000000	-38.000000
0.980000	21.440000	33.460000	317.000000	0.000000	154.000000	55.000000	-6.000000	-47.000000
0.990000	21.380000	32.990000	320.000000	0.000000	154.000000	55.000000	-6.000000	-47.000000
1.000000	21.440000	32.570000	320.000000	0.000000	154.000000	55.000000	6.000000	-42.000000
1.010000	21.570000	32.190000	322.000000	0.000000	154.000000	55.000000	13.000000	-38.000000
1.020000	21.680000	31.930000	324.000000	0.000000	155.000000	54.000000	11.000000	-26.000000
1.030000	21.810000	31.820000	327.000000	0.000000	155.000000	54.000000	13.000000	-11.000000
1.040000	22.010000	31.820000	322.000000	0.000000	155.000000	54.000000	20.000000	0.000000
1.050000	22.280000	31.980000	319.000000	0.000000	155.000000	54.000000	27.000000	16.000000
1.060000	22.520000	32.280000	315.000000	0.000000	153.000000	54.000000	24.000000	30.000000
1.070000	22.730000	32.650000	314.000000	0.000000	153.000000	54.000000	21.000000	37.000000
1.080000	22.850000	33.000000	307.000000	0.000000	153.000000	54.000000	12.000000	35.000000
1.090000	22.980000	33.390000	311.000000	0.000000	153.000000	54.000000	13.000000	39.000000
1.100000	23.110000	33.800000	307.000000	0.000000	153.000000	54.000000	13.000000	41.000000
1.110000	23.190000	34.010000	307.000000	0.000000	153.000000	54.000000	8.000000	21.000000
1.120000	23.240000	34.010000	311.000000	0.000000	153.000000	54.000000	5.000000	0.000000
1.130000	23.240000	34.010000	314.000000	0.000000	153.000000	54.000000	0.000000	0.000000
1.140000	23.160000	33.790000	339.000000	0.000000	153.000000	54.000000	-8.000000	-22.000000
1.150000	23.080000	33.460000	354.000000	0.000000	153.000000	54.000000	-8.000000	-33.000000
1.160000	22.920000	33.050000	373.000000	0.000000	153.000000	54.000000	-16.000000	-41.000000
1.170000	22.780000	32.630000	374.000000	0.000000	153.000000	54.000000	-14.000000	-42.000000
1.180000	22.640000	32.220000	381.000000	0.000000	153.000000	54.000000	-14.000000	-41.000000
1.190000	22.560000	31.810000	386.000000	0.000000	153.000000	54.000000	-8.000000	-41.000000
1.200000	22.510000	31.490000	376.000000	0.000000	153.000000	54.000000	-5.000000	-32.000000
1.210000	22.510000	31.240000	334.000000	0.000000	153.000000	54.000000	0.000000	-25.000000
1.220000	22.510000	31.020000	200.000000	0.000000	153.000000	54.000000	0.000000	-22.000000
1.230000	22.590000	30.950000	3.000000	1.000000	153.000000	54.000000	0.000000	0.000000
1.240000	22.590000	30.950000	0.000000	0.000000	152.000000	54.000000	0.000000	0.000000
1.250000	23.010000	31.190000	0.000000	0.000000	152.000000	54.000000	42.000000	24.000000
1.260000	23.250000	31.400000	0.000000	0.000000	152.000000	54.000000	24.000000	21.000000
1.270000	23.470000	31.630000	0.000000	0.000000	152.000000	54.000000	22.000000	23.000000
1.280000	23.670000	31.900000	0.000000	0.000000	152.000000	54.000000	20.000000	27.000000
1.290000	23.670000	31.900000	58.000000	1.000000	152.000000	54.000000	0.000000	0.000000
1.300000	24.050000	32.370000	141.000000	0.000000	152.000000	54.000000	38.000000	47.000000
1.310000	24.110000	32.430000	215.000000	0.000000	152.000000	54.000000	6.000000	6.000000
1.320000	24.110000	32.380000	237.000000	0.000000	152.000000	54.000000	0.000000	-5.000000
1.330000	24.060000	32.300000	270.000000	0.000000	153.000000	53.000000	-5.000000	-8.000000
1.340000	24.010000	32.090000	277.000000	0.000000	153.000000	53.000000	-5.000000	-21.000000
1.350000	23.940000	31.800000	284.000000	0.000000	153.000000	53.000000	-7.000000	-29.000000
1.360000	23.890000	31.510000	287.000000	0.000000	153.000000	53.000000	-5.000000	-29.000000
1.370000	23.890000	31.240000	285.000000	0.000000	153.000000	53.000000	0.000000	-27.000000
1.380000	23.890000	30.970000	241.000000	0.000000	153.000000	53.000000	0.000000	-27.000000
1.390000	23.890000	30.740000	212.000000	0.000000	153.000000	53.000000	0.000000	-23.000000
1.400000	23.890000	30.550000	195.000000	0.000000	153.000000	53.000000	0.000000	-19.000000
1.410000	23.960000	30.440000	170.000000	0.000000	152.000000	54.000000	7.000000	-11.000000
1.420000	24.050000	30.440000	158.000000	0.000000	152.000000	54.000000	9.000000	0.000000
1.430000	24.180000	30.440000	146.000000	0.000000	152.000000	54.000000	13.000000	0.000000
1.440000	24.320000	30.590000	149.000000	0.000000	152.000000	54.000000	14.000000	15.000000
1.450000	24.460000	30.790000	172.000000	0.000000	152.000000	54.000000	14.000000	20.000000
1.460000	24.600000	31.040000	218.000000	0.000000	152.000000	54.000000	14.000000	25.000000
1.470000	24.690000	31.250000	241.000000	0.000000	152.000000	54.000000	9.000000	21.000000
1.480000	24.740000	31.460000	277.000000	0.000000	152.000000	54.000000	5.000000	21.000000
1.490000	24.790000	31.660000	292.000000	0.000000	152.000000	54.000000	5.000000	20.000000
1.500000	24.850000	31.850000	309.000000	0.000000	152.000000	54.000000	6.000000	19.000000
1.510000	24.950000	32.010000	309.000000	0.000000	153.000000	53.000000	10.000000	16.000000
1.520000	25.050000	32.120000	309.000000	0.000000	153.000000	53.000000	10.000000	11.000000
1.530000	25.180000	32.120000	297.000000	0.000000	153.000000	53.000000	13.000000	0.000000
1.540000	25.280000	32.120000	279.000000	0.000000	153.000000	53.000000	10.000000	0.000000
1.550000	25.400000	32.020000	255.000000	0.000000	153.000000	53.000000	12.000000	-10.000000
1.560000	25.510000	31.890000	242.000000	0.000000	153.000000	53.000000	11.000000	-13.000000
1.570000	25.610000	31.740000	256.000000	0.000000	153.000000	53.000000	10.000000	-15.000000
1.580000	25.690000	31.560000	254.000000	0.000000	154.000000	53.000000	8.000000	-18.000000
1.590000	25.770000	31.380000	241.000000	0.000000	154.000000	53.000000	8.000000	-18.000000
1.600000	25.830000	31.200000	241.000000	0.000000	154.000000	53.000000	6.000000	-18.000000
1.610000	25.830000	31.020000	241.000000	0.000000	154.000000	53.000000	0.000000	-18.000000
1.620000	25.830000	30.830000	242.000000	0.000000	154.000000	53.000000	0.000000	-19.000000
1.630000	25.780000	30.680000	256.000000	0.000000	154.000000	53.000000	-5.000000	-15.000000
1.640000	25.780000	30.550000	223.000000	0.000000	154.000000	53.000000	0.000000	-13.000000
1.650000	25.780000	30.470000	132.000000	0.000000	156.000000	53.000000	0.000000	-8.000000
1.660000	25.850000	30.470000	13.000000	1.000000	156.000000	53.000000	0.000000	0.000000
1.670000	25.850000	30.470000	0.000000	0.000000	156.000000	53.000000	0.000000	0.000000
1.680000	26.140000	30.610000	0.000000	0.000000	156.000000	53.000000	29.000000	14.000000
1.690000	26.370000	30.750000	0.000000	0.000000	156.000000	53.000000	23.000000	14.000000
1.700000	26.650000	30.920000	0.000000	0.000000	157.000000	54.000000	28.000000	17.000000
1.710000	26.840000	30.990000	0.000000	0.000000	157.000000	54.000000	19.000000	7.000000
1.720000	26.980000	31.060000	0.000000	0.000000	157.000000	54.000000	14.000000	7.000000
1.730000	27.110000	31.140000	0.000000	0.000000	158.000000	54.000000	13.000000	8.000000
1.740000	27.110000	31.140000	44.000000	1.000000	158.000000	54.000000	0.000000	0.000000
1.750000	27.110000	31.140000	76.000000	0.000000	160.000000	54.000000	0.000000	0.000000
1.760000	27.110000	31.140000	132.000000	0.000000	160.000000	54.000000	0.000000	0.000000
1.770000	26.840000	31.320000	179.000000	0.000000	160.000000	54.000000	-27.000000	18.000000
1.780000	26.710000	31.320000	195.000000	0.000000	160.000000	54.000000	-13.000000	0.000000
1.790000	26.520000	31.320000	218.000000	0.000000	160.000000	54.000000	-19.000000	0.000000
1.800000	26.300000	31.170000	230.000000	0.000000	158.000000	54.000000	-22.000000	-15.000000
1.810000	26.140000	31.030000	235.000000	0.000000	158.000000	54.000000	-16.000000	-14.000000
1.820000	26.010000	30.890000	237.000000	0.000000	158.000000	54.000000	-13.000000	-14.000000
1.830000	25.960000	30.750000	237.000000	0.000000	158.000000	54.000000	-5.000000	-14.000000
1.840000	25.960000	30.610000	244.000000	0.000000	157.000000	54.000000	0.000000	-14.000000
1.850000	26.040000	30.520000	244.000000	0.000000	157.000000	54.000000	8.000000	-9.000000
1.860000	26.140000	30.470000	240.000000	0.000000	157.000000	54.000000	10.000000	-5.000000
1.870000	26.310000	30.470000	226.000000	0.000000	156.000000	53.000000	17.000000	0.000000
1.880000	26.510000	30.570000	217.000000	0.000000	156.000000	53.000000	20.000000	10.000000
1.890000	26.710000	30.690000	203.000000	0.000000	156.000000	53.000000	20.000000	12.000000
1.900000	26.890000	30.860000	196.000000	0.000000	157.000000	54.000000	18.000000	17.000000
1.910000	27.060000	31.030000	198.000000	0.000000	157.000000	54.000000	17.000000	17.000000
1.920000	27.160000	31.170000	200.000000	0.000000	157.000000	54.000000	10.000000	14.000000
1.930000	27.230000	31.300000	210.000000	0.000000	158.000000	54.000000	7.000000	13.000000
1.940000	27.280000	31.300000	218.000000	0.000000	158.000000	54.000000	5.000000	0.000000
1.950000	27.280000	31.300000	206.000000	0.000000	158.000000	54.000000	0.000000	0.000000
1.960000	27.210000	31.200000	207.000000	0.000000	158.000000	54.000000	-7.000000	-10.000000
1.970000	27.140000	31.070000	207.000000	0.000000	158.000000	54.000000	-7.000000	-13.000000
1.980000	27.080000	30.920000	206.000000	0.000000	158.000000	54.000000	-6.000000	-15.000000
1.990000	27.030000	30.770000	222.000000	0.000000	158.000000	54.000000	-5.000000	-15.000000
2.000000	27.030000	30.670000	198.000000	0.000000	158.000000	54.000000	0.000000	-10.000000
2.010000	27.030000	30.590000	107.000000	0.000000	158.000000	54.000000	0.000000	-8.000000
2.020000	27.030000	30.590000	0.000000	1.000000	158.000000	54.000000	0.000000	0.000000
2.030000	27.030000	30.530000	0.000000	0.000000	158.000000	54.000000	0.000000	-6.000000
2.040000	27.150000	30.530000	0.000000	0.000000	158.000000	54.000000	12.000000	0.000000
2.050000	27.260000	30.650000	0.000000	0.000000	158.000000	54.000000	11.000000	12.000000
2.060000	27.400000	30.790000	0.000000	0.000000	158.000000	54.000000	14.000000	14.000000
2.070000	27.580000	30.950000	0.000000	0.000000	160.000000	54.000000	18.000000	16.000000
2.080000	27.740000	31.120000	0.000000	0.000000	160.000000	54.000000	16.000000	17.000000
2.090000	27.870000	31.260000	0.000000	0.000000	160.000000	54.000000	13.000000	14.000000
2.100000	28.010000	31.410000	0.000000	0.000000	161.000000	55.000000	14.000000	15.000000
2.110000	28.130000	31.540000	0.000000	0.000000	161.000000	55.000000	12.000000	13.000000
2.120000	28.130000	31.540000	60.000000	1.000000	161.000000	55.000000	0.000000	0.000000
2.130000	28.130000	31.540000	73.000000	0.000000	163.000000	55.000000	0.000000	0.000000
2.140000	28.130000	31.540000	98.000000	0.000000	163.000000	55.000000	0.000000	0.000000
2.150000	28.130000	31.540000	134.000000	0.000000	163.000000	55.000000	0.000000	0.000000
2.160000	28.130000	31.540000	141.000000	0.000000	163.000000	55.000000	0.000000	0.000000
2.170000	28.170000	31.280000	158.000000	0.000000	163.000000	55.000000	4.000000	-26.000000
2.180000	28.080000	31.110000	190.000000	0.000000	163.000000	55.000000	-9.000000	-17.000000
2.190000	28.080000	31.000000	217.000000	0.000000	163.000000	55.000000	0.000000	-11.000000
2.200000	28.080000	30.920000	225.000000	0.000000	163.000000	55.000000	0.000000	-8.000000
2.210000	28.080000	30.920000	237.000000	0.000000	163.000000	55.000000	0.000000	0.000000
