t	x	y	pressure	penup	azimuth	inclination	v_x	v_y
0.000000	11.700000	65.730000	5.000000	1.000000	156.000000	53.000000	0.000000	0.000000
0.010000	11.700000	65.730000	49.000000	1.000000	156.000000	53.000000	0.000000	0.000000
0.020000	11.700000	65.730000	55.000000	0.000000	156.000000	53.000000	0.000000	0.000000
0.030000	11.700000	65.730000	108.000000	0.000000	156.000000	53.000000	0.000000	0.000000
0.040000	11.700000	65.730000	136.000000	0.000000	156.000000	53.000000	0.000000	0.000000
0.050000	11.700000	65.730000	181.000000	0.000000	156.000000	53.000000	0.000000	0.000000
0.060000	11.700000	65.730000	239.000000	0.000000	156.000000	53.000000	0.000000	0.000000
0.070000	11.700000	65.730000	273.000000	0.000000	156.000000	53.000000	0.000000	0.000000
0.080000	11.700000	65.730000	327.000000	0.000000	156.000000	53.000000	0.000000	0.000000
0.090000	11.700000	65.730000	367.000000	0.000000	156.000000	53.000000	0.000000	0.000000
0.100000	11.700000	65.730000	412.000000	0.000000	156.000000	53.000000	0.000000	0.000000
0.110000	11.700000	65.730000	449.000000	0.000000	156.000000	53.000000	0.000000	0.000000
0.120000	11.700000	65.730000	477.000000	0.000000	156.000000	53.000000	0.000000	0.000000
0.130000	11.700000	65.730000	514.000000	0.000000	156.000000	53.000000	0.000000	0.000000
0.140000	11.700000	65.730000	540.000000	0.000000	156.000000	53.000000	0.000000	0.000000
0.150000	11.700000	65.730000	554.000000	0.000000	156.000000	53.000000	0.000000	0.000000
0.160000	11.700000	65.730000	561.000000	0.000000	156.000000	53.000000	0.000000	0.000000
0.170000	11.700000	65.730000	574.000000	0.000000	156.000000	53.000000	0.000000	0.000000
0.180000	11.700000	65.730000	583.000000	0.000000	156.000000	53.000000	0.000000	0.000000
0.190000	11.700000	65.730000	595.000000	0.000000	156.000000	53.000000	0.000000	0.000000
0.200000	11.700000	65.730000	603.000000	0.000000	156.000000	53.000000	0.000000	0.000000
0.210000	11.700000	65.730000	611.000000	0.000000	156.000000	53.000000	0.000000	0.000000
0.220000	12.200000	65.550000	622.000000	0.000000	156.000000	53.000000	50.000000	-18.000000
0.230000	12.550000	65.470000	636.000000	0.000000	156.000000	53.000000	35.000000	-8.000000
0.240000	12.910000	65.400000	637.000000	0.000000	156.000000	53.000000	36.000000	-7.000000
0.250000	13.250000	65.280000	646.000000	0.000000	156.000000	53.000000	34.000000	-12.000000
0.260000	13.600000	65.180000	664.000000	0.000000	156.000000	53.000000	35.000000	-10.000000
0.270000	13.960000	65.100000	670.000000	0.000000	156.000000	53.000000	36.000000	-8.000000
0.280000	14.340000	65.020000	691.000000	0.000000	158.000000	53.000000	38.000000	-8.000000
0.290000	14.790000	64.960000	699.000000	0.000000	158.000000	52.000000	45.000000	-6.000000
0.300000	15.250000	64.900000	719.000000	0.000000	158.000000	52.000000	46.000000	-6.000000
0.310000	15.750000	64.900000	728.000000	0.000000	160.000000	52.000000	50.000000	0.000000
0.320000	16.320000	64.900000	720.000000	0.000000	160.000000	52.000000	57.000000	0.000000
0.330000	16.740000	64.900000	733.000000	0.000000	161.000000	52.000000	42.000000	0.000000
0.340000	17.070000	64.900000	722.000000	0.000000	162.000000	53.000000	33.000000	0.000000
0.350000	17.310000	64.900000	722.000000	0.000000	164.000000	53.000000	24.000000	0.000000
0.360000	17.490000	64.900000	730.000000	0.000000	166.000000	52.000000	18.000000	0.000000
0.370000	17.630000	64.800000	730.000000	0.000000	168.000000	52.000000	14.000000	-10.000000
0.380000	17.820000	64.750000	737.000000	0.000000	169.000000	53.000000	19.000000	-5.000000
0.390000	18.020000	64.690000	746.000000	0.000000	171.000000	53.000000	20.000000	-6.000000
0.400000	18.230000	64.640000	757.000000	0.000000	172.000000	53.000000	21.000000	-5.000000
0.410000	18.480000	64.550000	761.000000	0.000000	172.000000	53.000000	25.000000	-9.000000
0.420000	18.760000	64.550000	754.000000	0.000000	173.000000	53.000000	28.000000	0.000000
0.430000	18.990000	64.490000	756.000000	0.000000	173.000000	53.000000	23.000000	-6.000000
0.440000	19.170000	64.430000	771.000000	0.000000	175.000000	53.000000	18.000000	-6.000000
0.450000	19.580000	64.360000	773.000000	0.000000	175.000000	53.000000	41.000000	-7.000000
0.460000	20.000000	64.360000	779.000000	0.000000	175.000000	53.000000	42.000000	0.000000
0.470000	20.440000	64.440000	782.000000	0.000000	175.000000	52.000000	44.000000	8.000000
0.480000	20.830000	64.440000	787.000000	0.000000	175.000000	52.000000	39.000000	0.000000
0.490000	21.230000	64.440000	793.000000	0.000000	175.000000	52.000000	40.000000	0.000000
0.500000	21.630000	64.440000	797.000000	0.000000	175.000000	52.000000	40.000000	0.000000
0.510000	22.050000	64.380000	785.000000	0.000000	174.000000	52.000000	42.000000	-6.000000
0.520000	22.440000	64.380000	787.000000	0.000000	174.000000	52.000000	39.000000	0.000000
0.530000	22.800000	64.320000	793.000000	0.000000	172.000000	52.000000	36.000000	-6.000000
0.540000	23.180000	64.260000	791.000000	0.000000	172.000000	52.000000	38.000000	-6.000000
0.550000	23.550000	64.190000	797.000000	0.000000	171.000000	52.000000	37.000000	-7.000000
0.560000	23.920000	64.120000	802.000000	0.000000	171.000000	52.000000	37.000000	-7.000000
0.570000	24.250000	64.120000	808.000000	0.000000	170.000000	52.000000	33.000000	0.000000
0.580000	24.620000	64.070000	812.000000	0.000000	170.000000	52.000000	37.000000	-5.000000
0.590000	25.070000	64.070000	818.000000	0.000000	170.000000	51.000000	45.000000	0.000000
0.600000	25.430000	64.020000	817.000000	0.000000	169.000000	50.000000	36.000000	-5.000000
0.610000	25.710000	64.020000	827.000000	0.000000	169.000000	50.000000	28.000000	0.000000
0.620000	26.080000	64.020000	830.000000	0.000000	169.000000	50.000000	37.000000	0.000000
0.630000	26.450000	64.020000	834.000000	0.000000	170.000000	51.000000	37.000000	0.000000
0.640000	26.810000	64.020000	836.000000	0.000000	170.000000	51.000000	36.000000	0.000000
0.650000	27.140000	64.020000	836.000000	0.000000	171.000000	51.000000	33.000000	0.000000
0.660000	27.440000	63.940000	840.000000	0.000000	171.000000	51.000000	30.000000	-8.000000
0.670000	27.710000	63.880000	842.000000	0.000000	173.000000	51.000000	27.000000	-6.000000
0.680000	28.050000	63.880000	842.000000	0.000000	174.000000	51.000000	34.000000	0.000000
0.690000	28.320000	63.880000	842.000000	0.000000	175.000000	51.000000	27.000000	0.000000
0.700000	28.530000	63.820000	845.000000	0.000000	176.000000	51.000000	21.000000	-6.000000
0.710000	28.720000	63.820000	845.000000	0.000000	178.000000	51.000000	19.000000	0.000000
0.720000	28.960000	63.750000	843.000000	0.000000	178.000000	51.000000	24.000000	-7.000000
0.730000	29.130000	63.750000	843.000000	0.000000	179.000000	51.000000	17.000000	0.000000
0.740000	29.240000	63.750000	845.000000	0.000000	180.000000	51.000000	11.000000	0.000000
0.750000	29.240000	63.750000	845.000000	0.000000	180.000000	51.000000	0.000000	0.000000
0.760000	29.240000	63.680000	846.000000	0.000000	180.000000	50.000000	0.000000	-7.000000
0.770000	29.310000	63.680000	845.000000	0.000000	180.000000	50.000000	7.000000	0.000000
0.780000	29.530000	63.600000	851.000000	0.000000	180.000000	50.000000	22.000000	-8.000000
0.790000	29.690000	63.540000	851.000000	0.000000	181.000000	50.000000	16.000000	-6.000000
0.800000	29.820000	63.540000	849.000000	0.000000	180.000000	50.000000	13.000000	0.000000
0.810000	29.820000	63.540000	846.000000	0.000000	180.000000	50.000000	0.000000	0.000000
0.820000	29.820000	63.540000	846.000000	0.000000	180.000000	50.000000	0.000000	0.000000
0.830000	29.820000	63.540000	845.000000	0.000000	180.000000	50.000000	0.000000	0.000000
0.840000	29.820000	63.490000	845.000000	0.000000	180.000000	50.000000	0.000000	-5.000000
0.850000	29.820000	63.490000	846.000000	0.000000	180.000000	50.000000	0.000000	0.000000
0.860000	29.700000	63.380000	851.000000	0.000000	180.000000	50.000000	-12.000000	-11.000000
0.870000	29.580000	63.240000	855.000000	0.000000	180.000000	50.000000	-12.000000	-14.000000
0.880000	29.430000	63.020000	861.000000	0.000000	180.000000	50.000000	-15.000000	-22.000000
0.890000	29.060000	62.770000	853.000000	0.000000	180.000000	50.000000	-37.000000	-25.000000
0.900000	28.540000	62.470000	869.000000	0.000000	180.000000	50.000000	-52.000000	-30.000000
0.910000	28.120000	62.220000	900.000000	0.000000	180.000000	50.000000	-42.000000	-25.000000
0.920000	27.540000	62.010000	902.000000	0.000000	180.000000	50.000000	-58.000000	-21.000000
0.930000	26.860000	61.820000	918.000000	0.000000	179.000000	51.000000	-68.000000	-19.000000
0.940000	26.230000	61.620000	936.000000	0.000000	178.000000	51.000000	-63.000000	-20.000000
0.950000	25.740000	61.430000	938.000000	0.000000	176.000000	51.000000	-49.000000	-19.000000
0.960000	25.340000	61.250000	950.000000	0.000000	174.000000	52.000000	-40.000000	-18.000000
0.970000	24.680000	61.020000	962.000000	0.000000	172.000000	52.000000	-66.000000	-23.000000
0.980000	24.030000	60.810000	973.000000	0.000000	170.000000	52.000000	-65.000000	-21.000000
0.990000	23.370000	60.610000	980.000000	0.000000	168.000000	52.000000	-66.000000	-20.000000
1.000000	22.810000	60.460000	986.000000	0.000000	167.000000	52.000000	-56.000000	-15.000000
1.010000	22.360000	60.310000	995.000000	0.000000	167.000000	52.000000	-45.000000	-15.000000
1.020000	21.820000	60.130000	978.000000	0.000000	167.000000	52.000000	-54.000000	-18.000000
1.030000	21.160000	59.980000	982.000000	0.000000	165.000000	53.000000	-66.000000	-15.000000
1.040000	20.430000	59.800000	999.000000	0.000000	165.000000	53.000000	-73.000000	-18.000000
1.050000	20.040000	59.680000	1005.000000	0.000000	165.000000	53.000000	-39.000000	-12.000000
1.060000	19.540000	59.600000	1006.000000	0.000000	166.000000	53.000000	-50.000000	-8.000000
1.070000	18.960000	59.520000	1012.000000	0.000000	166.000000	53.000000	-58.000000	-8.000000
1.080000	18.420000	59.410000	1018.000000	0.000000	166.000000	53.000000	-54.000000	-11.000000
1.090000	17.880000	59.250000	1023.000000	0.000000	166.000000	53.000000	-54.000000	-16.000000
1.100000	17.330000	59.110000	1023.000000	0.000000	166.000000	54.000000	-55.000000	-14.000000
1.110000	16.970000	59.020000	1023.000000	0.000000	166.000000	54.000000	-36.000000	-9.000000
1.120000	16.540000	58.950000	1023.000000	0.000000	166.000000	54.000000	-43.000000	-7.000000
1.130000	16.040000	58.880000	1023.000000	0.000000	164.000000	54.000000	-50.000000	-7.000000
1.140000	15.590000	58.800000	1023.000000	0.000000	163.000000	54.000000	-45.000000	-8.000000
1.150000	15.100000	58.710000	1023.000000	0.000000	162.000000	54.000000	-49.000000	-9.000000
1.160000	14.600000	58.620000	1023.000000	0.000000	160.000000	54.000000	-50.000000	-9.000000
1.170000	14.050000	58.530000	1023.000000	0.000000	158.000000	54.000000	-55.000000	-9.000000
1.180000	13.530000	58.430000	1023.000000	0.000000	157.000000	54.000000	-52.000000	-10.000000
1.190000	13.120000	58.430000	1023.000000	0.000000	156.000000	53.000000	-41.000000	0.000000
1.200000	12.770000	58.430000	1023.000000	0.000000	154.000000	53.000000	-35.000000	0.000000
1.210000	12.370000	58.320000	1023.000000	0.000000	155.000000	52.000000	-40.000000	-11.000000
1.220000	12.250000	58.320000	1023.000000	0.000000	154.000000	52.000000	-12.000000	0.000000
1.230000	12.310000	58.320000	1023.000000	0.000000	153.000000	53.000000	6.000000	0.000000
1.240000	12.020000	58.230000	1023.000000	0.000000	153.000000	53.000000	-29.000000	-9.000000
1.250000	11.920000	58.230000	1023.000000	0.000000	152.000000	53.000000	-10.000000	0.000000
1.260000	11.920000	58.230000	1023.000000	0.000000	152.000000	53.000000	0.000000	0.000000
1.270000	11.830000	58.230000	1023.000000	0.000000	152.000000	53.000000	-9.000000	0.000000
1.280000	11.540000	58.140000	1023.000000	0.000000	152.000000	53.000000	-29.000000	-9.000000
1.290000	11.140000	58.070000	1023.000000	0.000000	152.000000	53.000000	-40.000000	-7.000000
1.300000	10.960000	57.990000	1023.000000	0.000000	152.000000	53.000000	-18.000000	-8.000000
1.310000	10.810000	57.990000	1023.000000	0.000000	151.000000	53.000000	-15.000000	0.000000
1.320000	10.740000	57.990000	1023.000000	0.000000	151.000000	53.000000	-7.000000	0.000000
1.330000	10.740000	57.990000	1023.000000	0.000000	151.000000	53.000000	0.000000	0.000000
1.340000	10.740000	57.990000	1023.000000	0.000000	151.000000	53.000000	0.000000	0.000000
1.350000	10.740000	57.990000	1023.000000	0.000000	151.000000	53.000000	0.000000	0.000000
1.360000	10.740000	57.990000	1023.000000	0.000000	151.000000	53.000000	0.000000	0.000000
1.370000	10.740000	57.990000	1023.000000	0.000000	151.000000	53.000000	0.000000	0.000000
1.380000	10.740000	57.990000	1023.000000	0.000000	151.000000	53.000000	0.000000	0.000000
1.390000	10.740000	57.990000	1023.000000	0.000000	151.000000	53.000000	0.000000	0.000000
1.400000	10.740000	57.990000	1023.000000	0.000000	151.000000	53.000000	0.000000	0.000000
1.410000	10.740000	57.990000	1023.000000	0.000000	151.000000	53.000000	0.000000	0.000000
1.420000	10.820000	58.080000	1023.000000	0.000000	151.000000	53.000000	8.000000	9.000000
1.430000	10.930000	58.210000	1023.000000	0.000000	151.000000	53.000000	11.000000	13.000000
1.440000	11.270000	58.700000	1023.000000	0.000000	151.000000	53.000000	34.000000	49.000000
1.450000	11.750000	59.200000	1023.000000	0.000000	151.000000	53.000000	48.000000	50.000000
1.460000	12.120000	59.720000	1023.000000	0.000000	151.000000	53.000000	37.000000	52.000000
1.470000	12.500000	60.210000	1023.000000	0.000000	152.000000	53.000000	38.000000	49.000000
1.480000	12.850000	60.690000	1023.000000	0.000000	152.000000	53.000000	35.000000	48.000000
1.490000	13.170000	61.160000	1023.000000	0.000000	153.000000	52.000000	32.000000	47.000000
1.500000	13.490000	61.660000	1023.000000	0.000000	153.000000	52.000000	32.000000	50.000000
1.510000	13.830000	62.170000	1023.000000	0.000000	153.000000	51.000000	34.000000	51.000000
1.520000	14.180000	62.650000	1023.000000	0.000000	153.000000	51.000000	35.000000	48.000000
1.530000	14.470000	63.100000	1023.000000	0.000000	154.000000	50.000000	29.000000	45.000000
1.540000	14.910000	63.530000	1023.000000	0.000000	155.000000	50.000000	44.000000	43.000000
1.550000	15.490000	64.030000	1023.000000	0.000000	155.000000	50.000000	58.000000	50.000000
1.560000	15.970000	64.510000	1023.000000	0.000000	156.000000	50.000000	48.000000	48.000000
1.570000	16.350000	64.960000	1023.000000	0.000000	157.000000	50.000000	38.000000	45.000000
1.580000	16.660000	65.530000	1023.000000	0.000000	159.000000	50.000000	31.000000	57.000000
1.590000	16.990000	66.170000	1023.000000	0.000000	159.000000	51.000000	33.000000	64.000000
1.600000	17.330000	66.990000	1023.000000	0.000000	162.000000	52.000000	34.000000	82.000000
1.610000	17.660000	67.750000	1023.000000	0.000000	163.000000	52.000000	33.000000	76.000000
1.620000	17.910000	68.310000	1023.000000	0.000000	164.000000	52.000000	25.000000	56.000000
1.630000	18.110000	68.760000	1023.000000	0.000000	167.000000	52.000000	20.000000	45.000000
1.640000	18.230000	69.080000	1023.000000	0.000000	168.000000	52.000000	12.000000	32.000000
1.650000	18.230000	69.350000	1023.000000	0.000000	169.000000	51.000000	0.000000	27.000000
1.660000	18.230000	69.530000	1023.000000	0.000000	170.000000	52.000000	0.000000	18.000000
1.670000	18.230000	69.660000	1023.000000	0.000000	170.000000	51.000000	0.000000	13.000000
1.680000	18.280000	69.790000	1023.000000	0.000000	170.000000	50.000000	5.000000	13.000000
1.690000	18.280000	69.890000	1023.000000	0.000000	170.000000	50.000000	0.000000	10.000000
1.700000	18.280000	69.890000	1023.000000	0.000000	170.000000	50.000000	0.000000	0.000000
1.710000	18.280000	69.890000	1023.000000	0.000000	171.000000	49.000000	0.000000	0.000000
1.720000	18.280000	69.890000	1023.000000	0.000000	171.000000	49.000000	0.000000	0.000000
1.730000	18.280000	69.890000	1023.000000	0.000000	170.000000	49.000000	0.000000	0.000000
1.740000	18.210000	69.810000	1017.000000	0.000000	170.000000	48.000000	-7.000000	-8.000000
1.750000	18.100000	69.440000	1014.000000	0.000000	171.000000	48.000000	-11.000000	-37.000000
1.760000	17.840000	68.890000	1008.000000	0.000000	171.000000	49.000000	-26.000000	-55.000000
1.770000	17.460000	68.140000	1008.000000	0.000000	171.000000	49.000000	-38.000000	-75.000000
1.780000	17.010000	67.350000	1008.000000	0.000000	170.000000	50.000000	-45.000000	-79.000000
1.790000	16.430000	66.240000	1014.000000	0.000000	170.000000	50.000000	-58.000000	-111.000000
1.800000	15.870000	64.930000	1017.000000	0.000000	169.000000	50.000000	-56.000000	-131.000000
1.810000	15.350000	63.650000	1018.000000	0.000000	168.000000	50.000000	-52.000000	-128.000000
1.820000	14.980000	62.590000	1020.000000	0.000000	166.000000	51.000000	-37.000000	-106.000000
1.830000	14.720000	61.680000	1023.000000	0.000000	165.000000	51.000000	-26.000000	-91.000000
1.840000	14.450000	60.800000	1023.000000	0.000000	163.000000	52.000000	-27.000000	-88.000000
1.850000	14.210000	60.110000	1023.000000	0.000000	160.000000	51.000000	-24.000000	-69.000000
1.860000	14.060000	59.540000	1023.000000	0.000000	159.000000	51.000000	-15.000000	-57.000000
1.870000	13.910000	59.100000	1023.000000	0.000000	157.000000	52.000000	-15.000000	-44.000000
1.880000	13.780000	58.620000	1023.000000	0.000000	156.000000	51.000000	-13.000000	-48.000000
1.890000	13.680000	58.120000	1023.000000	0.000000	156.000000	51.000000	-10.000000	-50.000000
1.900000	13.680000	57.830000	1023.000000	0.000000	154.000000	52.000000	0.000000	-29.000000
1.910000	13.620000	57.600000	1023.000000	0.000000	153.000000	53.000000	-6.000000	-23.000000
1.920000	13.620000	57.410000	1023.000000	0.000000	152.000000	54.000000	0.000000	-19.000000
1.930000	13.620000	57.350000	1023.000000	0.000000	152.000000	54.000000	0.000000	-6.000000
1.940000	13.570000	57.350000	1023.000000	0.000000	150.000000	54.000000	-5.000000	0.000000
1.950000	13.570000	57.280000	1023.000000	0.000000	150.000000	54.000000	0.000000	-7.000000
1.960000	13.570000	57.190000	1023.000000	0.000000	150.000000	54.000000	0.000000	-9.000000
1.970000	13.570000	57.090000	1023.000000	0.000000	149.000000	55.000000	0.000000	-10.000000
1.980000	13.520000	57.010000	1023.000000	0.000000	149.000000	55.000000	-5.000000	-8.000000
1.990000	13.520000	57.010000	1023.000000	0.000000	149.000000	55.000000	0.000000	0.000000
2.000000	13.520000	57.010000	1023.000000	0.000000	149.000000	55.000000	0.000000	0.000000
2.010000	13.520000	57.010000	994.000000	0.000000	149.000000	55.000000	0.000000	0.000000
2.020000	13.520000	57.010000	878.000000	0.000000	149.000000	55.000000	0.000000	0.000000
2.030000	13.520000	57.100000	556.000000	0.000000	149.000000	55.000000	0.000000	9.000000
2.040000	13.520000	57.100000	0.000000	1.000000	149.000000	55.000000	0.000000	0.000000
2.050000	13.360000	58.280000	0.000000	0.000000	150.000000	55.000000	-16.000000	118.000000
2.060000	13.480000	59.490000	0.000000	0.000000	150.000000	55.000000	12.000000	121.000000
2.070000	13.730000	60.700000	0.000000	0.000000	151.000000	54.000000	25.000000	121.000000
2.080000	14.280000	61.680000	0.000000	0.000000	153.000000	54.000000	55.000000	98.000000
2.090000	14.750000	62.520000	0.000000	0.000000	154.000000	53.000000	47.000000	84.000000
2.100000	15.170000	63.130000	0.000000	0.000000	156.000000	53.000000	42.000000	61.000000
2.110000	15.630000	63.830000	0.000000	0.000000	159.000000	51.000000	46.000000	70.000000
2.120000	16.100000	64.580000	0.000000	0.000000	160.000000	50.000000	47.000000	75.000000
2.130000	16.580000	65.450000	0.000000	0.000000	162.000000	50.000000	48.000000	87.000000
2.140000	17.040000	66.320000	0.000000	0.000000	163.000000	49.000000	46.000000	87.000000
2.150000	17.530000	66.900000	0.000000	0.000000	165.000000	48.000000	49.000000	58.000000
2.160000	17.910000	67.300000	0.000000	0.000000	165.000000	48.000000	38.000000	40.000000
2.170000	18.210000	67.460000	0.000000	0.000000	167.000000	47.000000	30.000000	16.000000
2.180000	18.420000	67.610000	0.000000	0.000000	166.000000	48.000000	21.000000	15.000000
2.190000	18.510000	67.710000	0.000000	0.000000	167.000000	48.000000	9.000000	10.000000
2.200000	18.510000	67.810000	0.000000	0.000000	167.000000	48.000000	0.000000	10.000000
