t	x	y	pressure	penup	azimuth	inclination	v_x	v_y
0.000000	13.130000	49.950000	211.000000	1.000000	159.000000	53.000000	0.000000	0.000000
0.010000	12.380000	49.860000	219.000000	0.000000	158.000000	53.000000	-75.000000	-9.000000
0.020000	12.310000	50.010000	244.000000	0.000000	158.000000	53.000000	-7.000000	15.000000
0.030000	12.610000	49.760000	260.000000	0.000000	158.000000	52.000000	30.000000	-25.000000
0.040000	13.910000	49.490000	309.000000	0.000000	157.000000	52.000000	130.000000	-27.000000
0.050000	15.870000	49.180000	317.000000	0.000000	158.000000	52.000000	196.000000	-31.000000
0.060000	19.800000	48.880000	310.000000	0.000000	160.000000	52.000000	393.000000	-30.000000
0.070000	24.370000	48.570000	314.000000	0.000000	161.000000	52.000000	457.000000	-31.000000
0.080000	29.360000	48.260000	316.000000	0.000000	164.000000	53.000000	499.000000	-31.000000
0.090000	32.520000	47.980000	307.000000	0.000000	165.000000	53.000000	316.000000	-28.000000
0.100000	33.700000	47.610000	327.000000	0.000000	168.000000	52.000000	118.000000	-37.000000
0.110000	33.570000	47.190000	396.000000	0.000000	172.000000	53.000000	-13.000000	-42.000000
0.120000	32.150000	46.440000	460.000000	0.000000	175.000000	53.000000	-142.000000	-75.000000
0.130000	29.490000	45.560000	496.000000	0.000000	176.000000	53.000000	-266.000000	-88.000000
0.140000	25.990000	44.590000	544.000000	0.000000	177.000000	53.000000	-350.000000	-97.000000
0.150000	21.750000	43.320000	553.000000	0.000000	177.000000	54.000000	-424.000000	-127.000000
0.160000	17.090000	41.850000	559.000000	0.000000	176.000000	54.000000	-466.000000	-147.000000
0.170000	12.150000	40.250000	577.000000	0.000000	174.000000	55.000000	-494.000000	-160.000000
0.180000	7.880000	39.250000	628.000000	0.000000	171.000000	56.000000	-427.000000	-100.000000
0.190000	6.150000	38.930000	633.000000	0.000000	168.000000	56.000000	-173.000000	-32.000000
0.200000	6.150000	39.060000	591.000000	0.000000	165.000000	56.000000	0.000000	13.000000
0.210000	7.540000	39.890000	570.000000	0.000000	161.000000	57.000000	139.000000	83.000000
0.220000	9.790000	41.530000	562.000000	0.000000	158.000000	56.000000	225.000000	164.000000
0.230000	12.590000	43.700000	527.000000	0.000000	155.000000	55.000000	280.000000	217.000000
0.240000	15.040000	45.970000	461.000000	0.000000	155.000000	55.000000	245.000000	227.000000
0.250000	17.550000	48.330000	368.000000	0.000000	155.000000	55.000000	251.000000	236.000000
0.260000	19.120000	50.750000	363.000000	0.000000	158.000000	55.000000	157.000000	242.000000
0.270000	20.050000	52.250000	372.000000	0.000000	160.000000	54.000000	93.000000	150.000000
0.280000	20.220000	52.660000	366.000000	0.000000	162.000000	54.000000	17.000000	41.000000
0.290000	19.690000	52.340000	371.000000	0.000000	165.000000	53.000000	-53.000000	-32.000000
0.300000	18.690000	51.250000	384.000000	0.000000	167.000000	52.000000	-100.000000	-109.000000
0.310000	17.030000	49.520000	393.000000	0.000000	169.000000	51.000000	-166.000000	-173.000000
0.320000	15.420000	47.360000	387.000000	0.000000	169.000000	51.000000	-161.000000	-216.000000
0.330000	14.610000	45.830000	338.000000	0.000000	169.000000	51.000000	-81.000000	-153.000000
0.340000	14.310000	44.480000	131.000000	0.000000	167.000000	52.000000	-30.000000	-135.000000
0.350000	14.310000	44.480000	0.000000	1.000000	164.000000	53.000000	0.000000	0.000000
0.360000	13.660000	42.350000	0.000000	0.000000	162.000000	54.000000	-65.000000	-213.000000
0.370000	13.190000	42.040000	0.000000	0.000000	158.000000	54.000000	-47.000000	-31.000000
0.380000	12.980000	42.120000	0.000000	0.000000	157.000000	54.000000	-21.000000	8.000000
0.390000	12.790000	42.310000	0.000000	0.000000	156.000000	53.000000	-19.000000	19.000000
0.400000	12.670000	42.620000	0.000000	0.000000	156.000000	53.000000	-12.000000	31.000000
0.410000	12.670000	43.000000	0.000000	0.000000	156.000000	53.000000	0.000000	38.000000
0.420000	12.840000	43.510000	0.000000	0.000000	158.000000	53.000000	17.000000	51.000000
0.430000	13.250000	44.180000	0.000000	0.000000	160.000000	52.000000	41.000000	67.000000
0.440000	13.690000	44.960000	0.000000	0.000000	160.000000	51.000000	44.000000	78.000000
0.450000	14.220000	45.890000	0.000000	0.000000	162.000000	51.000000	53.000000	93.000000
0.460000	14.660000	47.060000	0.000000	0.000000	163.000000	49.000000	44.000000	117.000000
0.470000	15.040000	48.400000	0.000000	0.000000	166.000000	47.000000	38.000000	134.000000
0.480000	15.710000	49.500000	0.000000	0.000000	165.000000	46.000000	67.000000	110.000000
0.490000	16.360000	50.940000	0.000000	0.000000	164.000000	46.000000	65.000000	144.000000
0.500000	16.990000	52.620000	0.000000	0.000000	162.000000	45.000000	63.000000	168.000000
0.510000	18.120000	54.430000	0.000000	0.000000	160.000000	44.000000	113.000000	181.000000
0.520000	19.020000	55.670000	0.000000	0.000000	159.000000	43.000000	90.000000	124.000000
0.530000	19.620000	56.520000	0.000000	0.000000	159.000000	42.000000	60.000000	85.000000
0.540000	20.200000	57.070000	0.000000	0.000000	158.000000	42.000000	58.000000	55.000000
0.550000	20.700000	57.540000	0.000000	0.000000	157.000000	41.000000	50.000000	47.000000
0.560000	20.560000	57.970000	0.000000	0.000000	158.000000	40.000000	-14.000000	43.000000
0.570000	20.660000	58.130000	0.000000	0.000000	160.000000	39.000000	10.000000	16.000000
0.580000	20.930000	57.820000	0.000000	0.000000	161.000000	38.000000	27.000000	-31.000000
0.590000	20.640000	57.200000	0.000000	0.000000	164.000000	38.000000	-29.000000	-62.000000
0.600000	20.130000	55.640000	0.000000	0.000000	165.000000	39.000000	-51.000000	-156.000000
0.610000	19.460000	54.410000	0.000000	0.000000	165.000000	41.000000	-67.000000	-123.000000
0.620000	19.280000	53.410000	0.000000	0.000000	164.000000	42.000000	-18.000000	-100.000000
0.630000	19.190000	52.770000	0.000000	0.000000	164.000000	44.000000	-9.000000	-64.000000
0.640000	19.190000	52.230000	0.000000	0.000000	163.000000	46.000000	0.000000	-54.000000
0.650000	19.510000	51.760000	0.000000	0.000000	162.000000	48.000000	32.000000	-47.000000
0.660000	19.510000	51.020000	0.000000	0.000000	161.000000	49.000000	0.000000	-74.000000
0.670000	19.390000	50.660000	0.000000	0.000000	160.000000	50.000000	-12.000000	-36.000000
0.680000	19.260000	50.560000	0.000000	0.000000	158.000000	52.000000	-13.000000	-10.000000
0.690000	19.060000	50.240000	0.000000	0.000000	156.000000	53.000000	-20.000000	-32.000000
0.700000	18.800000	50.000000	0.000000	0.000000	158.000000	53.000000	-26.000000	-24.000000
0.710000	18.740000	49.820000	0.000000	0.000000	157.000000	54.000000	-6.000000	-18.000000
0.720000	18.740000	49.600000	0.000000	0.000000	156.000000	55.000000	0.000000	-22.000000
0.730000	18.740000	49.470000	0.000000	0.000000	156.000000	55.000000	0.000000	-13.000000
0.740000	18.850000	49.400000	0.000000	0.000000	157.000000	56.000000	11.000000	-7.000000
0.750000	19.070000	49.460000	0.000000	0.000000	157.000000	56.000000	22.000000	6.000000
0.760000	19.320000	49.580000	0.000000	0.000000	157.000000	56.000000	25.000000	12.000000
0.770000	19.570000	49.750000	0.000000	0.000000	157.000000	56.000000	25.000000	17.000000
0.780000	19.730000	49.820000	0.000000	0.000000	157.000000	56.000000	16.000000	7.000000
0.790000	19.830000	49.960000	0.000000	0.000000	157.000000	56.000000	10.000000	14.000000
0.800000	19.920000	50.160000	0.000000	0.000000	157.000000	56.000000	9.000000	20.000000
0.810000	19.920000	50.160000	89.000000	1.000000	157.000000	56.000000	0.000000	0.000000
0.820000	20.080000	50.700000	120.000000	0.000000	157.000000	56.000000	16.000000	54.000000
0.830000	20.230000	51.040000	132.000000	0.000000	158.000000	55.000000	15.000000	34.000000
0.840000	20.380000	51.180000	163.000000	0.000000	158.000000	55.000000	15.000000	14.000000
0.850000	20.530000	51.250000	165.000000	0.000000	158.000000	55.000000	15.000000	7.000000
0.860000	20.600000	51.200000	176.000000	0.000000	158.000000	54.000000	7.000000	-5.000000
0.870000	20.600000	50.940000	210.000000	0.000000	158.000000	54.000000	0.000000	-26.000000
0.880000	20.600000	50.560000	237.000000	0.000000	158.000000	54.000000	0.000000	-38.000000
0.890000	20.520000	50.120000	257.000000	0.000000	158.000000	54.000000	-8.000000	-44.000000
0.900000	20.380000	49.670000	270.000000	0.000000	158.000000	54.000000	-14.000000	-45.000000
0.910000	20.180000	49.190000	270.000000	0.000000	158.000000	54.000000	-20.000000	-48.000000
0.920000	19.940000	48.810000	274.000000	0.000000	158.000000	55.000000	-24.000000	-38.000000
0.930000	19.660000	48.500000	292.000000	0.000000	158.000000	55.000000	-28.000000	-31.000000
0.940000	19.520000	48.340000	309.000000	0.000000	159.000000	55.000000	-14.000000	-16.000000
0.950000	19.520000	48.340000	307.000000	0.000000	158.000000	56.000000	0.000000	0.000000
0.960000	19.570000	48.490000	309.000000	0.000000	158.000000	56.000000	5.000000	15.000000
0.970000	19.710000	48.890000	314.000000	0.000000	158.000000	56.000000	14.000000	40.000000
0.980000	19.860000	49.370000	317.000000	0.000000	158.000000	56.000000	15.000000	48.000000
0.990000	20.010000	49.900000	314.000000	0.000000	158.000000	56.000000	15.000000	53.000000
1.000000	20.180000	50.430000	314.000000	0.000000	158.000000	56.000000	17.000000	53.000000
1.010000	20.420000	50.940000	314.000000	0.000000	158.000000	56.000000	24.000000	51.000000
1.020000	20.640000	51.390000	310.000000	0.000000	159.000000	55.000000	22.000000	45.000000
1.030000	20.730000	51.550000	307.000000	0.000000	158.000000	55.000000	9.000000	16.000000
1.040000	20.730000	51.550000	307.000000	0.000000	158.000000	54.000000	0.000000	0.000000
1.050000	20.730000	51.390000	305.000000	0.000000	158.000000	54.000000	0.000000	-16.000000
1.060000	20.730000	51.190000	307.000000	0.000000	158.000000	54.000000	0.000000	-20.000000
1.070000	20.630000	50.900000	309.000000	0.000000	159.000000	53.000000	-10.000000	-29.000000
1.080000	20.630000	50.590000	310.000000	0.000000	159.000000	53.000000	0.000000	-31.000000
1.090000	20.630000	50.390000	307.000000	0.000000	158.000000	53.000000	0.000000	-20.000000
1.100000	20.630000	50.260000	314.000000	0.000000	158.000000	53.000000	0.000000	-13.000000
1.110000	20.760000	50.190000	314.000000	0.000000	158.000000	53.000000	13.000000	-7.000000
1.120000	20.910000	50.250000	314.000000	0.000000	157.000000	54.000000	15.000000	6.000000
1.130000	21.140000	50.410000	309.000000	0.000000	157.000000	54.000000	23.000000	16.000000
1.140000	21.420000	50.660000	317.000000	0.000000	157.000000	54.000000	28.000000	25.000000
1.150000	21.730000	50.950000	312.000000	0.000000	157.000000	54.000000	31.000000	29.000000
1.160000	21.960000	51.280000	312.000000	0.000000	157.000000	54.000000	23.000000	33.000000
1.170000	22.140000	51.470000	312.000000	0.000000	156.000000	53.000000	18.000000	19.000000
1.180000	22.220000	51.610000	317.000000	0.000000	156.000000	53.000000	8.000000	14.000000
1.190000	22.220000	51.610000	305.000000	0.000000	156.000000	53.000000	0.000000	0.000000
1.200000	22.220000	51.610000	314.000000	0.000000	156.000000	53.000000	0.000000	0.000000
1.210000	22.220000	51.510000	322.000000	0.000000	156.000000	53.000000	0.000000	-10.000000
1.220000	22.110000	51.260000	334.000000	0.000000	156.000000	53.000000	-11.000000	-25.000000
1.230000	21.980000	50.910000	335.000000	0.000000	156.000000	53.000000	-13.000000	-35.000000
1.240000	21.860000	50.550000	334.000000	0.000000	155.000000	52.000000	-12.000000	-36.000000
1.250000	21.750000	50.200000	307.000000	0.000000	155.000000	52.000000	-11.000000	-35.000000
1.260000	21.690000	49.880000	207.000000	0.000000	155.000000	52.000000	-6.000000	-32.000000
1.270000	21.690000	49.680000	88.000000	0.000000	154.000000	53.000000	0.000000	-20.000000
1.280000	21.690000	49.680000	0.000000	1.000000	154.000000	53.000000	0.000000	0.000000
1.290000	21.860000	49.580000	0.000000	0.000000	154.000000	53.000000	17.000000	-10.000000
1.300000	22.070000	49.640000	0.000000	0.000000	154.000000	53.000000	21.000000	6.000000
1.310000	22.240000	49.840000	0.000000	0.000000	154.000000	53.000000	17.000000	20.000000
1.320000	22.430000	50.020000	0.000000	0.000000	154.000000	53.000000	19.000000	18.000000
1.330000	22.570000	50.210000	0.000000	0.000000	154.000000	53.000000	14.000000	19.000000
1.340000	22.570000	50.210000	50.000000	1.000000	154.000000	53.000000	0.000000	0.000000
1.350000	22.770000	50.580000	91.000000	0.000000	154.000000	53.000000	20.000000	37.000000
1.360000	22.840000	50.580000	148.000000	0.000000	154.000000	53.000000	7.000000	0.000000
1.370000	22.840000	50.580000	167.000000	0.000000	154.000000	53.000000	0.000000	0.000000
1.380000	22.840000	50.440000	182.000000	0.000000	154.000000	53.000000	0.000000	-14.000000
1.390000	22.840000	50.210000	184.000000	0.000000	154.000000	53.000000	0.000000	-23.000000
1.400000	22.840000	49.940000	179.000000	0.000000	154.000000	53.000000	0.000000	-27.000000
1.410000	22.840000	49.650000	132.000000	0.000000	154.000000	53.000000	0.000000	-29.000000
1.420000	22.890000	49.330000	61.000000	0.000000	154.000000	53.000000	5.000000	-32.000000
1.430000	22.890000	49.330000	0.000000	1.000000	154.000000	53.000000	0.000000	0.000000
1.440000	23.190000	48.850000	0.000000	0.000000	153.000000	53.000000	30.000000	-48.000000
1.450000	23.340000	48.770000	0.000000	0.000000	153.000000	53.000000	15.000000	-8.000000
1.460000	23.340000	48.770000	46.000000	1.000000	153.000000	53.000000	0.000000	0.000000
1.470000	23.340000	48.770000	107.000000	0.000000	153.000000	53.000000	0.000000	0.000000
1.480000	23.610000	49.250000	180.000000	0.000000	153.000000	53.000000	27.000000	48.000000
1.490000	23.690000	49.500000	253.000000	0.000000	154.000000	53.000000	8.000000	25.000000
1.500000	23.790000	49.730000	282.000000	0.000000	154.000000	53.000000	10.000000	23.000000
1.510000	23.880000	49.930000	299.000000	0.000000	154.000000	53.000000	9.000000	20.000000
1.520000	23.940000	50.120000	302.000000	0.000000	154.000000	53.000000	6.000000	19.000000
1.530000	23.990000	50.280000	297.000000	0.000000	154.000000	53.000000	5.000000	16.000000
1.540000	24.100000	50.390000	282.000000	0.000000	154.000000	53.000000	11.000000	11.000000
1.550000	24.220000	50.440000	241.000000	0.000000	154.000000	53.000000	12.000000	5.000000
1.560000	24.350000	50.440000	206.000000	0.000000	154.000000	53.000000	13.000000	0.000000
1.570000	24.480000	50.380000	187.000000	0.000000	154.000000	53.000000	13.000000	-6.000000
1.580000	24.570000	50.310000	137.000000	0.000000	154.000000	53.000000	9.000000	-7.000000
1.590000	24.630000	50.240000	132.000000	0.000000	153.000000	53.000000	6.000000	-7.000000
1.600000	24.700000	50.140000	132.000000	0.000000	154.000000	52.000000	7.000000	-10.000000
1.610000	24.780000	49.970000	158.000000	0.000000	153.000000	53.000000	8.000000	-17.000000
1.620000	24.780000	49.740000	190.000000	0.000000	153.000000	53.000000	0.000000	-23.000000
1.630000	24.780000	49.480000	205.000000	0.000000	154.000000	53.000000	0.000000	-26.000000
1.640000	24.780000	49.220000	210.000000	0.000000	154.000000	53.000000	0.000000	-26.000000
1.650000	24.780000	49.220000	210.000000	0.000000	154.000000	53.000000	0.000000	0.000000
1.660000	24.730000	48.800000	191.000000	0.000000	153.000000	54.000000	-5.000000	-42.000000
1.670000	24.730000	48.690000	149.000000	0.000000	153.000000	54.000000	0.000000	-11.000000
1.680000	24.730000	48.690000	0.000000	1.000000	153.000000	54.000000	0.000000	0.000000
1.690000	24.940000	48.630000	0.000000	0.000000	155.000000	54.000000	21.000000	-6.000000
1.700000	25.150000	48.630000	0.000000	0.000000	155.000000	54.000000	21.000000	0.000000
1.710000	25.450000	48.800000	0.000000	0.000000	155.000000	54.000000	30.000000	17.000000
1.720000	25.790000	48.980000	0.000000	0.000000	155.000000	54.000000	34.000000	18.000000
1.730000	26.120000	49.160000	0.000000	0.000000	156.000000	55.000000	33.000000	18.000000
1.740000	26.370000	49.310000	0.000000	0.000000	156.000000	55.000000	25.000000	15.000000
1.750000	26.570000	49.430000	0.000000	0.000000	156.000000	55.000000	20.000000	12.000000
1.760000	26.570000	49.430000	29.000000	1.000000	158.000000	55.000000	0.000000	0.000000
1.770000	26.460000	49.680000	78.000000	0.000000	158.000000	55.000000	-11.000000	25.000000
1.780000	26.330000	49.810000	170.000000	0.000000	158.000000	54.000000	-13.000000	13.000000
1.790000	26.220000	49.860000	217.000000	0.000000	158.000000	54.000000	-11.000000	5.000000
1.800000	26.130000	49.860000	216.000000	0.000000	158.000000	54.000000	-9.000000	0.000000
1.810000	26.050000	49.860000	235.000000	0.000000	158.000000	54.000000	-8.000000	0.000000
1.820000	25.900000	49.710000	247.000000	0.000000	158.000000	54.000000	-15.000000	-15.000000
1.830000	25.710000	49.510000	245.000000	0.000000	158.000000	54.000000	-19.000000	-20.000000
1.840000	25.590000	49.240000	257.000000	0.000000	157.000000	54.000000	-12.000000	-27.000000
1.850000	25.500000	48.900000	257.000000	0.000000	157.000000	54.000000	-9.000000	-34.000000
1.860000	25.500000	48.700000	259.000000	0.000000	157.000000	54.000000	0.000000	-20.000000
1.870000	25.590000	48.590000	255.000000	0.000000	155.000000	54.000000	9.000000	-11.000000
1.880000	25.710000	48.500000	242.000000	0.000000	155.000000	54.000000	12.000000	-9.000000
1.890000	25.870000	48.500000	246.000000	0.000000	155.000000	54.000000	16.000000	0.000000
1.900000	26.030000	48.650000	232.000000	0.000000	155.000000	54.000000	16.000000	15.000000
1.910000	26.260000	48.870000	226.000000	0.000000	155.000000	54.000000	23.000000	22.000000
1.920000	26.420000	49.090000	232.000000	0.000000	155.000000	54.000000	16.000000	22.000000
1.930000	26.550000	49.280000	233.000000	0.000000	155.000000	54.000000	13.000000	19.000000
1.940000	26.640000	49.440000	239.000000	0.000000	156.000000	55.000000	9.000000	16.000000
1.950000	26.640000	49.440000	247.000000	0.000000	156.000000	55.000000	0.000000	0.000000
1.960000	26.640000	49.440000	253.000000	0.000000	157.000000	54.000000	0.000000	0.000000
1.970000	26.640000	49.440000	245.000000	0.000000	157.000000	54.000000	0.000000	0.000000
1.980000	26.640000	49.440000	245.000000	0.000000	157.000000	54.000000	0.000000	0.000000
1.990000	26.640000	49.440000	247.000000	0.000000	157.000000	54.000000	0.000000	0.000000
2.000000	26.610000	49.150000	249.000000	0.000000	157.000000	54.000000	-3.000000	-29.000000
2.010000	26.510000	48.960000	246.000000	0.000000	157.000000	54.000000	-10.000000	-19.000000
2.020000	26.440000	48.760000	106.000000	0.000000	157.000000	54.000000	-7.000000	-20.000000
2.030000	26.440000	48.760000	0.000000	1.000000	157.000000	54.000000	0.000000	0.000000
2.040000	26.440000	48.390000	0.000000	0.000000	156.000000	55.000000	0.000000	-37.000000
2.050000	26.440000	48.390000	0.000000	0.000000	156.000000	55.000000	0.000000	0.000000
2.060000	26.550000	48.500000	0.000000	0.000000	156.000000	55.000000	11.000000	11.000000
2.070000	26.700000	48.640000	0.000000	0.000000	156.000000	55.000000	15.000000	14.000000
2.080000	26.870000	48.770000	0.000000	0.000000	156.000000	55.000000	17.000000	13.000000
2.090000	27.040000	48.940000	0.000000	0.000000	158.000000	55.000000	17.000000	17.000000
2.100000	27.190000	49.130000	0.000000	0.000000	158.000000	55.000000	15.000000	19.000000
2.110000	27.320000	49.260000	0.000000	0.000000	158.000000	55.000000	13.000000	13.000000
2.120000	27.320000	49.260000	5.000000	0.000000	158.000000	55.000000	0.000000	0.000000
2.130000	27.320000	49.260000	63.000000	1.000000	158.000000	55.000000	0.000000	0.000000
2.140000	27.320000	49.260000	104.000000	0.000000	158.000000	55.000000	0.000000	0.000000
2.150000	27.320000	49.260000	125.000000	0.000000	160.000000	54.000000	0.000000	0.000000
2.160000	27.320000	49.260000	139.000000	0.000000	160.000000	54.000000	0.000000	0.000000
2.170000	27.320000	49.260000	131.000000	0.000000	160.000000	54.000000	0.000000	0.000000
2.180000	27.280000	48.940000	160.000000	0.000000	160.000000	54.000000	-4.000000	-32.000000
2.190000	27.280000	48.850000	210.000000	0.000000	160.000000	54.000000	0.000000	-9.000000
2.200000	27.280000	48.850000	249.000000	0.000000	160.000000	54.000000	0.000000	0.000000
2.210000	27.280000	48.850000	275.000000	0.000000	160.000000	54.000000	0.000000	0.000000
