t	x	y	pressure	penup	azimuth	inclination	v_x	v_y
0.000000	22.520000	12.190000	207.000000	1.000000	168.000000	40.000000	0.000000	0.000000
0.010000	22.520000	12.530000	216.000000	0.000000	166.000000	41.000000	0.000000	34.000000
0.020000	22.590000	12.270000	226.000000	0.000000	167.000000	42.000000	7.000000	-26.000000
0.030000	22.720000	11.770000	260.000000	0.000000	166.000000	43.000000	13.000000	-50.000000
0.040000	22.980000	10.970000	339.000000	0.000000	166.000000	44.000000	26.000000	-80.000000
0.050000	23.270000	10.220000	386.000000	0.000000	166.000000	45.000000	29.000000	-75.000000
0.060000	23.590000	9.510000	405.000000	0.000000	167.000000	45.000000	32.000000	-71.000000
0.070000	24.060000	8.900000	425.000000	0.000000	166.000000	46.000000	47.000000	-61.000000
0.080000	24.630000	8.440000	427.000000	0.000000	167.000000	46.000000	57.000000	-46.000000
0.090000	24.990000	8.070000	438.000000	0.000000	167.000000	46.000000	36.000000	-37.000000
0.100000	25.230000	7.880000	449.000000	0.000000	168.000000	45.000000	24.000000	-19.000000
0.110000	25.390000	7.820000	458.000000	0.000000	169.000000	45.000000	16.000000	-6.000000
0.120000	25.390000	7.820000	475.000000	0.000000	169.000000	45.000000	0.000000	0.000000
0.130000	25.330000	7.880000	477.000000	0.000000	169.000000	45.000000	-6.000000	6.000000
0.140000	25.160000	8.070000	448.000000	0.000000	169.000000	45.000000	-17.000000	19.000000
0.150000	24.560000	8.370000	422.000000	0.000000	169.000000	45.000000	-60.000000	30.000000
0.160000	23.610000	8.680000	389.000000	0.000000	169.000000	45.000000	-95.000000	31.000000
0.170000	22.430000	8.990000	387.000000	0.000000	169.000000	45.000000	-118.000000	31.000000
0.180000	21.060000	9.300000	391.000000	0.000000	169.000000	45.000000	-137.000000	31.000000
0.190000	19.730000	9.380000	399.000000	0.000000	169.000000	44.000000	-133.000000	8.000000
0.200000	18.840000	9.240000	392.000000	0.000000	168.000000	44.000000	-89.000000	-14.000000
0.210000	18.230000	8.950000	392.000000	0.000000	168.000000	43.000000	-61.000000	-29.000000
0.220000	18.230000	8.730000	392.000000	0.000000	168.000000	43.000000	0.000000	-22.000000
0.230000	18.410000	8.480000	422.000000	0.000000	169.000000	42.000000	18.000000	-25.000000
0.240000	18.800000	8.370000	435.000000	0.000000	169.000000	41.000000	39.000000	-11.000000
0.250000	19.930000	8.370000	444.000000	0.000000	169.000000	41.000000	113.000000	0.000000
0.260000	21.840000	8.680000	465.000000	0.000000	169.000000	41.000000	191.000000	31.000000
0.270000	24.280000	9.360000	491.000000	0.000000	170.000000	42.000000	244.000000	68.000000
0.280000	27.320000	10.270000	492.000000	0.000000	170.000000	43.000000	304.000000	91.000000
0.290000	29.990000	11.130000	492.000000	0.000000	169.000000	44.000000	267.000000	86.000000
0.300000	32.400000	12.070000	491.000000	0.000000	169.000000	45.000000	241.000000	94.000000
0.310000	34.290000	13.070000	351.000000	0.000000	168.000000	46.000000	189.000000	100.000000
0.320000	34.290000	13.070000	0.000000	1.000000	169.000000	48.000000	0.000000	0.000000
0.330000	36.480000	14.110000	0.000000	0.000000	168.000000	49.000000	219.000000	104.000000
0.340000	36.670000	14.350000	0.000000	0.000000	168.000000	50.000000	19.000000	24.000000
0.350000	36.140000	14.350000	0.000000	0.000000	169.000000	50.000000	-53.000000	0.000000
0.360000	35.120000	14.200000	0.000000	0.000000	169.000000	50.000000	-102.000000	-15.000000
0.370000	33.920000	13.930000	0.000000	0.000000	169.000000	50.000000	-120.000000	-27.000000
0.380000	32.410000	13.560000	0.000000	0.000000	170.000000	49.000000	-151.000000	-37.000000
0.390000	30.690000	13.220000	0.000000	0.000000	169.000000	46.000000	-172.000000	-34.000000
0.400000	29.290000	12.900000	0.000000	0.000000	169.000000	44.000000	-140.000000	-32.000000
0.410000	28.040000	12.690000	0.000000	0.000000	168.000000	43.000000	-125.000000	-21.000000
0.420000	26.900000	12.500000	0.000000	0.000000	168.000000	41.000000	-114.000000	-19.000000
0.430000	25.860000	12.330000	0.000000	0.000000	168.000000	39.000000	-104.000000	-17.000000
0.440000	24.850000	12.090000	0.000000	0.000000	169.000000	38.000000	-101.000000	-24.000000
0.450000	23.910000	11.830000	0.000000	0.000000	168.000000	37.000000	-94.000000	-26.000000
0.460000	23.030000	11.500000	0.000000	0.000000	169.000000	36.000000	-88.000000	-33.000000
0.470000	22.330000	11.260000	0.000000	0.000000	169.000000	35.000000	-70.000000	-24.000000
0.480000	21.740000	11.090000	0.000000	0.000000	169.000000	35.000000	-59.000000	-17.000000
0.490000	21.300000	11.000000	0.000000	0.000000	170.000000	34.000000	-44.000000	-9.000000
0.500000	20.870000	10.950000	0.000000	0.000000	170.000000	34.000000	-43.000000	-5.000000
0.510000	20.620000	10.950000	0.000000	0.000000	171.000000	33.000000	-25.000000	0.000000
0.520000	20.480000	10.950000	0.000000	0.000000	171.000000	33.000000	-14.000000	0.000000
0.530000	20.350000	10.950000	0.000000	0.000000	170.000000	34.000000	-13.000000	0.000000
0.540000	20.100000	10.880000	0.000000	0.000000	170.000000	34.000000	-25.000000	-7.000000
0.550000	19.780000	10.680000	0.000000	0.000000	169.000000	35.000000	-32.000000	-20.000000
0.560000	19.430000	10.450000	0.000000	0.000000	169.000000	35.000000	-35.000000	-23.000000
0.570000	19.430000	10.450000	103.000000	1.000000	169.000000	37.000000	0.000000	0.000000
0.580000	18.900000	10.170000	131.000000	0.000000	169.000000	37.000000	-53.000000	-28.000000
0.590000	18.980000	10.250000	180.000000	0.000000	168.000000	39.000000	8.000000	8.000000
0.600000	19.260000	10.390000	265.000000	0.000000	168.000000	40.000000	28.000000	14.000000
0.610000	19.860000	10.620000	351.000000	0.000000	167.000000	41.000000	60.000000	23.000000
0.620000	20.920000	10.900000	428.000000	0.000000	167.000000	42.000000	106.000000	28.000000
0.630000	22.280000	11.400000	488.000000	0.000000	166.000000	43.000000	136.000000	50.000000
0.640000	23.990000	12.180000	524.000000	0.000000	166.000000	44.000000	171.000000	78.000000
0.650000	25.700000	13.140000	551.000000	0.000000	166.000000	45.000000	171.000000	96.000000
0.660000	27.410000	13.830000	560.000000	0.000000	165.000000	46.000000	171.000000	69.000000
0.670000	28.730000	14.480000	540.000000	0.000000	165.000000	46.000000	132.000000	65.000000
0.680000	29.800000	14.860000	486.000000	0.000000	165.000000	47.000000	107.000000	38.000000
0.690000	30.510000	15.080000	322.000000	0.000000	165.000000	47.000000	71.000000	22.000000
0.700000	30.880000	15.160000	15.000000	0.000000	164.000000	48.000000	37.000000	8.000000
0.710000	30.880000	15.160000	0.000000	1.000000	164.000000	48.000000	0.000000	0.000000
0.720000	30.750000	14.840000	0.000000	0.000000	164.000000	48.000000	-13.000000	-32.000000
0.730000	30.120000	14.610000	0.000000	0.000000	165.000000	47.000000	-63.000000	-23.000000
0.740000	29.260000	14.330000	0.000000	0.000000	165.000000	47.000000	-86.000000	-28.000000
0.750000	28.360000	14.030000	0.000000	0.000000	164.000000	46.000000	-90.000000	-30.000000
0.760000	27.310000	13.640000	0.000000	0.000000	166.000000	45.000000	-105.000000	-39.000000
0.770000	26.170000	13.200000	0.000000	0.000000	166.000000	43.000000	-114.000000	-44.000000
0.780000	25.040000	12.700000	0.000000	0.000000	167.000000	42.000000	-113.000000	-50.000000
0.790000	24.160000	12.170000	0.000000	0.000000	167.000000	41.000000	-88.000000	-53.000000
0.800000	23.440000	11.640000	0.000000	0.000000	168.000000	40.000000	-72.000000	-53.000000
0.810000	22.920000	11.240000	0.000000	0.000000	168.000000	39.000000	-52.000000	-40.000000
0.820000	22.450000	10.920000	0.000000	0.000000	167.000000	39.000000	-47.000000	-32.000000
0.830000	22.000000	10.590000	0.000000	0.000000	168.000000	38.000000	-45.000000	-33.000000
0.840000	21.750000	10.280000	0.000000	0.000000	167.000000	39.000000	-25.000000	-31.000000
0.850000	21.570000	10.000000	0.000000	0.000000	167.000000	39.000000	-18.000000	-28.000000
0.860000	21.570000	10.000000	146.000000	1.000000	167.000000	40.000000	0.000000	0.000000
0.870000	21.510000	9.600000	165.000000	0.000000	166.000000	41.000000	-6.000000	-40.000000
0.880000	21.600000	9.600000	249.000000	0.000000	165.000000	42.000000	9.000000	0.000000
0.890000	22.000000	9.660000	325.000000	0.000000	165.000000	43.000000	40.000000	6.000000
0.900000	22.610000	9.850000	381.000000	0.000000	165.000000	43.000000	61.000000	19.000000
0.910000	23.380000	10.110000	394.000000	0.000000	164.000000	44.000000	77.000000	26.000000
0.920000	23.940000	10.420000	396.000000	0.000000	163.000000	45.000000	56.000000	31.000000
0.930000	24.350000	10.510000	344.000000	0.000000	164.000000	46.000000	41.000000	9.000000
0.940000	24.500000	10.570000	65.000000	0.000000	164.000000	46.000000	15.000000	6.000000
0.950000	24.500000	10.570000	0.000000	1.000000	163.000000	47.000000	0.000000	0.000000
0.960000	24.550000	10.480000	0.000000	0.000000	163.000000	47.000000	5.000000	-9.000000
0.970000	24.400000	10.480000	0.000000	0.000000	163.000000	47.000000	-15.000000	0.000000
0.980000	24.280000	10.480000	0.000000	0.000000	163.000000	47.000000	-12.000000	0.000000
0.990000	24.280000	10.480000	0.000000	0.000000	163.000000	47.000000	0.000000	0.000000
1.000000	24.420000	10.530000	0.000000	0.000000	164.000000	46.000000	14.000000	5.000000
1.010000	24.510000	10.530000	0.000000	0.000000	164.000000	46.000000	9.000000	0.000000
1.020000	24.620000	10.600000	0.000000	0.000000	164.000000	46.000000	11.000000	7.000000
1.030000	24.620000	10.600000	0.000000	0.000000	164.000000	45.000000	0.000000	0.000000
1.040000	24.620000	10.650000	0.000000	0.000000	164.000000	45.000000	0.000000	5.000000
1.050000	24.620000	10.650000	56.000000	1.000000	164.000000	45.000000	0.000000	0.000000
1.060000	24.370000	10.600000	81.000000	0.000000	163.000000	45.000000	-25.000000	-5.000000
1.070000	24.370000	10.600000	98.000000	0.000000	163.000000	46.000000	0.000000	0.000000
1.080000	24.370000	10.600000	141.000000	0.000000	163.000000	46.000000	0.000000	0.000000
1.090000	24.430000	10.520000	163.000000	0.000000	162.000000	47.000000	6.000000	-8.000000
1.100000	24.540000	10.470000	208.000000	0.000000	162.000000	47.000000	11.000000	-5.000000
1.110000	24.730000	10.390000	212.000000	0.000000	162.000000	48.000000	19.000000	-8.000000
1.120000	24.950000	10.390000	239.000000	0.000000	162.000000	48.000000	22.000000	0.000000
1.130000	25.180000	10.390000	246.000000	0.000000	163.000000	48.000000	23.000000	0.000000
1.140000	25.430000	10.530000	249.000000	0.000000	163.000000	48.000000	25.000000	14.000000
1.150000	25.670000	10.660000	249.000000	0.000000	163.000000	48.000000	24.000000	13.000000
1.160000	25.820000	10.800000	249.000000	0.000000	164.000000	48.000000	15.000000	14.000000
1.170000	25.890000	10.960000	232.000000	0.000000	165.000000	48.000000	7.000000	16.000000
1.180000	25.840000	11.090000	185.000000	0.000000	165.000000	49.000000	-5.000000	13.000000
1.190000	25.660000	11.140000	179.000000	0.000000	166.000000	49.000000	-18.000000	5.000000
1.200000	25.390000	11.140000	173.000000	0.000000	166.000000	49.000000	-27.000000	0.000000
1.210000	25.050000	11.030000	170.000000	0.000000	166.000000	49.000000	-34.000000	-11.000000
1.220000	24.720000	10.880000	168.000000	0.000000	166.000000	49.000000	-33.000000	-15.000000
1.230000	24.430000	10.650000	161.000000	0.000000	166.000000	49.000000	-29.000000	-23.000000
1.240000	24.190000	10.360000	158.000000	0.000000	165.000000	48.000000	-24.000000	-29.000000
1.250000	24.120000	10.090000	137.000000	0.000000	164.000000	48.000000	-7.000000	-27.000000
1.260000	24.120000	9.850000	105.000000	0.000000	164.000000	48.000000	0.000000	-24.000000
1.270000	24.340000	9.740000	110.000000	0.000000	163.000000	48.000000	22.000000	-11.000000
1.280000	24.600000	9.740000	139.000000	0.000000	163.000000	48.000000	26.000000	0.000000
1.290000	24.980000	9.820000	184.000000	0.000000	162.000000	48.000000	38.000000	8.000000
1.300000	25.400000	9.990000	181.000000	0.000000	162.000000	48.000000	42.000000	17.000000
1.310000	25.820000	10.220000	195.000000	0.000000	162.000000	48.000000	42.000000	23.000000
1.320000	26.160000	10.470000	205.000000	0.000000	163.000000	48.000000	34.000000	25.000000
1.330000	26.460000	10.770000	217.000000	0.000000	162.000000	49.000000	30.000000	30.000000
1.340000	26.670000	11.110000	209.000000	0.000000	163.000000	49.000000	21.000000	34.000000
1.350000	26.810000	11.690000	212.000000	0.000000	165.000000	49.000000	14.000000	58.000000
1.360000	26.910000	12.470000	209.000000	0.000000	165.000000	49.000000	10.000000	78.000000
1.370000	26.910000	13.380000	218.000000	0.000000	165.000000	49.000000	0.000000	91.000000
1.380000	26.910000	14.250000	215.000000	0.000000	163.000000	49.000000	0.000000	87.000000
1.390000	26.820000	14.770000	217.000000	0.000000	163.000000	49.000000	-9.000000	52.000000
1.400000	26.700000	15.070000	206.000000	0.000000	162.000000	49.000000	-12.000000	30.000000
1.410000	26.590000	15.070000	222.000000	0.000000	162.000000	49.000000	-11.000000	0.000000
1.420000	26.480000	14.730000	206.000000	0.000000	162.000000	49.000000	-11.000000	-34.000000
1.430000	26.290000	14.240000	207.000000	0.000000	163.000000	48.000000	-19.000000	-49.000000
1.440000	26.130000	13.490000	206.000000	0.000000	163.000000	48.000000	-16.000000	-75.000000
1.450000	26.040000	12.540000	214.000000	0.000000	164.000000	48.000000	-9.000000	-95.000000
1.460000	26.040000	11.470000	219.000000	0.000000	165.000000	48.000000	0.000000	-107.000000
1.470000	26.130000	10.860000	221.000000	0.000000	166.000000	48.000000	9.000000	-61.000000
1.480000	26.330000	10.480000	233.000000	0.000000	167.000000	48.000000	20.000000	-38.000000
1.490000	26.670000	10.250000	237.000000	0.000000	167.000000	48.000000	34.000000	-23.000000
1.500000	27.020000	10.200000	249.000000	0.000000	167.000000	49.000000	35.000000	-5.000000
1.510000	27.330000	10.320000	277.000000	0.000000	167.000000	49.000000	31.000000	12.000000
1.520000	27.600000	10.560000	286.000000	0.000000	167.000000	49.000000	27.000000	24.000000
1.530000	27.800000	10.870000	292.000000	0.000000	166.000000	49.000000	20.000000	31.000000
1.540000	27.880000	11.210000	301.000000	0.000000	166.000000	49.000000	8.000000	34.000000
1.550000	27.880000	11.560000	304.000000	0.000000	164.000000	50.000000	0.000000	35.000000
1.560000	27.770000	11.860000	361.000000	0.000000	164.000000	50.000000	-11.000000	30.000000
1.570000	27.680000	11.910000	371.000000	0.000000	163.000000	50.000000	-9.000000	5.000000
1.580000	27.600000	11.800000	376.000000	0.000000	162.000000	50.000000	-8.000000	-11.000000
1.590000	27.500000	11.460000	387.000000	0.000000	161.000000	49.000000	-10.000000	-34.000000
1.600000	27.390000	11.170000	396.000000	0.000000	159.000000	49.000000	-11.000000	-29.000000
1.610000	27.390000	10.920000	399.000000	0.000000	158.000000	49.000000	0.000000	-25.000000
1.620000	27.450000	10.760000	392.000000	0.000000	158.000000	49.000000	6.000000	-16.000000
1.630000	27.560000	10.660000	392.000000	0.000000	158.000000	49.000000	11.000000	-10.000000
1.640000	27.680000	10.600000	364.000000	0.000000	158.000000	49.000000	12.000000	-6.000000
1.650000	27.760000	10.600000	257.000000	0.000000	158.000000	49.000000	8.000000	0.000000
1.660000	27.840000	10.600000	20.000000	0.000000	159.000000	49.000000	8.000000	0.000000
1.670000	27.840000	10.600000	0.000000	1.000000	161.000000	49.000000	0.000000	0.000000
1.680000	27.910000	10.830000	0.000000	0.000000	162.000000	50.000000	7.000000	23.000000
1.690000	28.010000	11.160000	0.000000	0.000000	163.000000	50.000000	10.000000	33.000000
1.700000	28.120000	11.620000	0.000000	0.000000	163.000000	49.000000	11.000000	46.000000
1.710000	28.230000	12.370000	0.000000	0.000000	163.000000	49.000000	11.000000	75.000000
1.720000	28.330000	13.070000	0.000000	0.000000	164.000000	48.000000	10.000000	70.000000
1.730000	28.330000	13.740000	0.000000	0.000000	164.000000	48.000000	0.000000	67.000000
1.740000	28.380000	14.260000	0.000000	0.000000	165.000000	47.000000	5.000000	52.000000
1.750000	28.380000	14.260000	170.000000	1.000000	165.000000	47.000000	0.000000	0.000000
1.760000	28.380000	14.260000	172.000000	0.000000	165.000000	46.000000	0.000000	0.000000
1.770000	28.380000	14.260000	177.000000	0.000000	164.000000	46.000000	0.000000	0.000000
1.780000	28.380000	14.260000	179.000000	0.000000	162.000000	47.000000	0.000000	0.000000
1.790000	28.140000	13.820000	139.000000	0.000000	162.000000	47.000000	-24.000000	-44.000000
1.800000	28.140000	13.820000	0.000000	1.000000	161.000000	46.000000	0.000000	0.000000
1.810000	28.300000	12.990000	0.000000	0.000000	162.000000	48.000000	16.000000	-83.000000
1.820000	28.480000	12.590000	0.000000	0.000000	162.000000	48.000000	18.000000	-40.000000
1.830000	28.650000	12.270000	0.000000	0.000000	162.000000	48.000000	17.000000	-32.000000
1.840000	28.760000	11.990000	0.000000	0.000000	163.000000	48.000000	11.000000	-28.000000
1.850000	28.830000	11.760000	0.000000	0.000000	163.000000	48.000000	7.000000	-23.000000
1.860000	28.960000	11.650000	0.000000	0.000000	163.000000	47.000000	13.000000	-11.000000
1.870000	29.090000	11.650000	0.000000	0.000000	165.000000	47.000000	13.000000	0.000000
1.880000	29.210000	11.650000	0.000000	0.000000	165.000000	46.000000	12.000000	0.000000
1.890000	29.270000	11.750000	0.000000	0.000000	166.000000	45.000000	6.000000	10.000000
1.900000	29.270000	11.850000	0.000000	0.000000	165.000000	44.000000	0.000000	10.000000
1.910000	29.270000	11.940000	0.000000	0.000000	165.000000	44.000000	0.000000	9.000000
1.920000	29.270000	11.940000	190.000000	1.000000	165.000000	44.000000	0.000000	0.000000
1.930000	29.090000	12.240000	202.000000	0.000000	164.000000	45.000000	-18.000000	30.000000
1.940000	28.990000	12.330000	203.000000	0.000000	164.000000	46.000000	-10.000000	9.000000
1.950000	28.900000	12.070000	226.000000	0.000000	165.000000	47.000000	-9.000000	-26.000000
1.960000	28.830000	11.590000	284.000000	0.000000	164.000000	48.000000	-7.000000	-48.000000
1.970000	28.730000	10.920000	305.000000	0.000000	165.000000	49.000000	-10.000000	-67.000000
1.980000	28.610000	10.200000	325.000000	0.000000	164.000000	50.000000	-12.000000	-72.000000
1.990000	28.530000	9.430000	329.000000	0.000000	165.000000	50.000000	-8.000000	-77.000000
2.000000	28.480000	8.690000	277.000000	0.000000	165.000000	50.000000	-5.000000	-74.000000
2.010000	28.480000	8.160000	93.000000	0.000000	165.000000	50.000000	0.000000	-53.000000
2.020000	28.480000	8.160000	0.000000	1.000000	165.000000	50.000000	0.000000	0.000000
2.030000	28.480000	7.750000	0.000000	0.000000	167.000000	50.000000	0.000000	-41.000000
2.040000	28.580000	7.970000	0.000000	0.000000	167.000000	49.000000	10.000000	22.000000
2.050000	28.680000	8.350000	0.000000	0.000000	167.000000	49.000000	10.000000	38.000000
2.060000	28.680000	8.820000	0.000000	0.000000	167.000000	49.000000	0.000000	47.000000
2.070000	28.680000	9.330000	0.000000	0.000000	166.000000	48.000000	0.000000	51.000000
2.080000	28.580000	9.860000	0.000000	0.000000	166.000000	48.000000	-10.000000	53.000000
2.090000	28.510000	10.430000	0.000000	0.000000	166.000000	48.000000	-7.000000	57.000000
2.100000	28.430000	11.000000	0.000000	0.000000	166.000000	48.000000	-8.000000	57.000000
2.110000	28.510000	11.560000	0.000000	0.000000	166.000000	47.000000	8.000000	56.000000
2.120000	28.510000	11.560000	242.000000	1.000000	165.000000	48.000000	0.000000	0.000000
2.130000	28.690000	12.140000	255.000000	0.000000	165.000000	48.000000	18.000000	58.000000
2.140000	28.780000	12.450000	270.000000	0.000000	165.000000	48.000000	9.000000	31.000000
2.150000	29.020000	12.710000	340.000000	0.000000	165.000000	49.000000	24.000000	26.000000
2.160000	29.360000	12.880000	393.000000	0.000000	165.000000	49.000000	34.000000	17.000000
2.170000	29.620000	13.010000	405.000000	0.000000	165.000000	49.000000	26.000000	13.000000
2.180000	29.910000	12.960000	412.000000	0.000000	164.000000	50.000000	29.000000	-5.000000
2.190000	30.070000	12.790000	417.000000	0.000000	162.000000	51.000000	16.000000	-17.000000
2.200000	30.130000	12.440000	422.000000	0.000000	162.000000	51.000000	6.000000	-35.000000
2.210000	30.080000	12.080000	407.000000	0.000000	162.000000	51.000000	-5.000000	-36.000000
2.220000	29.770000	11.660000	377.000000	0.000000	161.000000	50.000000	-31.000000	-42.000000
