t	x	y	pressure	penup	azimuth	inclination	v_x	v_y
0.000000	11.810000	9.480000	15.000000	1.000000	161.000000	41.000000	0.000000	0.000000
0.010000	11.810000	9.480000	61.000000	0.000000	161.000000	41.000000	0.000000	0.000000
0.020000	11.810000	9.480000	81.000000	0.000000	161.000000	41.000000	0.000000	0.000000
0.030000	11.810000	9.480000	91.000000	0.000000	161.000000	41.000000	0.000000	0.000000
0.040000	11.810000	9.480000	141.000000	0.000000	161.000000	41.000000	0.000000	0.000000
0.050000	11.810000	9.480000	181.000000	0.000000	161.000000	41.000000	0.000000	0.000000
0.060000	12.290000	9.830000	228.000000	0.000000	161.000000	41.000000	48.000000	35.000000
0.070000	12.890000	10.340000	247.000000	0.000000	161.000000	42.000000	60.000000	51.000000
0.080000	13.670000	11.140000	249.000000	0.000000	160.000000	42.000000	78.000000	80.000000
0.090000	14.580000	12.290000	256.000000	0.000000	159.000000	43.000000	91.000000	115.000000
0.100000	15.570000	13.670000	245.000000	0.000000	158.000000	43.000000	99.000000	138.000000
0.110000	16.590000	14.930000	254.000000	0.000000	156.000000	43.000000	102.000000	126.000000
0.120000	17.630000	15.950000	269.000000	0.000000	154.000000	44.000000	104.000000	102.000000
0.130000	18.280000	16.820000	292.000000	0.000000	152.000000	44.000000	65.000000	87.000000
0.140000	18.540000	17.200000	398.000000	0.000000	149.000000	44.000000	26.000000	38.000000
0.150000	18.540000	17.200000	443.000000	0.000000	147.000000	45.000000	0.000000	0.000000
0.160000	18.370000	16.980000	449.000000	0.000000	145.000000	44.000000	-17.000000	-22.000000
0.170000	17.870000	16.580000	448.000000	0.000000	142.000000	44.000000	-50.000000	-40.000000
0.180000	17.140000	15.710000	440.000000	0.000000	142.000000	44.000000	-73.000000	-87.000000
0.190000	16.310000	14.520000	425.000000	0.000000	141.000000	44.000000	-83.000000	-119.000000
0.200000	15.520000	13.460000	405.000000	0.000000	142.000000	44.000000	-79.000000	-106.000000
0.210000	14.800000	12.320000	404.000000	0.000000	144.000000	44.000000	-72.000000	-114.000000
0.220000	14.160000	11.140000	404.000000	0.000000	147.000000	45.000000	-64.000000	-118.000000
0.230000	13.720000	10.440000	402.000000	0.000000	150.000000	45.000000	-44.000000	-70.000000
0.240000	13.400000	10.020000	399.000000	0.000000	152.000000	44.000000	-32.000000	-42.000000
0.250000	13.310000	9.800000	348.000000	0.000000	154.000000	44.000000	-9.000000	-22.000000
0.260000	13.260000	9.730000	289.000000	0.000000	156.000000	44.000000	-5.000000	-7.000000
0.270000	13.260000	9.730000	284.000000	0.000000	157.000000	44.000000	0.000000	0.000000
0.280000	13.330000	9.800000	292.000000	0.000000	158.000000	44.000000	7.000000	7.000000
0.290000	13.420000	9.800000	304.000000	0.000000	159.000000	43.000000	9.000000	0.000000
0.300000	13.420000	9.800000	332.000000	0.000000	159.000000	43.000000	0.000000	0.000000
0.310000	13.420000	9.800000	344.000000	0.000000	160.000000	42.000000	0.000000	0.000000
0.320000	13.420000	9.800000	340.000000	0.000000	160.000000	42.000000	0.000000	0.000000
0.330000	13.420000	9.800000	335.000000	0.000000	160.000000	42.000000	0.000000	0.000000
0.340000	13.420000	9.800000	335.000000	0.000000	160.000000	42.000000	0.000000	0.000000
0.350000	13.420000	9.800000	335.000000	0.000000	160.000000	42.000000	0.000000	0.000000
0.360000	13.420000	9.800000	335.000000	0.000000	160.000000	42.000000	0.000000	0.000000
0.370000	13.420000	9.800000	334.000000	0.000000	160.000000	42.000000	0.000000	0.000000
0.380000	13.420000	9.800000	307.000000	0.000000	161.000000	42.000000	0.000000	0.000000
0.390000	13.420000	9.800000	289.000000	0.000000	161.000000	42.000000	0.000000	0.000000
0.400000	13.420000	9.800000	274.000000	0.000000	161.000000	42.000000	0.000000	0.000000
0.410000	13.420000	9.800000	280.000000	0.000000	161.000000	42.000000	0.000000	0.000000
0.420000	13.420000	9.800000	279.000000	0.000000	161.000000	42.000000	0.000000	0.000000
0.430000	13.470000	9.800000	265.000000	0.000000	161.000000	42.000000	5.000000	0.000000
0.440000	13.470000	9.730000	254.000000	0.000000	161.000000	42.000000	0.000000	-7.000000
0.450000	13.560000	9.730000	259.000000	0.000000	161.000000	42.000000	9.000000	0.000000
0.460000	13.850000	9.850000	270.000000	0.000000	161.000000	42.000000	29.000000	12.000000
0.470000	14.280000	10.240000	279.000000	0.000000	160.000000	43.000000	43.000000	39.000000
0.480000	15.050000	11.010000	285.000000	0.000000	160.000000	43.000000	77.000000	77.000000
0.490000	16.110000	12.040000	291.000000	0.000000	160.000000	43.000000	106.000000	103.000000
0.500000	17.360000	13.500000	302.000000	0.000000	158.000000	44.000000	125.000000	146.000000
0.510000	18.710000	14.910000	304.000000	0.000000	157.000000	45.000000	135.000000	141.000000
0.520000	20.060000	16.300000	305.000000	0.000000	154.000000	44.000000	135.000000	139.000000
0.530000	21.170000	17.430000	309.000000	0.000000	152.000000	44.000000	111.000000	113.000000
0.540000	22.100000	18.070000	307.000000	0.000000	150.000000	45.000000	93.000000	64.000000
0.550000	22.380000	18.390000	342.000000	0.000000	147.000000	45.000000	28.000000	32.000000
0.560000	22.330000	18.250000	374.000000	0.000000	145.000000	45.000000	-5.000000	-14.000000
0.570000	22.060000	18.060000	376.000000	0.000000	141.000000	45.000000	-27.000000	-19.000000
0.580000	21.540000	17.490000	387.000000	0.000000	141.000000	45.000000	-52.000000	-57.000000
0.590000	20.740000	16.690000	384.000000	0.000000	141.000000	45.000000	-80.000000	-80.000000
0.600000	19.750000	15.610000	387.000000	0.000000	141.000000	45.000000	-99.000000	-108.000000
0.610000	18.820000	14.480000	391.000000	0.000000	141.000000	45.000000	-93.000000	-113.000000
0.620000	17.920000	13.390000	396.000000	0.000000	142.000000	44.000000	-90.000000	-109.000000
0.630000	17.100000	12.340000	399.000000	0.000000	143.000000	45.000000	-82.000000	-105.000000
0.640000	16.550000	11.440000	399.000000	0.000000	144.000000	44.000000	-55.000000	-90.000000
0.650000	16.160000	11.050000	377.000000	0.000000	147.000000	44.000000	-39.000000	-39.000000
0.660000	16.160000	11.000000	346.000000	0.000000	149.000000	44.000000	0.000000	-5.000000
0.670000	16.230000	11.000000	353.000000	0.000000	150.000000	45.000000	7.000000	0.000000
0.680000	16.540000	11.230000	356.000000	0.000000	152.000000	44.000000	31.000000	23.000000
0.690000	17.000000	11.620000	354.000000	0.000000	152.000000	44.000000	46.000000	39.000000
0.700000	17.390000	12.180000	354.000000	0.000000	152.000000	44.000000	39.000000	56.000000
0.710000	17.710000	12.690000	354.000000	0.000000	152.000000	44.000000	32.000000	51.000000
0.720000	17.970000	13.000000	344.000000	0.000000	150.000000	44.000000	26.000000	31.000000
0.730000	18.110000	13.200000	319.000000	0.000000	149.000000	44.000000	14.000000	20.000000
0.740000	18.160000	13.200000	276.000000	0.000000	147.000000	44.000000	5.000000	0.000000
0.750000	18.160000	13.200000	211.000000	0.000000	145.000000	43.000000	0.000000	0.000000
0.760000	18.090000	13.150000	132.000000	0.000000	145.000000	43.000000	-7.000000	-5.000000
0.770000	17.990000	12.960000	58.000000	0.000000	144.000000	43.000000	-10.000000	-19.000000
0.780000	17.990000	12.960000	0.000000	1.000000	144.000000	43.000000	0.000000	0.000000
0.790000	17.880000	12.570000	0.000000	0.000000	144.000000	43.000000	-11.000000	-39.000000
0.800000	17.990000	12.630000	0.000000	0.000000	145.000000	43.000000	11.000000	6.000000
0.810000	18.090000	12.810000	0.000000	0.000000	145.000000	43.000000	10.000000	18.000000
0.820000	18.340000	13.250000	0.000000	0.000000	145.000000	43.000000	25.000000	44.000000
0.830000	18.770000	13.820000	0.000000	0.000000	146.000000	43.000000	43.000000	57.000000
0.840000	19.320000	14.470000	0.000000	0.000000	147.000000	42.000000	55.000000	65.000000
0.850000	20.480000	15.220000	0.000000	0.000000	148.000000	41.000000	116.000000	75.000000
0.860000	21.310000	16.020000	0.000000	0.000000	149.000000	41.000000	83.000000	80.000000
0.870000	21.910000	16.860000	0.000000	0.000000	150.000000	40.000000	60.000000	84.000000
0.880000	22.810000	17.640000	0.000000	0.000000	148.000000	40.000000	90.000000	78.000000
0.890000	23.720000	18.340000	0.000000	0.000000	147.000000	40.000000	91.000000	70.000000
0.900000	24.630000	18.850000	0.000000	0.000000	145.000000	41.000000	91.000000	51.000000
0.910000	25.520000	19.250000	0.000000	0.000000	142.000000	42.000000	89.000000	40.000000
0.920000	26.410000	19.480000	0.000000	0.000000	142.000000	43.000000	89.000000	23.000000
0.930000	27.070000	19.650000	0.000000	0.000000	140.000000	45.000000	66.000000	17.000000
0.940000	27.520000	19.730000	0.000000	0.000000	138.000000	46.000000	45.000000	8.000000
0.950000	27.820000	19.680000	0.000000	0.000000	138.000000	47.000000	30.000000	-5.000000
0.960000	27.870000	19.560000	0.000000	0.000000	137.000000	47.000000	5.000000	-12.000000
0.970000	27.870000	19.560000	27.000000	1.000000	138.000000	48.000000	0.000000	0.000000
0.980000	27.460000	19.040000	70.000000	0.000000	138.000000	48.000000	-41.000000	-52.000000
0.990000	26.960000	18.760000	117.000000	0.000000	138.000000	48.000000	-50.000000	-28.000000
1.000000	26.340000	18.490000	137.000000	0.000000	138.000000	47.000000	-62.000000	-27.000000
1.010000	25.630000	17.940000	180.000000	0.000000	138.000000	47.000000	-71.000000	-55.000000
1.020000	24.890000	17.180000	200.000000	0.000000	139.000000	47.000000	-74.000000	-76.000000
1.030000	24.110000	16.280000	235.000000	0.000000	139.000000	47.000000	-78.000000	-90.000000
1.040000	23.310000	15.310000	259.000000	0.000000	140.000000	47.000000	-80.000000	-97.000000
1.050000	22.570000	14.340000	289.000000	0.000000	140.000000	47.000000	-74.000000	-97.000000
1.060000	21.870000	13.500000	306.000000	0.000000	143.000000	46.000000	-70.000000	-84.000000
1.070000	21.440000	12.760000	302.000000	0.000000	143.000000	46.000000	-43.000000	-74.000000
1.080000	21.160000	12.250000	273.000000	0.000000	144.000000	46.000000	-28.000000	-51.000000
1.090000	21.160000	11.990000	256.000000	0.000000	144.000000	46.000000	0.000000	-26.000000
1.100000	21.220000	11.890000	240.000000	0.000000	144.000000	46.000000	6.000000	-10.000000
1.110000	21.400000	11.890000	241.000000	0.000000	145.000000	45.000000	18.000000	0.000000
1.120000	21.730000	12.170000	257.000000	0.000000	145.000000	45.000000	33.000000	28.000000
1.130000	22.180000	12.630000	280.000000	0.000000	145.000000	45.000000	45.000000	46.000000
1.140000	22.700000	13.250000	282.000000	0.000000	145.000000	45.000000	52.000000	62.000000
1.150000	23.190000	13.850000	284.000000	0.000000	144.000000	46.000000	49.000000	60.000000
1.160000	23.520000	14.270000	289.000000	0.000000	144.000000	46.000000	33.000000	42.000000
1.170000	23.740000	14.570000	301.000000	0.000000	144.000000	46.000000	22.000000	30.000000
1.180000	23.740000	14.570000	345.000000	0.000000	144.000000	46.000000	0.000000	0.000000
1.190000	23.670000	14.570000	344.000000	0.000000	144.000000	46.000000	-7.000000	0.000000
1.200000	23.530000	14.450000	342.000000	0.000000	144.000000	46.000000	-14.000000	-12.000000
1.210000	23.170000	14.160000	342.000000	0.000000	144.000000	46.000000	-36.000000	-29.000000
1.220000	22.850000	13.740000	339.000000	0.000000	144.000000	46.000000	-32.000000	-42.000000
1.230000	22.620000	13.430000	304.000000	0.000000	144.000000	46.000000	-23.000000	-31.000000
1.240000	22.450000	13.220000	277.000000	0.000000	144.000000	46.000000	-17.000000	-21.000000
1.250000	22.450000	13.220000	235.000000	0.000000	144.000000	46.000000	0.000000	0.000000
1.260000	22.450000	13.220000	223.000000	0.000000	144.000000	46.000000	0.000000	0.000000
1.270000	22.450000	13.220000	207.000000	0.000000	144.000000	46.000000	0.000000	0.000000
1.280000	22.760000	13.150000	212.000000	0.000000	144.000000	46.000000	31.000000	-7.000000
1.290000	22.900000	13.230000	180.000000	0.000000	144.000000	46.000000	14.000000	8.000000
1.300000	22.970000	13.290000	168.000000	0.000000	144.000000	46.000000	7.000000	6.000000
1.310000	22.970000	13.290000	148.000000	0.000000	142.000000	45.000000	0.000000	0.000000
1.320000	22.970000	13.290000	141.000000	0.000000	142.000000	45.000000	0.000000	0.000000
1.330000	22.970000	13.290000	142.000000	0.000000	141.000000	45.000000	0.000000	0.000000
1.340000	22.910000	13.190000	96.000000	0.000000	141.000000	45.000000	-6.000000	-10.000000
1.350000	22.800000	13.060000	25.000000	0.000000	141.000000	45.000000	-11.000000	-13.000000
1.360000	22.800000	13.060000	0.000000	1.000000	140.000000	45.000000	0.000000	0.000000
1.370000	22.670000	12.870000	0.000000	0.000000	140.000000	45.000000	-13.000000	-19.000000
1.380000	22.620000	12.870000	0.000000	0.000000	140.000000	45.000000	-5.000000	0.000000
1.390000	22.620000	12.960000	0.000000	0.000000	140.000000	45.000000	0.000000	9.000000
1.400000	22.620000	13.220000	0.000000	0.000000	140.000000	45.000000	0.000000	26.000000
1.410000	22.880000	13.590000	0.000000	0.000000	141.000000	44.000000	26.000000	37.000000
1.420000	23.200000	14.060000	0.000000	0.000000	142.000000	43.000000	32.000000	47.000000
1.430000	23.640000	14.560000	0.000000	0.000000	143.000000	43.000000	44.000000	50.000000
1.440000	24.250000	15.070000	0.000000	0.000000	144.000000	42.000000	61.000000	51.000000
1.450000	24.970000	15.590000	0.000000	0.000000	145.000000	41.000000	72.000000	52.000000
1.460000	25.790000	16.140000	0.000000	0.000000	146.000000	41.000000	82.000000	55.000000
1.470000	26.660000	16.710000	0.000000	0.000000	146.000000	41.000000	87.000000	57.000000
1.480000	27.550000	17.310000	0.000000	0.000000	147.000000	41.000000	89.000000	60.000000
1.490000	28.260000	17.760000	0.000000	0.000000	146.000000	42.000000	71.000000	45.000000
1.500000	28.880000	18.120000	0.000000	0.000000	145.000000	42.000000	62.000000	36.000000
1.510000	29.430000	18.320000	0.000000	0.000000	143.000000	44.000000	55.000000	20.000000
1.520000	30.180000	18.480000	0.000000	0.000000	142.000000	45.000000	75.000000	16.000000
1.530000	30.440000	18.560000	0.000000	0.000000	141.000000	46.000000	26.000000	8.000000
1.540000	30.380000	18.620000	0.000000	0.000000	139.000000	47.000000	-6.000000	6.000000
1.550000	30.730000	18.790000	0.000000	0.000000	138.000000	48.000000	35.000000	17.000000
1.560000	30.730000	18.790000	13.000000	0.000000	138.000000	48.000000	0.000000	0.000000
1.570000	31.270000	19.220000	54.000000	1.000000	137.000000	48.000000	0.000000	0.000000
1.580000	31.270000	19.360000	88.000000	0.000000	138.000000	48.000000	0.000000	14.000000
1.590000	31.270000	19.360000	108.000000	0.000000	138.000000	48.000000	0.000000	0.000000
1.600000	31.220000	19.360000	117.000000	0.000000	138.000000	48.000000	-5.000000	0.000000
1.610000	31.090000	19.200000	151.000000	0.000000	138.000000	48.000000	-13.000000	-16.000000
1.620000	30.700000	18.780000	193.000000	0.000000	138.000000	48.000000	-39.000000	-42.000000
1.630000	30.220000	18.170000	250.000000	0.000000	139.000000	47.000000	-48.000000	-61.000000
1.640000	29.670000	17.330000	274.000000	0.000000	139.000000	47.000000	-55.000000	-84.000000
1.650000	29.000000	16.300000	305.000000	0.000000	139.000000	47.000000	-67.000000	-103.000000
1.660000	28.230000	15.140000	337.000000	0.000000	139.000000	47.000000	-77.000000	-116.000000
1.670000	27.390000	14.040000	344.000000	0.000000	140.000000	47.000000	-84.000000	-110.000000
1.680000	26.700000	13.060000	345.000000	0.000000	140.000000	47.000000	-69.000000	-98.000000
1.690000	26.200000	12.160000	344.000000	0.000000	140.000000	47.000000	-50.000000	-90.000000
1.700000	25.820000	11.450000	335.000000	0.000000	142.000000	47.000000	-38.000000	-71.000000
1.710000	25.710000	11.120000	299.000000	0.000000	143.000000	46.000000	-11.000000	-33.000000
1.720000	25.810000	11.050000	299.000000	0.000000	144.000000	47.000000	10.000000	-7.000000
1.730000	26.050000	11.180000	306.000000	0.000000	145.000000	47.000000	24.000000	13.000000
1.740000	26.740000	11.840000	305.000000	0.000000	145.000000	47.000000	69.000000	66.000000
1.750000	27.480000	12.860000	314.000000	0.000000	146.000000	48.000000	74.000000	102.000000
1.760000	28.310000	13.870000	314.000000	0.000000	145.000000	48.000000	83.000000	101.000000
1.770000	29.090000	14.810000	314.000000	0.000000	144.000000	48.000000	78.000000	94.000000
1.780000	29.820000	15.510000	317.000000	0.000000	144.000000	48.000000	73.000000	70.000000
1.790000	30.320000	16.060000	317.000000	0.000000	143.000000	48.000000	50.000000	55.000000
1.800000	30.500000	16.280000	339.000000	0.000000	143.000000	48.000000	18.000000	22.000000
1.810000	30.500000	16.230000	344.000000	0.000000	143.000000	46.000000	0.000000	-5.000000
1.820000	30.150000	16.010000	348.000000	0.000000	143.000000	46.000000	-35.000000	-22.000000
1.830000	29.680000	15.510000	353.000000	0.000000	141.000000	46.000000	-47.000000	-50.000000
1.840000	29.110000	14.900000	343.000000	0.000000	141.000000	46.000000	-57.000000	-61.000000
1.850000	28.670000	14.210000	335.000000	0.000000	141.000000	46.000000	-44.000000	-69.000000
1.860000	28.250000	13.650000	304.000000	0.000000	141.000000	46.000000	-42.000000	-56.000000
1.870000	28.070000	13.310000	216.000000	0.000000	141.000000	46.000000	-18.000000	-34.000000
1.880000	28.070000	13.110000	187.000000	0.000000	140.000000	47.000000	0.000000	-20.000000
1.890000	28.070000	13.110000	182.000000	0.000000	142.000000	47.000000	0.000000	0.000000
1.900000	28.310000	13.200000	163.000000	0.000000	142.000000	47.000000	24.000000	9.000000
1.910000	28.650000	13.440000	141.000000	0.000000	142.000000	47.000000	34.000000	24.000000
1.920000	29.100000	13.850000	98.000000	0.000000	142.000000	48.000000	45.000000	41.000000
1.930000	29.600000	14.350000	80.000000	0.000000	142.000000	48.000000	50.000000	50.000000
1.940000	30.170000	14.910000	60.000000	0.000000	142.000000	48.000000	57.000000	56.000000
1.950000	30.790000	15.530000	70.000000	0.000000	142.000000	48.000000	62.000000	62.000000
1.960000	31.410000	16.150000	90.000000	0.000000	142.000000	48.000000	62.000000	62.000000
1.970000	31.950000	16.760000	129.000000	0.000000	143.000000	48.000000	54.000000	61.000000
1.980000	32.450000	17.240000	148.000000	0.000000	143.000000	48.000000	50.000000	48.000000
1.990000	32.740000	17.550000	186.000000	0.000000	142.000000	48.000000	29.000000	31.000000
2.000000	32.900000	17.740000	173.000000	0.000000	142.000000	48.000000	16.000000	19.000000
2.010000	32.980000	17.740000	183.000000	0.000000	142.000000	48.000000	8.000000	0.000000
2.020000	32.980000	17.740000	223.000000	0.000000	142.000000	48.000000	0.000000	0.000000
2.030000	32.860000	17.470000	256.000000	0.000000	141.000000	49.000000	-12.000000	-27.000000
2.040000	32.700000	17.050000	245.000000	0.000000	141.000000	49.000000	-16.000000	-42.000000
2.050000	32.150000	16.160000	254.000000	0.000000	141.000000	49.000000	-55.000000	-89.000000
2.060000	31.150000	14.780000	274.000000	0.000000	141.000000	49.000000	-100.000000	-138.000000
2.070000	29.840000	13.080000	329.000000	0.000000	141.000000	49.000000	-131.000000	-170.000000
2.080000	28.310000	11.080000	389.000000	0.000000	142.000000	48.000000	-153.000000	-200.000000
2.090000	26.830000	9.660000	407.000000	0.000000	143.000000	49.000000	-148.000000	-142.000000
2.100000	25.690000	8.620000	410.000000	0.000000	144.000000	48.000000	-114.000000	-104.000000
2.110000	24.750000	7.880000	394.000000	0.000000	145.000000	47.000000	-94.000000	-74.000000
2.120000	24.490000	7.560000	335.000000	0.000000	146.000000	47.000000	-26.000000	-32.000000
2.130000	24.730000	7.560000	335.000000	0.000000	148.000000	46.000000	24.000000	0.000000
2.140000	25.290000	8.050000	337.000000	0.000000	149.000000	46.000000	56.000000	49.000000
2.150000	26.350000	9.050000	343.000000	0.000000	150.000000	45.000000	106.000000	100.000000
2.160000	27.560000	10.360000	371.000000	0.000000	150.000000	45.000000	121.000000	131.000000
2.170000	28.860000	12.220000	397.000000	0.000000	150.000000	45.000000	130.000000	186.000000
2.180000	30.000000	13.990000	425.000000	0.000000	149.000000	46.000000	114.000000	177.000000
2.190000	30.620000	15.700000	449.000000	0.000000	149.000000	46.000000	62.000000	171.000000
2.200000	30.900000	16.640000	452.000000	0.000000	147.000000	46.000000	28.000000	94.000000
2.210000	30.420000	17.140000	452.000000	0.000000	146.000000	47.000000	-48.000000	50.000000
