t	x	y	pressure	penup	azimuth	inclination	v_x	v_y
0.000000	12.170000	13.210000	88.000000	1.000000	172.000000	45.000000	0.000000	0.000000
0.010000	12.600000	13.820000	107.000000	0.000000	171.000000	46.000000	43.000000	61.000000
0.020000	12.600000	13.870000	108.000000	0.000000	170.000000	47.000000	0.000000	5.000000
0.030000	12.490000	13.700000	149.000000	0.000000	169.000000	47.000000	-11.000000	-17.000000
0.040000	12.350000	13.280000	175.000000	0.000000	169.000000	47.000000	-14.000000	-42.000000
0.050000	12.170000	12.690000	212.000000	0.000000	169.000000	48.000000	-18.000000	-59.000000
0.060000	11.880000	11.680000	249.000000	0.000000	167.000000	49.000000	-29.000000	-101.000000
0.070000	11.520000	10.670000	277.000000	0.000000	168.000000	49.000000	-36.000000	-101.000000
0.080000	11.100000	9.630000	306.000000	0.000000	168.000000	50.000000	-42.000000	-104.000000
0.090000	10.590000	8.540000	366.000000	0.000000	169.000000	50.000000	-51.000000	-109.000000
0.100000	10.050000	7.330000	468.000000	0.000000	170.000000	50.000000	-54.000000	-121.000000
0.110000	9.490000	6.520000	516.000000	0.000000	173.000000	50.000000	-56.000000	-81.000000
0.120000	9.350000	5.970000	563.000000	0.000000	174.000000	49.000000	-14.000000	-55.000000
0.130000	9.430000	5.970000	620.000000	0.000000	177.000000	49.000000	8.000000	0.000000
0.140000	9.650000	6.500000	636.000000	0.000000	178.000000	48.000000	22.000000	53.000000
0.150000	10.390000	7.490000	644.000000	0.000000	178.000000	48.000000	74.000000	99.000000
0.160000	11.660000	9.180000	668.000000	0.000000	178.000000	48.000000	127.000000	169.000000
0.170000	13.270000	11.300000	668.000000	0.000000	178.000000	48.000000	161.000000	212.000000
0.180000	14.850000	13.710000	653.000000	0.000000	177.000000	49.000000	158.000000	241.000000
0.190000	16.430000	15.770000	611.000000	0.000000	174.000000	50.000000	158.000000	206.000000
0.200000	17.640000	17.160000	578.000000	0.000000	171.000000	51.000000	121.000000	139.000000
0.210000	18.590000	18.100000	443.000000	0.000000	169.000000	51.000000	95.000000	94.000000
0.220000	19.050000	18.300000	228.000000	0.000000	164.000000	53.000000	46.000000	20.000000
0.230000	19.180000	18.090000	66.000000	0.000000	161.000000	55.000000	13.000000	-21.000000
0.240000	19.180000	18.090000	0.000000	1.000000	158.000000	55.000000	0.000000	0.000000
0.250000	18.680000	16.670000	0.000000	0.000000	155.000000	55.000000	-50.000000	-142.000000
0.260000	17.940000	15.700000	0.000000	0.000000	155.000000	55.000000	-74.000000	-97.000000
0.270000	16.980000	14.660000	0.000000	0.000000	156.000000	55.000000	-96.000000	-104.000000
0.280000	15.880000	13.410000	0.000000	0.000000	158.000000	54.000000	-110.000000	-125.000000
0.290000	14.820000	12.020000	0.000000	0.000000	160.000000	53.000000	-106.000000	-139.000000
0.300000	13.850000	10.850000	0.000000	0.000000	164.000000	52.000000	-97.000000	-117.000000
0.310000	13.170000	9.970000	0.000000	0.000000	168.000000	50.000000	-68.000000	-88.000000
0.320000	12.670000	9.290000	0.000000	0.000000	170.000000	50.000000	-50.000000	-68.000000
0.330000	12.420000	8.790000	0.000000	0.000000	173.000000	49.000000	-25.000000	-50.000000
0.340000	12.160000	8.370000	0.000000	0.000000	176.000000	48.000000	-26.000000	-42.000000
0.350000	11.900000	8.000000	0.000000	0.000000	178.000000	48.000000	-26.000000	-37.000000
0.360000	11.700000	7.760000	0.000000	0.000000	179.000000	48.000000	-20.000000	-24.000000
0.370000	11.510000	7.550000	0.000000	0.000000	180.000000	48.000000	-19.000000	-21.000000
0.380000	11.360000	7.370000	0.000000	0.000000	180.000000	48.000000	-15.000000	-18.000000
0.390000	11.250000	7.230000	0.000000	0.000000	180.000000	48.000000	-11.000000	-14.000000
0.400000	11.250000	7.230000	0.000000	0.000000	180.000000	48.000000	0.000000	0.000000
0.410000	11.250000	7.230000	0.000000	0.000000	180.000000	48.000000	0.000000	0.000000
0.420000	11.250000	7.230000	0.000000	0.000000	180.000000	48.000000	0.000000	0.000000
0.430000	11.250000	7.230000	0.000000	0.000000	180.000000	48.000000	0.000000	0.000000
0.440000	11.250000	7.230000	0.000000	0.000000	180.000000	48.000000	0.000000	0.000000
0.450000	11.640000	7.360000	0.000000	0.000000	180.000000	48.000000	39.000000	13.000000
0.460000	11.840000	7.550000	0.000000	0.000000	180.000000	48.000000	20.000000	19.000000
0.470000	12.070000	7.790000	0.000000	0.000000	180.000000	48.000000	23.000000	24.000000
0.480000	12.310000	8.060000	0.000000	0.000000	180.000000	48.000000	24.000000	27.000000
0.490000	12.310000	8.060000	56.000000	1.000000	180.000000	48.000000	0.000000	0.000000
0.500000	12.530000	8.400000	122.000000	0.000000	180.000000	49.000000	22.000000	34.000000
0.510000	12.480000	8.490000	178.000000	0.000000	179.000000	49.000000	-5.000000	9.000000
0.520000	12.480000	8.490000	246.000000	0.000000	179.000000	49.000000	0.000000	0.000000
0.530000	12.330000	8.550000	250.000000	0.000000	178.000000	49.000000	-15.000000	6.000000
0.540000	12.180000	8.550000	275.000000	0.000000	178.000000	49.000000	-15.000000	0.000000
0.550000	12.020000	8.430000	277.000000	0.000000	178.000000	50.000000	-16.000000	-12.000000
0.560000	11.820000	8.260000	309.000000	0.000000	176.000000	50.000000	-20.000000	-17.000000
0.570000	11.580000	7.940000	327.000000	0.000000	176.000000	50.000000	-24.000000	-32.000000
0.580000	11.430000	7.530000	339.000000	0.000000	176.000000	50.000000	-15.000000	-41.000000
0.590000	11.340000	7.120000	333.000000	0.000000	178.000000	50.000000	-9.000000	-41.000000
0.600000	11.280000	6.820000	339.000000	0.000000	178.000000	49.000000	-6.000000	-30.000000
0.610000	11.350000	6.600000	336.000000	0.000000	178.000000	49.000000	7.000000	-22.000000
0.620000	11.450000	6.520000	339.000000	0.000000	179.000000	49.000000	10.000000	-8.000000
0.630000	11.630000	6.520000	344.000000	0.000000	179.000000	49.000000	18.000000	0.000000
0.640000	11.890000	6.680000	339.000000	0.000000	179.000000	48.000000	26.000000	16.000000
0.650000	12.190000	6.920000	324.000000	0.000000	179.000000	48.000000	30.000000	24.000000
0.660000	12.500000	7.200000	305.000000	0.000000	179.000000	48.000000	31.000000	28.000000
0.670000	12.700000	7.520000	307.000000	0.000000	179.000000	49.000000	20.000000	32.000000
0.680000	12.840000	7.810000	309.000000	0.000000	179.000000	49.000000	14.000000	29.000000
0.690000	12.980000	8.080000	311.000000	0.000000	179.000000	49.000000	14.000000	27.000000
0.700000	13.030000	8.340000	311.000000	0.000000	179.000000	50.000000	5.000000	26.000000
0.710000	13.030000	8.460000	305.000000	0.000000	178.000000	50.000000	0.000000	12.000000
0.720000	13.030000	8.520000	314.000000	0.000000	178.000000	51.000000	0.000000	6.000000
0.730000	12.970000	8.470000	319.000000	0.000000	178.000000	51.000000	-6.000000	-5.000000
0.740000	12.970000	8.380000	319.000000	0.000000	176.000000	51.000000	0.000000	-9.000000
0.750000	12.840000	8.110000	320.000000	0.000000	176.000000	51.000000	-13.000000	-27.000000
0.760000	12.750000	7.720000	319.000000	0.000000	176.000000	51.000000	-9.000000	-39.000000
0.770000	12.690000	7.360000	322.000000	0.000000	178.000000	51.000000	-6.000000	-36.000000
0.780000	12.690000	7.120000	324.000000	0.000000	178.000000	51.000000	0.000000	-24.000000
0.790000	12.690000	6.960000	317.000000	0.000000	178.000000	51.000000	0.000000	-16.000000
0.800000	12.770000	6.840000	317.000000	0.000000	179.000000	50.000000	8.000000	-12.000000
0.810000	12.880000	6.840000	310.000000	0.000000	179.000000	50.000000	11.000000	0.000000
0.820000	13.020000	6.900000	309.000000	0.000000	179.000000	50.000000	14.000000	6.000000
0.830000	13.210000	7.120000	312.000000	0.000000	179.000000	50.000000	19.000000	22.000000
0.840000	13.390000	7.340000	312.000000	0.000000	179.000000	50.000000	18.000000	22.000000
0.850000	13.560000	7.600000	314.000000	0.000000	179.000000	50.000000	17.000000	26.000000
0.860000	13.730000	7.900000	314.000000	0.000000	179.000000	50.000000	17.000000	30.000000
0.870000	13.840000	8.110000	309.000000	0.000000	179.000000	51.000000	11.000000	21.000000
0.880000	13.900000	8.260000	315.000000	0.000000	179.000000	51.000000	6.000000	15.000000
0.890000	13.900000	8.310000	317.000000	0.000000	179.000000	51.000000	0.000000	5.000000
0.900000	13.900000	8.310000	319.000000	0.000000	179.000000	52.000000	0.000000	0.000000
0.910000	13.900000	8.250000	324.000000	0.000000	179.000000	52.000000	0.000000	-6.000000
0.920000	13.900000	8.090000	324.000000	0.000000	179.000000	52.000000	0.000000	-16.000000
0.930000	13.840000	7.850000	322.000000	0.000000	179.000000	52.000000	-6.000000	-24.000000
0.940000	13.760000	7.550000	324.000000	0.000000	179.000000	52.000000	-8.000000	-30.000000
0.950000	13.760000	7.220000	325.000000	0.000000	179.000000	52.000000	0.000000	-33.000000
0.960000	13.760000	6.970000	324.000000	0.000000	179.000000	52.000000	0.000000	-25.000000
0.970000	13.820000	6.780000	307.000000	0.000000	180.000000	52.000000	6.000000	-19.000000
0.980000	13.890000	6.780000	309.000000	0.000000	180.000000	52.000000	7.000000	0.000000
0.990000	13.990000	6.780000	312.000000	0.000000	180.000000	51.000000	10.000000	0.000000
1.000000	14.150000	6.920000	310.000000	0.000000	180.000000	51.000000	16.000000	14.000000
1.010000	14.330000	7.110000	307.000000	0.000000	180.000000	51.000000	18.000000	19.000000
1.020000	14.500000	7.340000	292.000000	0.000000	180.000000	51.000000	17.000000	23.000000
1.030000	14.690000	7.610000	274.000000	0.000000	180.000000	51.000000	19.000000	27.000000
1.040000	14.850000	7.890000	275.000000	0.000000	180.000000	52.000000	16.000000	28.000000
1.050000	15.000000	8.120000	275.000000	0.000000	180.000000	52.000000	15.000000	23.000000
1.060000	15.060000	8.260000	277.000000	0.000000	180.000000	52.000000	6.000000	14.000000
1.070000	15.060000	8.260000	285.000000	0.000000	180.000000	52.000000	0.000000	0.000000
1.080000	15.060000	8.260000	279.000000	0.000000	180.000000	53.000000	0.000000	0.000000
1.090000	15.060000	8.150000	282.000000	0.000000	180.000000	53.000000	0.000000	-11.000000
1.100000	15.060000	7.980000	284.000000	0.000000	180.000000	53.000000	0.000000	-17.000000
1.110000	15.060000	7.750000	291.000000	0.000000	180.000000	53.000000	0.000000	-23.000000
1.120000	15.060000	7.490000	306.000000	0.000000	181.000000	53.000000	0.000000	-26.000000
1.130000	15.060000	7.220000	310.000000	0.000000	181.000000	53.000000	0.000000	-27.000000
1.140000	15.160000	7.020000	339.000000	0.000000	181.000000	53.000000	10.000000	-20.000000
1.150000	15.280000	6.870000	334.000000	0.000000	181.000000	52.000000	12.000000	-15.000000
1.160000	15.420000	6.870000	345.000000	0.000000	183.000000	52.000000	14.000000	0.000000
1.170000	15.610000	6.870000	345.000000	0.000000	183.000000	52.000000	19.000000	0.000000
1.180000	15.850000	7.020000	342.000000	0.000000	184.000000	52.000000	24.000000	15.000000
1.190000	16.110000	7.240000	307.000000	0.000000	184.000000	52.000000	26.000000	22.000000
1.200000	16.310000	7.540000	309.000000	0.000000	183.000000	53.000000	20.000000	30.000000
1.210000	16.510000	7.890000	267.000000	0.000000	181.000000	53.000000	20.000000	35.000000
1.220000	16.620000	8.120000	259.000000	0.000000	180.000000	53.000000	11.000000	23.000000
1.230000	16.670000	8.310000	252.000000	0.000000	177.000000	54.000000	5.000000	19.000000
1.240000	16.670000	8.420000	260.000000	0.000000	175.000000	54.000000	0.000000	11.000000
1.250000	16.520000	8.420000	267.000000	0.000000	172.000000	54.000000	-15.000000	0.000000
1.260000	16.360000	8.420000	265.000000	0.000000	170.000000	54.000000	-16.000000	0.000000
1.270000	16.200000	8.310000	267.000000	0.000000	170.000000	54.000000	-16.000000	-11.000000
1.280000	16.040000	8.110000	277.000000	0.000000	170.000000	54.000000	-16.000000	-20.000000
1.290000	15.870000	7.830000	285.000000	0.000000	173.000000	54.000000	-17.000000	-28.000000
1.300000	15.870000	7.570000	289.000000	0.000000	175.000000	54.000000	0.000000	-26.000000
1.310000	15.870000	7.330000	305.000000	0.000000	179.000000	54.000000	0.000000	-24.000000
1.320000	15.920000	7.090000	310.000000	0.000000	180.000000	54.000000	5.000000	-24.000000
1.330000	16.040000	6.980000	334.000000	0.000000	183.000000	54.000000	12.000000	-11.000000
1.340000	16.210000	6.980000	337.000000	0.000000	183.000000	53.000000	17.000000	0.000000
1.350000	16.450000	6.980000	335.000000	0.000000	181.000000	53.000000	24.000000	0.000000
1.360000	16.740000	7.110000	325.000000	0.000000	180.000000	53.000000	29.000000	13.000000
1.370000	17.060000	7.330000	320.000000	0.000000	177.000000	53.000000	32.000000	22.000000
1.380000	17.310000	7.540000	305.000000	0.000000	175.000000	53.000000	25.000000	21.000000
1.390000	17.510000	7.770000	289.000000	0.000000	172.000000	53.000000	20.000000	23.000000
1.400000	17.630000	8.020000	281.000000	0.000000	169.000000	53.000000	12.000000	25.000000
1.410000	17.700000	8.250000	281.000000	0.000000	168.000000	53.000000	7.000000	23.000000
1.420000	17.700000	8.450000	282.000000	0.000000	165.000000	53.000000	0.000000	20.000000
1.430000	17.700000	8.570000	294.000000	0.000000	164.000000	54.000000	0.000000	12.000000
1.440000	17.700000	8.570000	312.000000	0.000000	163.000000	54.000000	0.000000	0.000000
1.450000	17.700000	8.570000	307.000000	0.000000	163.000000	54.000000	0.000000	0.000000
1.460000	17.700000	8.460000	309.000000	0.000000	163.000000	54.000000	0.000000	-11.000000
1.470000	17.700000	8.310000	315.000000	0.000000	163.000000	54.000000	0.000000	-15.000000
1.480000	17.780000	8.150000	317.000000	0.000000	163.000000	54.000000	8.000000	-16.000000
1.490000	17.870000	7.930000	317.000000	0.000000	163.000000	54.000000	9.000000	-22.000000
1.500000	17.980000	7.700000	324.000000	0.000000	164.000000	54.000000	11.000000	-23.000000
1.510000	18.080000	7.470000	322.000000	0.000000	164.000000	54.000000	10.000000	-23.000000
1.520000	18.190000	7.260000	324.000000	0.000000	164.000000	54.000000	11.000000	-21.000000
1.530000	18.260000	7.010000	327.000000	0.000000	164.000000	54.000000	7.000000	-25.000000
1.540000	18.260000	6.790000	327.000000	0.000000	164.000000	54.000000	0.000000	-22.000000
1.550000	18.310000	6.650000	327.000000	0.000000	164.000000	54.000000	5.000000	-14.000000
1.560000	18.310000	6.650000	327.000000	0.000000	164.000000	54.000000	0.000000	0.000000
1.570000	18.240000	6.650000	314.000000	0.000000	165.000000	53.000000	-7.000000	0.000000
1.580000	18.170000	6.780000	310.000000	0.000000	165.000000	53.000000	-7.000000	13.000000
1.590000	18.120000	6.970000	305.000000	0.000000	165.000000	53.000000	-5.000000	19.000000
1.600000	18.120000	7.210000	314.000000	0.000000	165.000000	53.000000	0.000000	24.000000
1.610000	18.120000	7.380000	302.000000	0.000000	165.000000	53.000000	0.000000	17.000000
1.620000	18.230000	7.580000	301.000000	0.000000	165.000000	53.000000	11.000000	20.000000
1.630000	18.380000	7.800000	284.000000	0.000000	165.000000	53.000000	15.000000	22.000000
1.640000	18.550000	7.990000	274.000000	0.000000	164.000000	54.000000	17.000000	19.000000
1.650000	18.710000	8.150000	274.000000	0.000000	164.000000	54.000000	16.000000	16.000000
1.660000	18.850000	8.270000	270.000000	0.000000	164.000000	54.000000	14.000000	12.000000
1.670000	18.970000	8.340000	272.000000	0.000000	164.000000	54.000000	12.000000	7.000000
1.680000	19.040000	8.340000	275.000000	0.000000	164.000000	54.000000	7.000000	0.000000
1.690000	19.040000	8.340000	284.000000	0.000000	163.000000	54.000000	0.000000	0.000000
1.700000	19.100000	8.230000	279.000000	0.000000	163.000000	54.000000	6.000000	-11.000000
1.710000	19.100000	8.090000	286.000000	0.000000	163.000000	54.000000	0.000000	-14.000000
1.720000	19.100000	7.930000	291.000000	0.000000	163.000000	54.000000	0.000000	-16.000000
1.730000	19.100000	7.750000	294.000000	0.000000	163.000000	54.000000	0.000000	-18.000000
1.740000	19.180000	7.560000	301.000000	0.000000	163.000000	54.000000	8.000000	-19.000000
1.750000	19.250000	7.340000	314.000000	0.000000	163.000000	54.000000	7.000000	-22.000000
1.760000	19.300000	7.110000	314.000000	0.000000	164.000000	54.000000	5.000000	-23.000000
1.770000	19.360000	6.880000	317.000000	0.000000	164.000000	54.000000	6.000000	-23.000000
1.780000	19.360000	6.670000	304.000000	0.000000	164.000000	54.000000	0.000000	-21.000000
1.790000	19.360000	6.490000	305.000000	0.000000	164.000000	54.000000	0.000000	-18.000000
1.800000	19.260000	6.340000	317.000000	0.000000	164.000000	54.000000	-10.000000	-15.000000
1.810000	19.160000	6.280000	316.000000	0.000000	164.000000	54.000000	-10.000000	-6.000000
1.820000	19.080000	6.190000	304.000000	0.000000	165.000000	53.000000	-8.000000	-9.000000
1.830000	19.010000	6.190000	241.000000	0.000000	165.000000	53.000000	-7.000000	0.000000
1.840000	19.010000	6.250000	179.000000	0.000000	165.000000	53.000000	0.000000	6.000000
1.850000	19.010000	6.370000	1.000000	1.000000	166.000000	52.000000	0.000000	0.000000
1.860000	19.010000	6.370000	0.000000	0.000000	166.000000	52.000000	0.000000	0.000000
1.870000	19.310000	6.880000	0.000000	0.000000	166.000000	52.000000	30.000000	51.000000
1.880000	19.600000	7.170000	0.000000	0.000000	165.000000	53.000000	29.000000	29.000000
1.890000	19.910000	7.460000	0.000000	0.000000	165.000000	53.000000	31.000000	29.000000
1.900000	20.220000	7.750000	0.000000	0.000000	165.000000	53.000000	31.000000	29.000000
1.910000	20.550000	7.950000	0.000000	0.000000	164.000000	54.000000	33.000000	20.000000
1.920000	20.810000	8.110000	0.000000	0.000000	164.000000	54.000000	26.000000	16.000000
1.930000	21.030000	8.110000	0.000000	0.000000	163.000000	54.000000	22.000000	0.000000
1.940000	21.030000	8.110000	112.000000	1.000000	163.000000	55.000000	0.000000	0.000000
1.950000	21.030000	8.110000	137.000000	0.000000	163.000000	55.000000	0.000000	0.000000
1.960000	21.030000	8.110000	160.000000	0.000000	163.000000	55.000000	0.000000	0.000000
1.970000	20.650000	8.110000	206.000000	0.000000	163.000000	55.000000	-38.000000	0.000000
1.980000	20.460000	8.050000	264.000000	0.000000	164.000000	55.000000	-19.000000	-6.000000
1.990000	20.230000	7.970000	281.000000	0.000000	164.000000	55.000000	-23.000000	-8.000000
2.000000	20.030000	7.770000	302.000000	0.000000	164.000000	55.000000	-20.000000	-20.000000
2.010000	19.900000	7.500000	304.000000	0.000000	164.000000	55.000000	-13.000000	-27.000000
2.020000	19.800000	7.150000	309.000000	0.000000	164.000000	55.000000	-10.000000	-35.000000
2.030000	19.710000	6.910000	319.000000	0.000000	164.000000	55.000000	-9.000000	-24.000000
2.040000	19.830000	6.740000	310.000000	0.000000	164.000000	55.000000	12.000000	-17.000000
2.050000	20.020000	6.740000	307.000000	0.000000	164.000000	55.000000	19.000000	0.000000
2.060000	20.340000	6.830000	277.000000	0.000000	164.000000	55.000000	32.000000	9.000000
2.070000	20.720000	7.010000	255.000000	0.000000	164.000000	54.000000	38.000000	18.000000
2.080000	21.120000	7.230000	242.000000	0.000000	164.000000	55.000000	40.000000	22.000000
2.090000	21.330000	7.380000	249.000000	0.000000	164.000000	55.000000	21.000000	15.000000
2.100000	21.420000	7.440000	249.000000	0.000000	164.000000	55.000000	9.000000	6.000000
2.110000	21.420000	7.440000	249.000000	0.000000	164.000000	55.000000	0.000000	0.000000
2.120000	21.370000	7.380000	254.000000	0.000000	164.000000	55.000000	-5.000000	-6.000000
2.130000	21.320000	7.250000	254.000000	0.000000	164.000000	55.000000	-5.000000	-13.000000
2.140000	21.320000	7.250000	247.000000	0.000000	164.000000	55.000000	0.000000	0.000000
2.150000	21.320000	7.250000	185.000000	0.000000	164.000000	55.000000	0.000000	0.000000
2.160000	21.320000	7.250000	68.000000	0.000000	164.000000	55.000000	0.000000	0.000000
2.170000	21.320000	7.250000	0.000000	1.000000	164.000000	55.000000	0.000000	0.000000
2.180000	22.180000	7.210000	0.000000	0.000000	163.000000	56.000000	86.000000	-4.000000
2.190000	22.700000	7.520000	0.000000	0.000000	163.000000	56.000000	52.000000	31.000000
2.200000	23.250000	7.930000	0.000000	0.000000	163.000000	56.000000	55.000000	41.000000
2.210000	23.830000	8.300000	0.000000	0.000000	163.000000	56.000000	58.000000	37.000000
2.220000	24.460000	8.680000	0.000000	0.000000	164.000000	57.000000	63.000000	38.000000
2.230000	25.040000	9.060000	0.000000	0.000000	164.000000	57.000000	58.000000	38.000000
