t	x	y	pressure	penup	azimuth	inclination	v_x	v_y
0.000000	20.090000	85.570000	95.000000	1.000000	127.000000	63.000000	0.000000	0.000000
0.010000	20.020000	84.890000	244.000000	0.000000	130.000000	63.000000	-7.000000	-68.000000
0.020000	19.580000	83.180000	372.000000	0.000000	130.000000	63.000000	-44.000000	-171.000000
0.030000	18.930000	80.890000	495.000000	0.000000	132.000000	64.000000	-65.000000	-229.000000
0.040000	18.100000	78.160000	616.000000	0.000000	132.000000	64.000000	-83.000000	-273.000000
0.050000	17.280000	75.980000	700.000000	0.000000	132.000000	64.000000	-82.000000	-218.000000
0.060000	16.460000	74.170000	714.000000	0.000000	130.000000	65.000000	-82.000000	-181.000000
0.070000	16.510000	73.170000	703.000000	0.000000	128.000000	65.000000	5.000000	-100.000000
0.080000	16.850000	72.800000	702.000000	0.000000	126.000000	66.000000	34.000000	-37.000000
0.090000	17.390000	72.800000	679.000000	0.000000	123.000000	65.000000	54.000000	0.000000
0.100000	18.010000	73.130000	659.000000	0.000000	123.000000	65.000000	62.000000	33.000000
0.110000	18.580000	73.720000	638.000000	0.000000	121.000000	66.000000	57.000000	59.000000
0.120000	18.830000	74.510000	636.000000	0.000000	120.000000	65.000000	25.000000	79.000000
0.130000	18.890000	75.690000	642.000000	0.000000	120.000000	65.000000	6.000000	118.000000
0.140000	18.760000	76.930000	638.000000	0.000000	121.000000	66.000000	-13.000000	124.000000
0.150000	18.360000	78.220000	667.000000	0.000000	123.000000	65.000000	-40.000000	129.000000
0.160000	17.770000	78.930000	667.000000	0.000000	124.000000	66.000000	-59.000000	71.000000
0.170000	16.720000	79.150000	661.000000	0.000000	126.000000	66.000000	-105.000000	22.000000
0.180000	15.110000	79.040000	678.000000	0.000000	130.000000	66.000000	-161.000000	-11.000000
0.190000	13.130000	78.490000	710.000000	0.000000	130.000000	66.000000	-198.000000	-55.000000
0.200000	11.030000	77.910000	754.000000	0.000000	132.000000	65.000000	-210.000000	-58.000000
0.210000	8.960000	77.290000	793.000000	0.000000	133.000000	66.000000	-207.000000	-62.000000
0.220000	7.890000	76.990000	817.000000	0.000000	133.000000	66.000000	-107.000000	-30.000000
0.230000	7.480000	76.900000	821.000000	0.000000	133.000000	67.000000	-41.000000	-9.000000
0.240000	7.600000	76.990000	821.000000	0.000000	133.000000	67.000000	12.000000	9.000000
0.250000	8.560000	77.230000	819.000000	0.000000	131.000000	68.000000	96.000000	24.000000
0.260000	10.090000	77.560000	832.000000	0.000000	129.000000	68.000000	153.000000	33.000000
0.270000	12.400000	78.170000	805.000000	0.000000	129.000000	68.000000	231.000000	61.000000
0.280000	15.220000	78.750000	797.000000	0.000000	129.000000	68.000000	282.000000	58.000000
0.290000	18.390000	79.610000	806.000000	0.000000	129.000000	68.000000	317.000000	86.000000
0.300000	22.700000	80.660000	812.000000	0.000000	129.000000	68.000000	431.000000	105.000000
0.310000	27.250000	81.740000	824.000000	0.000000	130.000000	67.000000	455.000000	108.000000
0.320000	31.970000	82.770000	830.000000	0.000000	128.000000	66.000000	472.000000	103.000000
0.330000	35.740000	83.380000	830.000000	0.000000	130.000000	66.000000	377.000000	61.000000
0.340000	38.300000	83.730000	826.000000	0.000000	130.000000	66.000000	256.000000	35.000000
0.350000	40.050000	83.730000	811.000000	0.000000	130.000000	65.000000	175.000000	0.000000
0.360000	40.490000	83.640000	806.000000	0.000000	130.000000	65.000000	44.000000	-9.000000
0.370000	40.540000	83.640000	797.000000	0.000000	130.000000	65.000000	5.000000	0.000000
0.380000	40.340000	83.640000	691.000000	0.000000	132.000000	64.000000	-20.000000	0.000000
0.390000	40.190000	83.720000	345.000000	0.000000	132.000000	64.000000	-15.000000	8.000000
0.400000	40.190000	83.720000	0.000000	1.000000	132.000000	64.000000	0.000000	0.000000
0.410000	39.180000	84.100000	0.000000	0.000000	133.000000	63.000000	-101.000000	38.000000
0.420000	38.290000	83.970000	0.000000	0.000000	133.000000	63.000000	-89.000000	-13.000000
0.430000	37.130000	83.690000	0.000000	0.000000	133.000000	63.000000	-116.000000	-28.000000
0.440000	35.780000	83.300000	0.000000	0.000000	133.000000	63.000000	-135.000000	-39.000000
0.450000	34.440000	83.010000	0.000000	0.000000	133.000000	63.000000	-134.000000	-29.000000
0.460000	33.110000	82.880000	0.000000	0.000000	132.000000	64.000000	-133.000000	-13.000000
0.470000	31.780000	82.880000	0.000000	0.000000	130.000000	63.000000	-133.000000	0.000000
0.480000	30.890000	82.880000	0.000000	0.000000	127.000000	63.000000	-89.000000	0.000000
0.490000	29.400000	82.880000	0.000000	0.000000	124.000000	62.000000	-149.000000	0.000000
0.500000	27.520000	82.880000	0.000000	0.000000	122.000000	61.000000	-188.000000	0.000000
0.510000	25.820000	82.640000	0.000000	0.000000	118.000000	60.000000	-170.000000	-24.000000
0.520000	24.360000	82.270000	0.000000	0.000000	115.000000	60.000000	-146.000000	-37.000000
0.530000	23.060000	81.980000	0.000000	0.000000	113.000000	60.000000	-130.000000	-29.000000
0.540000	22.060000	81.810000	0.000000	0.000000	111.000000	59.000000	-100.000000	-17.000000
0.550000	21.510000	81.710000	0.000000	0.000000	109.000000	60.000000	-55.000000	-10.000000
0.560000	21.260000	81.710000	0.000000	0.000000	108.000000	60.000000	-25.000000	0.000000
0.570000	20.870000	81.630000	0.000000	0.000000	108.000000	61.000000	-39.000000	-8.000000
0.580000	21.050000	81.540000	0.000000	0.000000	107.000000	62.000000	18.000000	-9.000000
0.590000	21.620000	81.350000	0.000000	0.000000	107.000000	62.000000	57.000000	-19.000000
0.600000	21.550000	80.960000	0.000000	0.000000	108.000000	63.000000	-7.000000	-39.000000
0.610000	21.940000	80.740000	0.000000	0.000000	108.000000	63.000000	39.000000	-22.000000
0.620000	22.630000	80.590000	0.000000	0.000000	108.000000	63.000000	69.000000	-15.000000
0.630000	22.920000	80.490000	0.000000	0.000000	108.000000	63.000000	29.000000	-10.000000
0.640000	23.050000	80.490000	0.000000	0.000000	109.000000	64.000000	13.000000	0.000000
0.650000	23.050000	80.590000	0.000000	0.000000	109.000000	64.000000	0.000000	10.000000
0.660000	23.050000	80.740000	0.000000	0.000000	109.000000	64.000000	0.000000	15.000000
0.670000	23.050000	80.940000	0.000000	0.000000	109.000000	64.000000	0.000000	20.000000
0.680000	22.950000	81.170000	0.000000	0.000000	109.000000	64.000000	-10.000000	23.000000
0.690000	22.840000	81.460000	0.000000	0.000000	109.000000	64.000000	-11.000000	29.000000
0.700000	22.700000	81.750000	0.000000	0.000000	109.000000	64.000000	-14.000000	29.000000
0.710000	22.530000	82.100000	0.000000	0.000000	109.000000	64.000000	-17.000000	35.000000
0.720000	22.320000	82.370000	0.000000	0.000000	109.000000	64.000000	-21.000000	27.000000
0.730000	22.120000	82.550000	0.000000	0.000000	111.000000	64.000000	-20.000000	18.000000
0.740000	21.980000	82.730000	0.000000	0.000000	111.000000	64.000000	-14.000000	18.000000
0.750000	21.900000	82.850000	0.000000	0.000000	111.000000	64.000000	-8.000000	12.000000
0.760000	21.840000	82.850000	0.000000	0.000000	112.000000	62.000000	-6.000000	0.000000
0.770000	21.790000	82.740000	0.000000	0.000000	112.000000	62.000000	-5.000000	-11.000000
0.780000	21.790000	82.740000	203.000000	1.000000	112.000000	62.000000	0.000000	0.000000
0.790000	21.730000	81.980000	369.000000	0.000000	114.000000	62.000000	-6.000000	-76.000000
0.800000	21.730000	81.650000	466.000000	0.000000	114.000000	62.000000	0.000000	-33.000000
0.810000	21.730000	81.440000	526.000000	0.000000	114.000000	62.000000	0.000000	-21.000000
0.820000	21.850000	81.120000	543.000000	0.000000	112.000000	62.000000	12.000000	-32.000000
0.830000	21.990000	80.900000	578.000000	0.000000	112.000000	62.000000	14.000000	-22.000000
0.840000	22.080000	80.740000	588.000000	0.000000	112.000000	62.000000	9.000000	-16.000000
0.850000	22.080000	80.640000	586.000000	0.000000	113.000000	63.000000	0.000000	-10.000000
0.860000	22.080000	80.640000	567.000000	0.000000	113.000000	63.000000	0.000000	0.000000
0.870000	22.080000	80.640000	529.000000	0.000000	113.000000	63.000000	0.000000	0.000000
0.880000	22.080000	80.730000	467.000000	0.000000	113.000000	63.000000	0.000000	9.000000
0.890000	21.930000	81.000000	467.000000	0.000000	113.000000	63.000000	-15.000000	27.000000
0.900000	21.800000	81.390000	483.000000	0.000000	113.000000	63.000000	-13.000000	39.000000
0.910000	21.670000	81.870000	483.000000	0.000000	113.000000	63.000000	-13.000000	48.000000
0.920000	21.670000	82.320000	472.000000	0.000000	113.000000	63.000000	0.000000	45.000000
0.930000	21.750000	82.750000	425.000000	0.000000	115.000000	63.000000	8.000000	43.000000
0.940000	21.960000	82.970000	262.000000	0.000000	115.000000	63.000000	21.000000	22.000000
0.950000	22.370000	83.130000	80.000000	0.000000	115.000000	63.000000	41.000000	16.000000
0.960000	22.370000	83.130000	0.000000	1.000000	116.000000	63.000000	0.000000	0.000000
0.970000	23.260000	83.030000	0.000000	0.000000	116.000000	63.000000	89.000000	-10.000000
0.980000	23.730000	82.980000	0.000000	0.000000	117.000000	63.000000	47.000000	-5.000000
0.990000	23.730000	82.980000	51.000000	1.000000	119.000000	63.000000	0.000000	0.000000
1.000000	24.610000	82.920000	149.000000	0.000000	119.000000	63.000000	88.000000	-6.000000
1.010000	24.890000	82.920000	335.000000	0.000000	120.000000	64.000000	28.000000	0.000000
1.020000	24.890000	82.920000	452.000000	0.000000	120.000000	64.000000	0.000000	0.000000
1.030000	24.840000	82.920000	543.000000	0.000000	122.000000	65.000000	-5.000000	0.000000
1.040000	24.700000	82.760000	591.000000	0.000000	122.000000	65.000000	-14.000000	-16.000000
1.050000	24.500000	82.430000	606.000000	0.000000	122.000000	65.000000	-20.000000	-33.000000
1.060000	24.200000	81.980000	611.000000	0.000000	120.000000	65.000000	-30.000000	-45.000000
1.070000	23.840000	81.650000	611.000000	0.000000	120.000000	65.000000	-36.000000	-33.000000
1.080000	23.770000	81.540000	611.000000	0.000000	120.000000	65.000000	-7.000000	-11.000000
1.090000	23.770000	81.540000	564.000000	0.000000	120.000000	65.000000	0.000000	0.000000
1.100000	23.770000	81.680000	490.000000	0.000000	120.000000	65.000000	0.000000	14.000000
1.110000	23.890000	81.960000	402.000000	0.000000	119.000000	64.000000	12.000000	28.000000
1.120000	24.110000	82.360000	364.000000	0.000000	119.000000	64.000000	22.000000	40.000000
1.130000	24.400000	82.770000	387.000000	0.000000	119.000000	64.000000	29.000000	41.000000
1.140000	24.660000	83.130000	464.000000	0.000000	119.000000	64.000000	26.000000	36.000000
1.150000	24.790000	83.220000	570.000000	0.000000	119.000000	64.000000	13.000000	9.000000
1.160000	24.790000	83.160000	652.000000	0.000000	119.000000	64.000000	0.000000	-6.000000
1.170000	24.920000	82.960000	745.000000	0.000000	120.000000	64.000000	13.000000	-20.000000
1.180000	25.030000	82.710000	791.000000	0.000000	122.000000	65.000000	11.000000	-25.000000
1.190000	25.150000	82.320000	825.000000	0.000000	122.000000	65.000000	12.000000	-39.000000
1.200000	25.290000	81.870000	864.000000	0.000000	122.000000	65.000000	14.000000	-45.000000
1.210000	25.440000	81.470000	857.000000	0.000000	121.000000	66.000000	15.000000	-40.000000
1.220000	25.590000	81.100000	861.000000	0.000000	121.000000	66.000000	15.000000	-37.000000
1.230000	25.590000	80.730000	857.000000	0.000000	121.000000	66.000000	0.000000	-37.000000
1.240000	25.670000	80.360000	860.000000	0.000000	119.000000	66.000000	8.000000	-37.000000
1.250000	25.670000	79.450000	860.000000	0.000000	118.000000	68.000000	0.000000	-91.000000
1.260000	25.670000	78.420000	858.000000	0.000000	118.000000	68.000000	0.000000	-103.000000
1.270000	25.670000	77.310000	863.000000	0.000000	116.000000	68.000000	0.000000	-111.000000
1.280000	25.670000	76.470000	861.000000	0.000000	114.000000	68.000000	0.000000	-84.000000
1.290000	25.670000	76.350000	853.000000	0.000000	111.000000	69.000000	0.000000	-12.000000
1.300000	25.670000	76.720000	863.000000	0.000000	111.000000	69.000000	0.000000	37.000000
1.310000	25.720000	77.190000	855.000000	0.000000	109.000000	69.000000	5.000000	47.000000
1.320000	25.820000	78.080000	851.000000	0.000000	109.000000	69.000000	10.000000	89.000000
1.330000	26.000000	79.240000	840.000000	0.000000	109.000000	69.000000	18.000000	116.000000
1.340000	26.250000	80.390000	824.000000	0.000000	109.000000	69.000000	25.000000	115.000000
1.350000	26.660000	81.500000	818.000000	0.000000	109.000000	69.000000	41.000000	111.000000
1.360000	27.030000	82.320000	817.000000	0.000000	111.000000	69.000000	37.000000	82.000000
1.370000	27.360000	82.970000	824.000000	0.000000	111.000000	69.000000	33.000000	65.000000
1.380000	27.680000	83.340000	852.000000	0.000000	114.000000	68.000000	32.000000	37.000000
1.390000	27.820000	83.450000	861.000000	0.000000	116.000000	68.000000	14.000000	11.000000
1.400000	27.820000	83.380000	864.000000	0.000000	118.000000	68.000000	0.000000	-7.000000
1.410000	27.870000	83.380000	853.000000	0.000000	119.000000	68.000000	5.000000	0.000000
1.420000	27.870000	83.310000	853.000000	0.000000	119.000000	68.000000	0.000000	-7.000000
1.430000	27.960000	83.010000	864.000000	0.000000	122.000000	68.000000	9.000000	-30.000000
1.440000	27.960000	82.560000	823.000000	0.000000	122.000000	68.000000	0.000000	-45.000000
1.450000	28.040000	82.020000	644.000000	0.000000	119.000000	68.000000	8.000000	-54.000000
1.460000	28.150000	81.520000	165.000000	0.000000	119.000000	68.000000	11.000000	-50.000000
1.470000	28.150000	81.520000	0.000000	1.000000	119.000000	68.000000	0.000000	0.000000
1.480000	28.400000	81.580000	0.000000	0.000000	117.000000	69.000000	25.000000	6.000000
1.490000	28.400000	81.710000	0.000000	0.000000	117.000000	69.000000	0.000000	13.000000
1.500000	28.260000	81.900000	0.000000	0.000000	117.000000	69.000000	-14.000000	19.000000
1.510000	28.200000	82.120000	0.000000	0.000000	114.000000	68.000000	-6.000000	22.000000
1.520000	28.200000	82.450000	0.000000	0.000000	114.000000	68.000000	0.000000	33.000000
1.530000	28.200000	82.940000	0.000000	0.000000	112.000000	67.000000	0.000000	49.000000
1.540000	28.280000	83.540000	0.000000	0.000000	111.000000	67.000000	8.000000	60.000000
1.550000	28.390000	84.170000	0.000000	0.000000	111.000000	67.000000	11.000000	63.000000
1.560000	28.390000	84.750000	0.000000	0.000000	113.000000	65.000000	0.000000	58.000000
1.570000	28.220000	85.040000	0.000000	0.000000	112.000000	64.000000	-17.000000	29.000000
1.580000	28.220000	85.040000	595.000000	1.000000	114.000000	64.000000	0.000000	0.000000
1.590000	27.840000	85.250000	758.000000	0.000000	114.000000	64.000000	-38.000000	21.000000
1.600000	27.740000	85.320000	814.000000	0.000000	114.000000	64.000000	-10.000000	7.000000
1.610000	27.740000	85.320000	830.000000	0.000000	117.000000	65.000000	0.000000	0.000000
1.620000	27.740000	85.320000	787.000000	0.000000	117.000000	65.000000	0.000000	0.000000
1.630000	27.740000	85.320000	611.000000	0.000000	118.000000	65.000000	0.000000	0.000000
1.640000	27.830000	85.320000	68.000000	0.000000	119.000000	66.000000	9.000000	0.000000
1.650000	27.830000	85.320000	0.000000	1.000000	119.000000	66.000000	0.000000	0.000000
1.660000	28.130000	85.090000	0.000000	0.000000	120.000000	67.000000	30.000000	-23.000000
1.670000	28.320000	84.890000	0.000000	0.000000	120.000000	67.000000	19.000000	-20.000000
1.680000	28.800000	84.710000	0.000000	0.000000	122.000000	67.000000	48.000000	-18.000000
1.690000	29.430000	84.570000	0.000000	0.000000	121.000000	66.000000	63.000000	-14.000000
1.700000	30.170000	84.470000	0.000000	0.000000	121.000000	66.000000	74.000000	-10.000000
1.710000	30.640000	84.360000	0.000000	0.000000	120.000000	65.000000	47.000000	-11.000000
1.720000	30.970000	84.230000	0.000000	0.000000	119.000000	64.000000	33.000000	-13.000000
1.730000	31.210000	84.070000	0.000000	0.000000	120.000000	64.000000	24.000000	-16.000000
1.740000	31.210000	83.740000	0.000000	0.000000	120.000000	64.000000	0.000000	-33.000000
1.750000	31.210000	83.300000	0.000000	0.000000	119.000000	63.000000	0.000000	-44.000000
1.760000	31.210000	83.300000	442.000000	1.000000	119.000000	63.000000	0.000000	0.000000
1.770000	30.640000	82.880000	767.000000	0.000000	117.000000	63.000000	-57.000000	-42.000000
1.780000	30.400000	82.830000	869.000000	0.000000	119.000000	64.000000	-24.000000	-5.000000
1.790000	30.400000	82.830000	917.000000	0.000000	119.000000	64.000000	0.000000	0.000000
1.800000	30.330000	83.060000	923.000000	0.000000	120.000000	65.000000	-7.000000	23.000000
1.810000	30.330000	83.400000	869.000000	0.000000	120.000000	65.000000	0.000000	34.000000
1.820000	30.510000	83.820000	821.000000	0.000000	121.000000	66.000000	18.000000	42.000000
1.830000	30.830000	84.140000	788.000000	0.000000	121.000000	66.000000	32.000000	32.000000
1.840000	31.080000	84.210000	799.000000	0.000000	122.000000	67.000000	25.000000	7.000000
1.850000	31.270000	84.150000	872.000000	0.000000	122.000000	67.000000	19.000000	-6.000000
1.860000	31.430000	83.810000	933.000000	0.000000	122.000000	67.000000	16.000000	-34.000000
1.870000	31.580000	83.500000	993.000000	0.000000	124.000000	67.000000	15.000000	-31.000000
1.880000	31.670000	83.220000	1023.000000	0.000000	126.000000	67.000000	9.000000	-28.000000
1.890000	31.730000	83.110000	1023.000000	0.000000	126.000000	67.000000	6.000000	-11.000000
1.900000	31.840000	83.110000	1023.000000	0.000000	126.000000	67.000000	11.000000	0.000000
1.910000	31.840000	83.110000	903.000000	0.000000	124.000000	67.000000	0.000000	0.000000
1.920000	31.840000	83.110000	537.000000	0.000000	124.000000	67.000000	0.000000	0.000000
1.930000	31.840000	83.110000	0.000000	1.000000	124.000000	67.000000	0.000000	0.000000
1.940000	32.200000	83.890000	0.000000	0.000000	124.000000	67.000000	36.000000	78.000000
1.950000	32.200000	84.130000	0.000000	0.000000	124.000000	67.000000	0.000000	24.000000
1.960000	32.200000	84.360000	0.000000	0.000000	126.000000	67.000000	0.000000	23.000000
1.970000	32.280000	84.580000	0.000000	0.000000	126.000000	67.000000	8.000000	22.000000
1.980000	32.450000	84.580000	0.000000	0.000000	124.000000	66.000000	17.000000	0.000000
1.990000	32.650000	84.580000	0.000000	0.000000	124.000000	66.000000	20.000000	0.000000
2.000000	32.870000	84.580000	0.000000	0.000000	123.000000	65.000000	22.000000	0.000000
2.010000	32.920000	84.580000	0.000000	0.000000	124.000000	64.000000	5.000000	0.000000
2.020000	32.870000	84.530000	0.000000	0.000000	124.000000	64.000000	-5.000000	-5.000000
2.030000	32.740000	84.530000	0.000000	0.000000	122.000000	63.000000	-13.000000	0.000000
2.040000	32.570000	84.600000	0.000000	0.000000	123.000000	62.000000	-17.000000	7.000000
2.050000	32.430000	84.760000	0.000000	0.000000	122.000000	61.000000	-14.000000	16.000000
2.060000	32.430000	84.760000	0.000000	0.000000	122.000000	61.000000	0.000000	0.000000
2.070000	32.240000	85.240000	0.000000	0.000000	120.000000	60.000000	-19.000000	48.000000
2.080000	32.170000	85.340000	0.000000	0.000000	122.000000	60.000000	-7.000000	10.000000
2.090000	32.100000	85.340000	0.000000	0.000000	122.000000	60.000000	-7.000000	0.000000
2.100000	31.990000	85.340000	0.000000	0.000000	121.000000	59.000000	-11.000000	0.000000
2.110000	31.850000	85.290000	0.000000	0.000000	121.000000	59.000000	-14.000000	-5.000000
2.120000	31.660000	85.230000	0.000000	0.000000	121.000000	59.000000	-19.000000	-6.000000
2.130000	31.480000	85.230000	0.000000	0.000000	121.000000	59.000000	-18.000000	0.000000
2.140000	31.310000	85.290000	0.000000	0.000000	121.000000	59.000000	-17.000000	6.000000
2.150000	31.120000	85.390000	0.000000	0.000000	120.000000	58.000000	-19.000000	10.000000
2.160000	30.980000	85.520000	0.000000	0.000000	120.000000	58.000000	-14.000000	13.000000
2.170000	30.910000	85.670000	0.000000	0.000000	120.000000	58.000000	-7.000000	15.000000
2.180000	30.850000	85.780000	0.000000	0.000000	120.000000	58.000000	-6.000000	11.000000
2.190000	30.780000	85.890000	0.000000	0.000000	120.000000	58.000000	-7.000000	11.000000
2.200000	30.780000	85.990000	0.000000	0.000000	120.000000	58.000000	0.000000	10.000000
2.210000	30.930000	86.050000	0.000000	0.000000	120.000000	58.000000	15.000000	6.000000
2.220000	31.130000	86.050000	0.000000	0.000000	120.000000	58.000000	20.000000	0.000000
