t	x	y	pressure	penup	azimuth	inclination	v_x	v_y
0.000000	18.450000	60.560000	100.000000	1.000000	138.000000	55.000000	0.000000	0.000000
0.010000	18.060000	60.030000	117.000000	0.000000	139.000000	56.000000	-39.000000	-53.000000
0.020000	17.860000	59.810000	144.000000	0.000000	139.000000	56.000000	-20.000000	-22.000000
0.030000	17.860000	59.660000	188.000000	0.000000	140.000000	56.000000	0.000000	-15.000000
0.040000	18.110000	59.560000	291.000000	0.000000	142.000000	57.000000	25.000000	-10.000000
0.050000	18.590000	59.560000	396.000000	0.000000	142.000000	57.000000	48.000000	0.000000
0.060000	19.580000	59.980000	496.000000	0.000000	142.000000	57.000000	99.000000	42.000000
0.070000	20.910000	60.700000	516.000000	0.000000	142.000000	57.000000	133.000000	72.000000
0.080000	22.730000	61.780000	530.000000	0.000000	142.000000	57.000000	182.000000	108.000000
0.090000	24.660000	63.080000	536.000000	0.000000	142.000000	57.000000	193.000000	130.000000
0.100000	26.660000	64.530000	539.000000	0.000000	144.000000	57.000000	200.000000	145.000000
0.110000	28.210000	65.780000	542.000000	0.000000	144.000000	57.000000	155.000000	125.000000
0.120000	28.860000	66.500000	585.000000	0.000000	144.000000	57.000000	65.000000	72.000000
0.130000	28.860000	66.870000	639.000000	0.000000	147.000000	56.000000	0.000000	37.000000
0.140000	28.370000	66.870000	653.000000	0.000000	147.000000	56.000000	-49.000000	0.000000
0.150000	27.250000	66.340000	661.000000	0.000000	148.000000	57.000000	-112.000000	-53.000000
0.160000	25.740000	65.550000	655.000000	0.000000	150.000000	57.000000	-151.000000	-79.000000
0.170000	24.030000	64.130000	636.000000	0.000000	150.000000	57.000000	-171.000000	-142.000000
0.180000	22.410000	62.680000	643.000000	0.000000	150.000000	57.000000	-162.000000	-145.000000
0.190000	20.860000	61.200000	664.000000	0.000000	148.000000	57.000000	-155.000000	-148.000000
0.200000	20.400000	60.230000	673.000000	0.000000	147.000000	56.000000	-46.000000	-97.000000
0.210000	20.790000	59.440000	687.000000	0.000000	147.000000	56.000000	39.000000	-79.000000
0.220000	21.740000	58.770000	693.000000	0.000000	145.000000	56.000000	95.000000	-67.000000
0.230000	22.960000	58.340000	696.000000	0.000000	143.000000	56.000000	122.000000	-43.000000
0.240000	24.240000	58.270000	679.000000	0.000000	143.000000	56.000000	128.000000	-7.000000
0.250000	25.360000	58.430000	663.000000	0.000000	143.000000	56.000000	112.000000	16.000000
0.260000	26.340000	58.980000	678.000000	0.000000	143.000000	56.000000	98.000000	55.000000
0.270000	26.550000	59.600000	702.000000	0.000000	143.000000	56.000000	21.000000	62.000000
0.280000	25.840000	60.270000	703.000000	0.000000	143.000000	56.000000	-71.000000	67.000000
0.290000	24.520000	60.870000	669.000000	0.000000	143.000000	56.000000	-132.000000	60.000000
0.300000	22.290000	61.070000	664.000000	0.000000	144.000000	57.000000	-223.000000	20.000000
0.310000	19.100000	61.000000	678.000000	0.000000	145.000000	56.000000	-319.000000	-7.000000
0.320000	15.260000	60.470000	694.000000	0.000000	145.000000	56.000000	-384.000000	-53.000000
0.330000	11.890000	59.790000	722.000000	0.000000	145.000000	56.000000	-337.000000	-68.000000
0.340000	8.550000	59.020000	760.000000	0.000000	145.000000	56.000000	-334.000000	-77.000000
0.350000	6.500000	58.500000	819.000000	0.000000	145.000000	56.000000	-205.000000	-52.000000
0.360000	5.300000	58.320000	863.000000	0.000000	147.000000	56.000000	-120.000000	-18.000000
0.370000	5.420000	58.380000	853.000000	0.000000	146.000000	57.000000	12.000000	6.000000
0.380000	6.590000	58.440000	872.000000	0.000000	146.000000	57.000000	117.000000	6.000000
0.390000	8.470000	58.440000	887.000000	0.000000	146.000000	58.000000	188.000000	0.000000
0.400000	11.750000	58.810000	899.000000	0.000000	146.000000	58.000000	328.000000	37.000000
0.410000	16.010000	59.380000	903.000000	0.000000	146.000000	58.000000	426.000000	57.000000
0.420000	20.920000	60.470000	893.000000	0.000000	146.000000	58.000000	491.000000	109.000000
0.430000	26.730000	61.820000	896.000000	0.000000	147.000000	59.000000	581.000000	135.000000
0.440000	32.270000	63.340000	861.000000	0.000000	149.000000	58.000000	554.000000	152.000000
0.450000	37.620000	64.360000	787.000000	0.000000	149.000000	58.000000	535.000000	102.000000
0.460000	41.260000	64.750000	541.000000	0.000000	150.000000	57.000000	364.000000	39.000000
0.470000	41.260000	64.750000	0.000000	1.000000	150.000000	57.000000	0.000000	0.000000
0.480000	44.400000	64.310000	0.000000	0.000000	151.000000	56.000000	314.000000	-44.000000
0.490000	44.140000	64.120000	0.000000	0.000000	149.000000	56.000000	-26.000000	-19.000000
0.500000	43.390000	64.120000	0.000000	0.000000	150.000000	55.000000	-75.000000	0.000000
0.510000	42.300000	64.350000	0.000000	0.000000	150.000000	55.000000	-109.000000	23.000000
0.520000	40.960000	64.580000	0.000000	0.000000	149.000000	55.000000	-134.000000	23.000000
0.530000	39.460000	64.780000	0.000000	0.000000	148.000000	54.000000	-150.000000	20.000000
0.540000	37.860000	64.580000	0.000000	0.000000	147.000000	53.000000	-160.000000	-20.000000
0.550000	35.860000	64.280000	0.000000	0.000000	146.000000	53.000000	-200.000000	-30.000000
0.560000	33.860000	63.920000	0.000000	0.000000	147.000000	52.000000	-200.000000	-36.000000
0.570000	31.880000	63.600000	0.000000	0.000000	146.000000	52.000000	-198.000000	-32.000000
0.580000	29.900000	63.270000	0.000000	0.000000	146.000000	52.000000	-198.000000	-33.000000
0.590000	28.580000	63.120000	0.000000	0.000000	144.000000	51.000000	-132.000000	-15.000000
0.600000	27.840000	63.120000	0.000000	0.000000	144.000000	51.000000	-74.000000	0.000000
0.610000	27.480000	63.190000	0.000000	0.000000	144.000000	51.000000	-36.000000	7.000000
0.620000	27.260000	63.330000	0.000000	0.000000	144.000000	51.000000	-22.000000	14.000000
0.630000	27.000000	63.500000	0.000000	0.000000	143.000000	52.000000	-26.000000	17.000000
0.640000	26.720000	63.500000	0.000000	0.000000	143.000000	52.000000	-28.000000	0.000000
0.650000	26.490000	63.430000	0.000000	0.000000	143.000000	52.000000	-23.000000	-7.000000
0.660000	26.260000	63.300000	0.000000	0.000000	143.000000	52.000000	-23.000000	-13.000000
0.670000	26.050000	63.120000	0.000000	0.000000	143.000000	53.000000	-21.000000	-18.000000
0.680000	25.850000	62.970000	0.000000	0.000000	145.000000	54.000000	-20.000000	-15.000000
0.690000	25.720000	62.890000	0.000000	0.000000	146.000000	54.000000	-13.000000	-8.000000
0.700000	25.600000	62.890000	0.000000	0.000000	147.000000	55.000000	-12.000000	0.000000
0.710000	25.480000	62.820000	0.000000	0.000000	147.000000	55.000000	-12.000000	-7.000000
0.720000	25.370000	62.820000	0.000000	0.000000	149.000000	55.000000	-11.000000	0.000000
0.730000	25.290000	62.820000	0.000000	0.000000	149.000000	55.000000	-8.000000	0.000000
0.740000	25.180000	62.870000	0.000000	0.000000	149.000000	55.000000	-11.000000	5.000000
0.750000	24.970000	62.950000	0.000000	0.000000	147.000000	55.000000	-21.000000	8.000000
0.760000	24.710000	63.040000	0.000000	0.000000	147.000000	55.000000	-26.000000	9.000000
0.770000	24.380000	63.140000	0.000000	0.000000	146.000000	54.000000	-33.000000	10.000000
0.780000	24.080000	63.260000	0.000000	0.000000	146.000000	54.000000	-30.000000	12.000000
0.790000	23.850000	63.470000	0.000000	0.000000	145.000000	54.000000	-23.000000	21.000000
0.800000	23.690000	63.740000	0.000000	0.000000	145.000000	54.000000	-16.000000	27.000000
0.810000	23.540000	64.200000	0.000000	0.000000	145.000000	54.000000	-15.000000	46.000000
0.820000	23.390000	64.730000	0.000000	0.000000	143.000000	53.000000	-15.000000	53.000000
0.830000	23.240000	65.320000	0.000000	0.000000	143.000000	53.000000	-15.000000	59.000000
0.840000	23.130000	65.990000	0.000000	0.000000	142.000000	54.000000	-11.000000	67.000000
0.850000	23.040000	66.420000	0.000000	0.000000	142.000000	54.000000	-9.000000	43.000000
0.860000	23.120000	66.690000	0.000000	0.000000	142.000000	54.000000	8.000000	27.000000
0.870000	23.250000	66.800000	0.000000	0.000000	142.000000	54.000000	13.000000	11.000000
0.880000	23.250000	66.800000	198.000000	1.000000	141.000000	55.000000	0.000000	0.000000
0.890000	23.250000	66.800000	282.000000	0.000000	141.000000	55.000000	0.000000	0.000000
0.900000	23.250000	66.800000	427.000000	0.000000	141.000000	55.000000	0.000000	0.000000
0.910000	23.280000	66.520000	518.000000	0.000000	141.000000	55.000000	3.000000	-28.000000
0.920000	23.220000	65.990000	606.000000	0.000000	141.000000	55.000000	-6.000000	-53.000000
0.930000	23.220000	65.310000	641.000000	0.000000	141.000000	55.000000	0.000000	-68.000000
0.940000	23.060000	64.450000	655.000000	0.000000	141.000000	55.000000	-16.000000	-86.000000
0.950000	22.880000	63.550000	670.000000	0.000000	141.000000	55.000000	-18.000000	-90.000000
0.960000	22.810000	62.630000	667.000000	0.000000	141.000000	55.000000	-7.000000	-92.000000
0.970000	22.980000	62.130000	667.000000	0.000000	141.000000	55.000000	17.000000	-50.000000
0.980000	23.320000	61.940000	676.000000	0.000000	140.000000	54.000000	34.000000	-19.000000
0.990000	23.750000	61.940000	685.000000	0.000000	141.000000	53.000000	43.000000	0.000000
1.000000	24.370000	62.430000	700.000000	0.000000	141.000000	53.000000	62.000000	49.000000
1.010000	25.120000	63.230000	713.000000	0.000000	140.000000	53.000000	75.000000	80.000000
1.020000	25.830000	64.240000	720.000000	0.000000	141.000000	53.000000	71.000000	101.000000
1.030000	26.280000	65.220000	749.000000	0.000000	141.000000	53.000000	45.000000	98.000000
1.040000	26.560000	66.160000	760.000000	0.000000	142.000000	54.000000	28.000000	94.000000
1.050000	26.680000	66.850000	790.000000	0.000000	142.000000	54.000000	12.000000	69.000000
1.060000	26.680000	67.390000	828.000000	0.000000	144.000000	54.000000	0.000000	54.000000
1.070000	26.680000	67.520000	846.000000	0.000000	144.000000	54.000000	0.000000	13.000000
1.080000	26.680000	67.410000	858.000000	0.000000	145.000000	55.000000	0.000000	-11.000000
1.090000	26.460000	67.150000	861.000000	0.000000	144.000000	56.000000	-22.000000	-26.000000
1.100000	26.130000	66.310000	885.000000	0.000000	144.000000	56.000000	-33.000000	-84.000000
1.110000	25.530000	65.110000	893.000000	0.000000	144.000000	56.000000	-60.000000	-120.000000
1.120000	24.970000	63.660000	918.000000	0.000000	144.000000	56.000000	-56.000000	-145.000000
1.130000	24.620000	62.300000	939.000000	0.000000	144.000000	54.000000	-35.000000	-136.000000
1.140000	24.400000	61.030000	933.000000	0.000000	144.000000	54.000000	-22.000000	-127.000000
1.150000	24.340000	59.830000	955.000000	0.000000	144.000000	54.000000	-6.000000	-120.000000
1.160000	24.390000	58.670000	967.000000	0.000000	143.000000	55.000000	5.000000	-116.000000
1.170000	24.510000	57.920000	982.000000	0.000000	143.000000	55.000000	12.000000	-75.000000
1.180000	24.620000	57.450000	973.000000	0.000000	143.000000	55.000000	11.000000	-47.000000
1.190000	24.730000	57.360000	976.000000	0.000000	140.000000	55.000000	11.000000	-9.000000
1.200000	24.780000	57.360000	991.000000	0.000000	139.000000	56.000000	5.000000	0.000000
1.210000	24.780000	57.360000	990.000000	0.000000	139.000000	56.000000	0.000000	0.000000
1.220000	24.780000	57.360000	990.000000	0.000000	138.000000	57.000000	0.000000	0.000000
1.230000	24.780000	57.360000	994.000000	0.000000	138.000000	57.000000	0.000000	0.000000
1.240000	24.780000	57.360000	988.000000	0.000000	136.000000	57.000000	0.000000	0.000000
1.250000	24.780000	57.360000	921.000000	0.000000	136.000000	57.000000	0.000000	0.000000
1.260000	24.780000	57.450000	845.000000	0.000000	136.000000	57.000000	0.000000	9.000000
1.270000	24.720000	57.570000	731.000000	0.000000	136.000000	57.000000	-6.000000	12.000000
1.280000	24.720000	57.690000	496.000000	0.000000	136.000000	57.000000	0.000000	12.000000
1.290000	24.780000	57.890000	70.000000	0.000000	136.000000	57.000000	6.000000	20.000000
1.300000	24.780000	57.890000	0.000000	1.000000	136.000000	57.000000	0.000000	0.000000
1.310000	25.080000	58.270000	0.000000	0.000000	136.000000	57.000000	30.000000	38.000000
1.320000	25.080000	58.380000	0.000000	0.000000	136.000000	57.000000	0.000000	11.000000
1.330000	25.080000	58.480000	0.000000	0.000000	136.000000	57.000000	0.000000	10.000000
1.340000	25.080000	58.480000	0.000000	0.000000	139.000000	57.000000	0.000000	0.000000
1.350000	25.190000	58.480000	0.000000	0.000000	139.000000	57.000000	11.000000	0.000000
1.360000	25.330000	58.530000	0.000000	0.000000	139.000000	57.000000	14.000000	5.000000
1.370000	25.520000	58.590000	0.000000	0.000000	142.000000	57.000000	19.000000	6.000000
1.380000	25.700000	58.660000	0.000000	0.000000	142.000000	57.000000	18.000000	7.000000
1.390000	25.800000	58.710000	0.000000	0.000000	143.000000	57.000000	10.000000	5.000000
1.400000	25.800000	58.710000	0.000000	0.000000	143.000000	57.000000	0.000000	0.000000
1.410000	25.800000	58.760000	0.000000	0.000000	143.000000	57.000000	0.000000	5.000000
1.420000	25.740000	58.760000	0.000000	0.000000	143.000000	57.000000	-6.000000	0.000000
1.430000	25.670000	58.760000	0.000000	0.000000	142.000000	58.000000	-7.000000	0.000000
1.440000	25.590000	58.760000	0.000000	0.000000	141.000000	59.000000	-8.000000	0.000000
1.450000	25.490000	58.710000	0.000000	0.000000	141.000000	59.000000	-10.000000	-5.000000
1.460000	25.400000	58.580000	0.000000	0.000000	139.000000	60.000000	-9.000000	-13.000000
1.470000	25.310000	58.440000	0.000000	0.000000	139.000000	60.000000	-9.000000	-14.000000
1.480000	25.210000	58.300000	0.000000	0.000000	138.000000	59.000000	-10.000000	-14.000000
1.490000	25.110000	58.120000	0.000000	0.000000	138.000000	59.000000	-10.000000	-18.000000
1.500000	25.020000	57.970000	0.000000	0.000000	139.000000	58.000000	-9.000000	-15.000000
1.510000	24.920000	57.840000	0.000000	0.000000	139.000000	58.000000	-10.000000	-13.000000
1.520000	24.800000	57.750000	0.000000	0.000000	139.000000	58.000000	-12.000000	-9.000000
1.530000	24.660000	57.680000	0.000000	0.000000	140.000000	58.000000	-14.000000	-7.000000
1.540000	24.500000	57.630000	0.000000	0.000000	140.000000	58.000000	-16.000000	-5.000000
1.550000	24.320000	57.630000	0.000000	0.000000	140.000000	58.000000	-18.000000	0.000000
1.560000	24.130000	57.630000	0.000000	0.000000	139.000000	58.000000	-19.000000	0.000000
1.570000	23.950000	57.630000	0.000000	0.000000	139.000000	58.000000	-18.000000	0.000000
1.580000	23.730000	57.630000	0.000000	0.000000	138.000000	58.000000	-22.000000	0.000000
1.590000	23.490000	57.630000	0.000000	0.000000	138.000000	58.000000	-24.000000	0.000000
1.600000	23.300000	57.740000	0.000000	0.000000	138.000000	58.000000	-19.000000	11.000000
1.610000	23.130000	57.850000	0.000000	0.000000	138.000000	58.000000	-17.000000	11.000000
1.620000	22.970000	58.010000	0.000000	0.000000	138.000000	58.000000	-16.000000	16.000000
1.630000	22.830000	58.160000	0.000000	0.000000	138.000000	58.000000	-14.000000	15.000000
1.640000	22.690000	58.280000	0.000000	0.000000	136.000000	57.000000	-14.000000	12.000000
1.650000	22.470000	58.350000	0.000000	0.000000	138.000000	57.000000	-22.000000	7.000000
1.660000	22.190000	58.400000	0.000000	0.000000	138.000000	57.000000	-28.000000	5.000000
1.670000	21.990000	58.500000	0.000000	0.000000	138.000000	57.000000	-20.000000	10.000000
1.680000	21.850000	58.640000	0.000000	0.000000	138.000000	57.000000	-14.000000	14.000000
1.690000	21.850000	58.940000	0.000000	0.000000	136.000000	56.000000	0.000000	30.000000
1.700000	21.850000	58.940000	98.000000	1.000000	138.000000	55.000000	0.000000	0.000000
1.710000	22.130000	59.390000	225.000000	0.000000	138.000000	55.000000	28.000000	45.000000
1.720000	22.130000	59.500000	371.000000	0.000000	138.000000	55.000000	0.000000	11.000000
1.730000	22.410000	59.500000	502.000000	0.000000	138.000000	55.000000	28.000000	0.000000
1.740000	22.780000	59.570000	595.000000	0.000000	138.000000	55.000000	37.000000	7.000000
1.750000	23.400000	59.750000	667.000000	0.000000	138.000000	55.000000	62.000000	18.000000
1.760000	24.320000	60.040000	707.000000	0.000000	139.000000	55.000000	92.000000	29.000000
1.770000	25.430000	60.390000	724.000000	0.000000	140.000000	55.000000	111.000000	35.000000
1.780000	26.570000	60.740000	717.000000	0.000000	141.000000	55.000000	114.000000	35.000000
1.790000	27.310000	60.870000	664.000000	0.000000	143.000000	55.000000	74.000000	13.000000
1.800000	27.770000	60.870000	535.000000	0.000000	144.000000	56.000000	46.000000	0.000000
1.810000	27.990000	60.790000	55.000000	0.000000	146.000000	55.000000	22.000000	-8.000000
1.820000	27.990000	60.790000	0.000000	1.000000	148.000000	56.000000	0.000000	0.000000
1.830000	27.620000	60.340000	0.000000	0.000000	148.000000	56.000000	-37.000000	-45.000000
1.840000	26.990000	60.160000	0.000000	0.000000	148.000000	56.000000	-63.000000	-18.000000
1.850000	26.360000	60.050000	0.000000	0.000000	147.000000	56.000000	-63.000000	-11.000000
1.860000	25.750000	60.000000	0.000000	0.000000	147.000000	56.000000	-61.000000	-5.000000
1.870000	25.170000	60.000000	0.000000	0.000000	147.000000	56.000000	-58.000000	0.000000
1.880000	24.640000	60.000000	0.000000	0.000000	146.000000	57.000000	-53.000000	0.000000
1.890000	24.080000	59.910000	0.000000	0.000000	144.000000	57.000000	-56.000000	-9.000000
1.900000	23.430000	59.530000	0.000000	0.000000	143.000000	57.000000	-65.000000	-38.000000
1.910000	23.430000	59.530000	467.000000	1.000000	142.000000	57.000000	0.000000	0.000000
1.920000	22.140000	58.690000	551.000000	0.000000	140.000000	56.000000	-129.000000	-84.000000
1.930000	21.930000	58.590000	620.000000	0.000000	140.000000	56.000000	-21.000000	-10.000000
1.940000	21.990000	58.590000	681.000000	0.000000	140.000000	56.000000	6.000000	0.000000
1.950000	22.220000	58.590000	745.000000	0.000000	139.000000	56.000000	23.000000	0.000000
1.960000	22.920000	58.840000	797.000000	0.000000	139.000000	56.000000	70.000000	25.000000
1.970000	23.920000	59.160000	827.000000	0.000000	139.000000	56.000000	100.000000	32.000000
1.980000	25.180000	59.450000	827.000000	0.000000	139.000000	56.000000	126.000000	29.000000
1.990000	26.260000	59.690000	768.000000	0.000000	141.000000	56.000000	108.000000	24.000000
2.000000	27.230000	59.830000	633.000000	0.000000	141.000000	56.000000	97.000000	14.000000
2.010000	27.540000	59.830000	340.000000	0.000000	143.000000	56.000000	31.000000	0.000000
2.020000	27.540000	59.830000	0.000000	1.000000	143.000000	56.000000	0.000000	0.000000
2.030000	27.280000	59.520000	0.000000	0.000000	145.000000	56.000000	-26.000000	-31.000000
2.040000	26.610000	59.360000	0.000000	0.000000	145.000000	56.000000	-67.000000	-16.000000
2.050000	25.920000	59.240000	0.000000	0.000000	144.000000	57.000000	-69.000000	-12.000000
2.060000	25.220000	59.170000	0.000000	0.000000	144.000000	57.000000	-70.000000	-7.000000
2.070000	24.700000	59.090000	0.000000	0.000000	144.000000	57.000000	-52.000000	-8.000000
2.080000	24.240000	58.990000	0.000000	0.000000	143.000000	57.000000	-46.000000	-10.000000
2.090000	23.880000	58.880000	0.000000	0.000000	142.000000	58.000000	-36.000000	-11.000000
2.100000	23.600000	58.750000	0.000000	0.000000	140.000000	58.000000	-28.000000	-13.000000
2.110000	23.360000	58.590000	0.000000	0.000000	140.000000	58.000000	-24.000000	-16.000000
2.120000	23.130000	58.400000	0.000000	0.000000	140.000000	58.000000	-23.000000	-19.000000
2.130000	23.020000	58.220000	0.000000	0.000000	140.000000	56.000000	-11.000000	-18.000000
2.140000	22.950000	58.080000	0.000000	0.000000	140.000000	56.000000	-7.000000	-14.000000
2.150000	22.950000	58.030000	0.000000	0.000000	141.000000	56.000000	0.000000	-5.000000
2.160000	22.860000	58.030000	0.000000	0.000000	140.000000	55.000000	-9.000000	0.000000
2.170000	22.860000	58.030000	0.000000	0.000000	140.000000	55.000000	0.000000	0.000000
2.180000	22.860000	58.030000	315.000000	1.000000	141.000000	55.000000	0.000000	0.000000
2.190000	22.860000	58.030000	473.000000	0.000000	140.000000	55.000000	0.000000	0.000000
2.200000	22.500000	58.100000	551.000000	0.000000	141.000000	56.000000	-36.000000	7.000000
2.210000	22.500000	58.100000	591.000000	0.000000	141.000000	56.000000	0.000000	0.000000
