t	x	y	pressure	penup	azimuth	inclination	v_x	v_y
0.000000	15.710000	61.740000	117.000000	1.000000	126.000000	56.000000	0.000000	0.000000
0.010000	16.880000	61.620000	246.000000	0.000000	128.000000	57.000000	117.000000	-12.000000
0.020000	17.800000	62.140000	366.000000	0.000000	130.000000	58.000000	92.000000	52.000000
0.030000	19.200000	62.780000	445.000000	0.000000	131.000000	58.000000	140.000000	64.000000
0.040000	20.810000	63.530000	499.000000	0.000000	132.000000	59.000000	161.000000	75.000000
0.050000	22.570000	64.350000	521.000000	0.000000	134.000000	60.000000	176.000000	82.000000
0.060000	24.120000	65.060000	538.000000	0.000000	134.000000	60.000000	155.000000	71.000000
0.070000	25.330000	65.740000	544.000000	0.000000	134.000000	60.000000	121.000000	68.000000
0.080000	26.300000	66.390000	557.000000	0.000000	134.000000	60.000000	97.000000	65.000000
0.090000	26.680000	66.770000	655.000000	0.000000	135.000000	60.000000	38.000000	38.000000
0.100000	26.430000	66.970000	652.000000	0.000000	135.000000	60.000000	-25.000000	20.000000
0.110000	25.770000	66.970000	652.000000	0.000000	135.000000	60.000000	-66.000000	0.000000
0.120000	24.140000	66.370000	641.000000	0.000000	138.000000	60.000000	-163.000000	-60.000000
0.130000	21.730000	65.370000	609.000000	0.000000	138.000000	60.000000	-241.000000	-100.000000
0.140000	18.800000	63.830000	592.000000	0.000000	138.000000	60.000000	-293.000000	-154.000000
0.150000	15.450000	62.200000	585.000000	0.000000	138.000000	60.000000	-335.000000	-163.000000
0.160000	12.340000	60.520000	645.000000	0.000000	136.000000	60.000000	-311.000000	-168.000000
0.170000	9.380000	59.050000	678.000000	0.000000	135.000000	60.000000	-296.000000	-147.000000
0.180000	8.070000	58.330000	687.000000	0.000000	134.000000	60.000000	-131.000000	-72.000000
0.190000	8.480000	58.120000	751.000000	0.000000	134.000000	60.000000	41.000000	-21.000000
0.200000	10.040000	58.320000	825.000000	0.000000	132.000000	60.000000	156.000000	20.000000
0.210000	12.680000	59.010000	923.000000	0.000000	132.000000	60.000000	264.000000	69.000000
0.220000	16.330000	60.020000	952.000000	0.000000	129.000000	60.000000	365.000000	101.000000
0.230000	20.650000	61.200000	933.000000	0.000000	131.000000	61.000000	432.000000	118.000000
0.240000	25.720000	62.300000	897.000000	0.000000	131.000000	61.000000	507.000000	110.000000
0.250000	29.790000	63.360000	818.000000	0.000000	134.000000	61.000000	407.000000	106.000000
0.260000	33.190000	64.070000	737.000000	0.000000	134.000000	61.000000	340.000000	71.000000
0.270000	35.070000	64.620000	702.000000	0.000000	136.000000	61.000000	188.000000	55.000000
0.280000	36.050000	65.070000	572.000000	0.000000	139.000000	61.000000	98.000000	45.000000
0.290000	36.430000	65.440000	349.000000	0.000000	142.000000	61.000000	38.000000	37.000000
0.300000	36.430000	65.440000	0.000000	1.000000	144.000000	61.000000	0.000000	0.000000
0.310000	35.250000	65.420000	0.000000	0.000000	147.000000	61.000000	-118.000000	-2.000000
0.320000	33.480000	64.980000	0.000000	0.000000	147.000000	61.000000	-177.000000	-44.000000
0.330000	30.920000	64.420000	0.000000	0.000000	147.000000	61.000000	-256.000000	-56.000000
0.340000	28.180000	63.770000	0.000000	0.000000	148.000000	60.000000	-274.000000	-65.000000
0.350000	25.310000	62.780000	0.000000	0.000000	145.000000	60.000000	-287.000000	-99.000000
0.360000	22.820000	62.250000	0.000000	0.000000	145.000000	60.000000	-249.000000	-53.000000
0.370000	20.870000	62.040000	0.000000	0.000000	144.000000	60.000000	-195.000000	-21.000000
0.380000	19.290000	61.500000	0.000000	0.000000	139.000000	60.000000	-158.000000	-54.000000
0.390000	18.110000	61.080000	0.000000	0.000000	138.000000	59.000000	-118.000000	-42.000000
0.400000	16.920000	60.730000	0.000000	0.000000	135.000000	59.000000	-119.000000	-35.000000
0.410000	15.730000	60.400000	0.000000	0.000000	134.000000	60.000000	-119.000000	-33.000000
0.420000	14.940000	60.060000	0.000000	0.000000	131.000000	60.000000	-79.000000	-34.000000
0.430000	14.400000	59.830000	0.000000	0.000000	131.000000	61.000000	-54.000000	-23.000000
0.440000	14.030000	59.680000	0.000000	0.000000	129.000000	61.000000	-37.000000	-15.000000
0.450000	13.870000	59.680000	0.000000	0.000000	129.000000	61.000000	-16.000000	0.000000
0.460000	13.930000	59.830000	0.000000	0.000000	129.000000	63.000000	6.000000	15.000000
0.470000	14.130000	60.080000	0.000000	0.000000	129.000000	63.000000	20.000000	25.000000
0.480000	14.480000	60.380000	0.000000	0.000000	130.000000	63.000000	35.000000	30.000000
0.490000	14.840000	60.670000	0.000000	0.000000	130.000000	63.000000	36.000000	29.000000
0.500000	15.230000	60.940000	0.000000	0.000000	130.000000	63.000000	39.000000	27.000000
0.510000	15.540000	61.180000	0.000000	0.000000	132.000000	63.000000	31.000000	24.000000
0.520000	15.540000	61.180000	103.000000	1.000000	133.000000	63.000000	0.000000	0.000000
0.530000	15.870000	61.550000	196.000000	0.000000	135.000000	63.000000	33.000000	37.000000
0.540000	15.720000	61.650000	379.000000	0.000000	135.000000	63.000000	-15.000000	10.000000
0.550000	15.410000	61.650000	460.000000	0.000000	137.000000	62.000000	-31.000000	0.000000
0.560000	14.940000	61.440000	529.000000	0.000000	137.000000	62.000000	-47.000000	-21.000000
0.570000	14.390000	61.110000	569.000000	0.000000	137.000000	62.000000	-55.000000	-33.000000
0.580000	13.780000	60.620000	613.000000	0.000000	136.000000	61.000000	-61.000000	-49.000000
0.590000	13.430000	60.210000	619.000000	0.000000	136.000000	61.000000	-35.000000	-41.000000
0.600000	13.350000	59.860000	617.000000	0.000000	134.000000	61.000000	-8.000000	-35.000000
0.610000	13.440000	59.630000	627.000000	0.000000	132.000000	60.000000	9.000000	-23.000000
0.620000	13.690000	59.500000	634.000000	0.000000	132.000000	60.000000	25.000000	-13.000000
0.630000	14.170000	59.430000	641.000000	0.000000	132.000000	60.000000	48.000000	-7.000000
0.640000	14.810000	59.670000	628.000000	0.000000	131.000000	60.000000	64.000000	24.000000
0.650000	15.490000	60.100000	622.000000	0.000000	131.000000	60.000000	68.000000	43.000000
0.660000	15.980000	60.650000	620.000000	0.000000	131.000000	60.000000	49.000000	55.000000
0.670000	16.350000	61.200000	624.000000	0.000000	129.000000	60.000000	37.000000	55.000000
0.680000	16.530000	61.720000	639.000000	0.000000	129.000000	60.000000	18.000000	52.000000
0.690000	16.530000	61.940000	640.000000	0.000000	129.000000	60.000000	0.000000	22.000000
0.700000	16.430000	61.940000	644.000000	0.000000	129.000000	60.000000	-10.000000	0.000000
0.710000	16.320000	61.940000	641.000000	0.000000	129.000000	60.000000	-11.000000	0.000000
0.720000	16.180000	61.660000	643.000000	0.000000	128.000000	59.000000	-14.000000	-28.000000
0.730000	16.030000	61.250000	647.000000	0.000000	131.000000	60.000000	-15.000000	-41.000000
0.740000	16.030000	60.910000	591.000000	0.000000	131.000000	60.000000	0.000000	-34.000000
0.750000	16.270000	60.710000	494.000000	0.000000	131.000000	60.000000	24.000000	-20.000000
0.760000	16.680000	60.600000	213.000000	0.000000	131.000000	60.000000	41.000000	-11.000000
0.770000	16.680000	60.600000	0.000000	1.000000	131.000000	60.000000	0.000000	0.000000
0.780000	17.290000	60.870000	0.000000	0.000000	131.000000	60.000000	61.000000	27.000000
0.790000	17.390000	61.200000	0.000000	0.000000	131.000000	60.000000	10.000000	33.000000
0.800000	17.390000	61.630000	0.000000	0.000000	131.000000	60.000000	0.000000	43.000000
0.810000	17.390000	62.040000	0.000000	0.000000	131.000000	60.000000	0.000000	41.000000
0.820000	17.450000	62.430000	0.000000	0.000000	131.000000	60.000000	6.000000	39.000000
0.830000	17.450000	62.430000	237.000000	1.000000	132.000000	60.000000	0.000000	0.000000
0.840000	17.450000	62.430000	314.000000	0.000000	132.000000	60.000000	0.000000	0.000000
0.850000	17.710000	62.500000	431.000000	0.000000	132.000000	60.000000	26.000000	7.000000
0.860000	17.910000	62.280000	493.000000	0.000000	132.000000	60.000000	20.000000	-22.000000
0.870000	18.120000	62.050000	538.000000	0.000000	132.000000	60.000000	21.000000	-23.000000
0.880000	18.340000	61.770000	540.000000	0.000000	132.000000	60.000000	22.000000	-28.000000
0.890000	18.530000	61.540000	548.000000	0.000000	132.000000	60.000000	19.000000	-23.000000
0.900000	18.710000	61.360000	537.000000	0.000000	132.000000	60.000000	18.000000	-18.000000
0.910000	18.710000	61.310000	540.000000	0.000000	132.000000	60.000000	0.000000	-5.000000
0.920000	18.710000	61.380000	501.000000	0.000000	132.000000	60.000000	0.000000	7.000000
0.930000	18.610000	61.540000	470.000000	0.000000	132.000000	60.000000	-10.000000	16.000000
0.940000	18.410000	61.890000	490.000000	0.000000	131.000000	60.000000	-20.000000	35.000000
0.950000	18.230000	62.260000	492.000000	0.000000	131.000000	60.000000	-18.000000	37.000000
0.960000	18.230000	62.650000	505.000000	0.000000	131.000000	60.000000	0.000000	39.000000
0.970000	18.390000	62.830000	519.000000	0.000000	131.000000	60.000000	16.000000	18.000000
0.980000	18.770000	62.970000	546.000000	0.000000	131.000000	60.000000	38.000000	14.000000
0.990000	19.160000	62.890000	556.000000	0.000000	131.000000	60.000000	39.000000	-8.000000
1.000000	19.580000	62.690000	580.000000	0.000000	131.000000	60.000000	42.000000	-20.000000
1.010000	19.950000	62.320000	606.000000	0.000000	131.000000	60.000000	37.000000	-37.000000
1.020000	20.280000	62.050000	628.000000	0.000000	132.000000	59.000000	33.000000	-27.000000
1.030000	20.850000	61.850000	641.000000	0.000000	132.000000	59.000000	57.000000	-20.000000
1.040000	21.460000	61.850000	636.000000	0.000000	132.000000	59.000000	61.000000	0.000000
1.050000	22.120000	62.000000	638.000000	0.000000	131.000000	58.000000	66.000000	15.000000
1.060000	22.580000	62.290000	643.000000	0.000000	131.000000	58.000000	46.000000	29.000000
1.070000	22.900000	62.560000	670.000000	0.000000	131.000000	58.000000	32.000000	27.000000
1.080000	22.900000	62.900000	691.000000	0.000000	130.000000	58.000000	0.000000	34.000000
1.090000	22.660000	63.280000	708.000000	0.000000	130.000000	58.000000	-24.000000	38.000000
1.100000	22.200000	63.510000	705.000000	0.000000	130.000000	58.000000	-46.000000	23.000000
1.110000	21.480000	63.510000	696.000000	0.000000	130.000000	58.000000	-72.000000	0.000000
1.120000	20.680000	63.430000	638.000000	0.000000	130.000000	58.000000	-80.000000	-8.000000
1.130000	19.830000	63.130000	491.000000	0.000000	131.000000	58.000000	-85.000000	-30.000000
1.140000	19.270000	62.960000	218.000000	0.000000	131.000000	58.000000	-56.000000	-17.000000
1.150000	19.270000	62.960000	0.000000	1.000000	131.000000	58.000000	0.000000	0.000000
1.160000	19.290000	63.060000	0.000000	0.000000	131.000000	58.000000	2.000000	10.000000
1.170000	19.780000	63.460000	0.000000	0.000000	131.000000	58.000000	49.000000	40.000000
1.180000	20.350000	64.010000	0.000000	0.000000	131.000000	58.000000	57.000000	55.000000
1.190000	20.960000	64.470000	0.000000	0.000000	131.000000	58.000000	61.000000	46.000000
1.200000	21.490000	64.920000	0.000000	0.000000	131.000000	58.000000	53.000000	45.000000
1.210000	21.900000	65.330000	0.000000	0.000000	131.000000	58.000000	41.000000	41.000000
1.220000	21.900000	65.330000	325.000000	1.000000	131.000000	58.000000	0.000000	0.000000
1.230000	22.430000	65.940000	427.000000	0.000000	131.000000	58.000000	53.000000	61.000000
1.240000	22.430000	66.070000	546.000000	0.000000	131.000000	58.000000	0.000000	13.000000
1.250000	22.310000	66.070000	636.000000	0.000000	131.000000	58.000000	-12.000000	0.000000
1.260000	22.400000	65.790000	685.000000	0.000000	131.000000	58.000000	9.000000	-28.000000
1.270000	22.540000	65.390000	703.000000	0.000000	131.000000	58.000000	14.000000	-40.000000
1.280000	22.700000	64.630000	714.000000	0.000000	131.000000	58.000000	16.000000	-76.000000
1.290000	22.850000	63.830000	711.000000	0.000000	131.000000	58.000000	15.000000	-80.000000
1.300000	23.060000	63.240000	671.000000	0.000000	131.000000	58.000000	21.000000	-59.000000
1.310000	23.320000	62.800000	495.000000	0.000000	131.000000	58.000000	26.000000	-44.000000
1.320000	23.650000	62.540000	53.000000	0.000000	131.000000	58.000000	33.000000	-26.000000
1.330000	23.650000	62.540000	0.000000	1.000000	131.000000	58.000000	0.000000	0.000000
1.340000	24.050000	62.750000	0.000000	0.000000	132.000000	58.000000	40.000000	21.000000
1.350000	24.050000	63.290000	0.000000	0.000000	132.000000	58.000000	0.000000	54.000000
1.360000	24.050000	63.860000	0.000000	0.000000	132.000000	58.000000	0.000000	57.000000
1.370000	24.160000	64.440000	0.000000	0.000000	134.000000	58.000000	11.000000	58.000000
1.380000	24.160000	64.440000	442.000000	1.000000	134.000000	58.000000	0.000000	0.000000
1.390000	24.160000	64.440000	541.000000	0.000000	134.000000	58.000000	0.000000	0.000000
1.400000	24.160000	64.440000	641.000000	0.000000	135.000000	59.000000	0.000000	0.000000
1.410000	24.160000	64.440000	702.000000	0.000000	135.000000	59.000000	0.000000	0.000000
1.420000	24.490000	64.080000	727.000000	0.000000	135.000000	59.000000	33.000000	-36.000000
1.430000	24.680000	63.670000	736.000000	0.000000	135.000000	59.000000	19.000000	-41.000000
1.440000	24.930000	63.180000	725.000000	0.000000	135.000000	59.000000	25.000000	-49.000000
1.450000	25.230000	62.870000	606.000000	0.000000	135.000000	59.000000	30.000000	-31.000000
1.460000	25.540000	62.750000	317.000000	0.000000	135.000000	59.000000	31.000000	-12.000000
1.470000	25.540000	62.750000	0.000000	1.000000	135.000000	59.000000	0.000000	0.000000
1.480000	25.840000	62.920000	0.000000	0.000000	135.000000	59.000000	30.000000	17.000000
1.490000	25.580000	63.380000	0.000000	0.000000	135.000000	59.000000	-26.000000	46.000000
1.500000	25.230000	64.030000	0.000000	0.000000	135.000000	59.000000	-35.000000	65.000000
1.510000	24.810000	64.970000	0.000000	0.000000	135.000000	59.000000	-42.000000	94.000000
1.520000	24.720000	65.570000	0.000000	0.000000	135.000000	59.000000	-9.000000	60.000000
1.530000	24.720000	65.570000	280.000000	1.000000	135.000000	59.000000	0.000000	0.000000
1.540000	24.720000	66.220000	277.000000	0.000000	135.000000	59.000000	0.000000	65.000000
1.550000	24.720000	66.460000	330.000000	0.000000	134.000000	60.000000	0.000000	24.000000
1.560000	24.800000	66.520000	339.000000	0.000000	135.000000	60.000000	8.000000	6.000000
1.570000	25.010000	66.470000	241.000000	0.000000	135.000000	60.000000	21.000000	-5.000000
1.580000	25.010000	66.470000	0.000000	1.000000	135.000000	60.000000	0.000000	0.000000
1.590000	25.720000	66.090000	0.000000	0.000000	135.000000	60.000000	71.000000	-38.000000
1.600000	26.190000	65.900000	0.000000	0.000000	135.000000	60.000000	47.000000	-19.000000
1.610000	26.390000	65.760000	0.000000	0.000000	135.000000	60.000000	20.000000	-14.000000
1.620000	26.600000	65.640000	0.000000	0.000000	135.000000	60.000000	21.000000	-12.000000
1.630000	26.820000	65.640000	0.000000	0.000000	135.000000	60.000000	22.000000	0.000000
1.640000	27.030000	65.560000	0.000000	0.000000	135.000000	60.000000	21.000000	-8.000000
1.650000	27.030000	65.560000	340.000000	1.000000	136.000000	60.000000	0.000000	0.000000
1.660000	26.960000	65.130000	389.000000	0.000000	135.000000	59.000000	-7.000000	-43.000000
1.670000	26.670000	64.950000	485.000000	0.000000	135.000000	59.000000	-29.000000	-18.000000
1.680000	26.590000	64.770000	560.000000	0.000000	134.000000	58.000000	-8.000000	-18.000000
1.690000	26.640000	64.420000	620.000000	0.000000	134.000000	57.000000	5.000000	-35.000000
1.700000	26.640000	63.970000	641.000000	0.000000	132.000000	58.000000	0.000000	-45.000000
1.710000	26.900000	63.620000	653.000000	0.000000	132.000000	58.000000	26.000000	-35.000000
1.720000	27.360000	63.420000	652.000000	0.000000	132.000000	58.000000	46.000000	-20.000000
1.730000	27.770000	63.320000	636.000000	0.000000	132.000000	58.000000	41.000000	-10.000000
1.740000	28.190000	63.450000	594.000000	0.000000	134.000000	58.000000	42.000000	13.000000
1.750000	28.640000	63.680000	577.000000	0.000000	134.000000	58.000000	45.000000	23.000000
1.760000	28.820000	63.970000	551.000000	0.000000	136.000000	58.000000	18.000000	29.000000
1.770000	28.820000	64.360000	536.000000	0.000000	136.000000	58.000000	0.000000	39.000000
1.780000	28.650000	64.790000	545.000000	0.000000	138.000000	59.000000	-17.000000	43.000000
1.790000	28.410000	65.260000	553.000000	0.000000	138.000000	59.000000	-24.000000	47.000000
1.800000	28.110000	65.450000	561.000000	0.000000	136.000000	60.000000	-30.000000	19.000000
1.810000	27.970000	65.450000	566.000000	0.000000	136.000000	60.000000	-14.000000	0.000000
1.820000	27.970000	65.450000	566.000000	0.000000	136.000000	60.000000	0.000000	0.000000
1.830000	27.970000	65.230000	572.000000	0.000000	136.000000	60.000000	0.000000	-22.000000
1.840000	28.170000	64.930000	572.000000	0.000000	136.000000	60.000000	20.000000	-30.000000
1.850000	28.480000	64.580000	578.000000	0.000000	136.000000	60.000000	31.000000	-35.000000
1.860000	28.880000	64.360000	570.000000	0.000000	136.000000	60.000000	40.000000	-22.000000
1.870000	29.360000	64.300000	543.000000	0.000000	136.000000	60.000000	48.000000	-6.000000
1.880000	29.860000	64.360000	489.000000	0.000000	136.000000	60.000000	50.000000	6.000000
1.890000	30.380000	64.530000	442.000000	0.000000	136.000000	58.000000	52.000000	17.000000
1.900000	30.710000	64.690000	414.000000	0.000000	136.000000	58.000000	33.000000	16.000000
1.910000	30.910000	64.980000	417.000000	0.000000	136.000000	58.000000	20.000000	29.000000
1.920000	30.990000	65.370000	455.000000	0.000000	135.000000	58.000000	8.000000	39.000000
1.930000	30.840000	65.680000	494.000000	0.000000	135.000000	58.000000	-15.000000	31.000000
1.940000	30.530000	65.950000	551.000000	0.000000	135.000000	58.000000	-31.000000	27.000000
1.950000	30.050000	66.020000	577.000000	0.000000	135.000000	58.000000	-48.000000	7.000000
1.960000	29.530000	65.970000	622.000000	0.000000	134.000000	58.000000	-52.000000	-5.000000
1.970000	28.990000	65.810000	644.000000	0.000000	134.000000	58.000000	-54.000000	-16.000000
1.980000	28.700000	65.670000	641.000000	0.000000	134.000000	58.000000	-29.000000	-14.000000
1.990000	28.650000	65.550000	641.000000	0.000000	134.000000	58.000000	-5.000000	-12.000000
2.000000	28.750000	65.300000	650.000000	0.000000	134.000000	58.000000	10.000000	-25.000000
2.010000	29.170000	65.050000	652.000000	0.000000	134.000000	58.000000	42.000000	-25.000000
2.020000	29.800000	64.820000	644.000000	0.000000	134.000000	58.000000	63.000000	-23.000000
2.030000	30.560000	64.730000	586.000000	0.000000	134.000000	58.000000	76.000000	-9.000000
2.040000	31.250000	64.730000	414.000000	0.000000	134.000000	58.000000	69.000000	0.000000
2.050000	31.250000	64.730000	0.000000	1.000000	134.000000	58.000000	0.000000	0.000000
2.060000	32.140000	64.950000	0.000000	0.000000	135.000000	58.000000	89.000000	22.000000
2.070000	32.430000	65.270000	0.000000	0.000000	134.000000	57.000000	29.000000	32.000000
2.080000	32.620000	65.690000	0.000000	0.000000	134.000000	57.000000	19.000000	42.000000
2.090000	32.740000	66.170000	0.000000	0.000000	134.000000	57.000000	12.000000	48.000000
2.100000	33.100000	66.690000	0.000000	0.000000	135.000000	57.000000	36.000000	52.000000
2.110000	33.370000	67.180000	0.000000	0.000000	135.000000	57.000000	27.000000	49.000000
2.120000	33.580000	67.670000	0.000000	0.000000	135.000000	57.000000	21.000000	49.000000
2.130000	33.580000	67.670000	334.000000	1.000000	136.000000	56.000000	0.000000	0.000000
2.140000	33.650000	68.460000	433.000000	0.000000	136.000000	56.000000	7.000000	79.000000
2.150000	33.310000	68.650000	562.000000	0.000000	136.000000	56.000000	-34.000000	19.000000
2.160000	33.030000	68.650000	616.000000	0.000000	136.000000	56.000000	-28.000000	0.000000
2.170000	32.700000	68.530000	641.000000	0.000000	138.000000	55.000000	-33.000000	-12.000000
2.180000	32.330000	68.250000	645.000000	0.000000	136.000000	56.000000	-37.000000	-28.000000
2.190000	32.010000	67.800000	645.000000	0.000000	136.000000	56.000000	-32.000000	-45.000000
2.200000	32.010000	67.350000	645.000000	0.000000	136.000000	56.000000	0.000000	-45.000000
