t	x	y	pressure	penup	azimuth	inclination	v_x	v_y
0.000000	20.320000	82.280000	105.000000	1.000000	130.000000	62.000000	0.000000	0.000000
0.010000	20.320000	82.280000	299.000000	0.000000	133.000000	62.000000	0.000000	0.000000
0.020000	20.320000	82.280000	466.000000	0.000000	133.000000	62.000000	0.000000	0.000000
0.030000	20.040000	82.280000	595.000000	0.000000	135.000000	63.000000	-28.000000	0.000000
0.040000	19.530000	82.280000	673.000000	0.000000	137.000000	62.000000	-51.000000	0.000000
0.050000	18.850000	82.190000	705.000000	0.000000	138.000000	63.000000	-68.000000	-9.000000
0.060000	18.070000	82.060000	727.000000	0.000000	138.000000	63.000000	-78.000000	-13.000000
0.070000	17.040000	81.830000	754.000000	0.000000	138.000000	63.000000	-103.000000	-23.000000
0.080000	15.830000	81.500000	770.000000	0.000000	138.000000	63.000000	-121.000000	-33.000000
0.090000	14.510000	80.940000	777.000000	0.000000	137.000000	63.000000	-132.000000	-56.000000
0.100000	13.120000	80.230000	796.000000	0.000000	137.000000	63.000000	-139.000000	-71.000000
0.110000	11.670000	79.420000	791.000000	0.000000	137.000000	63.000000	-145.000000	-81.000000
0.120000	10.560000	78.610000	784.000000	0.000000	135.000000	64.000000	-111.000000	-81.000000
0.130000	10.030000	77.970000	787.000000	0.000000	135.000000	64.000000	-53.000000	-64.000000
0.140000	9.880000	77.440000	797.000000	0.000000	133.000000	65.000000	-15.000000	-53.000000
0.150000	10.010000	77.060000	783.000000	0.000000	132.000000	64.000000	13.000000	-38.000000
0.160000	10.370000	76.680000	785.000000	0.000000	130.000000	65.000000	36.000000	-38.000000
0.170000	10.890000	76.430000	800.000000	0.000000	130.000000	65.000000	52.000000	-25.000000
0.180000	11.860000	76.280000	827.000000	0.000000	129.000000	64.000000	97.000000	-15.000000
0.190000	13.280000	76.280000	846.000000	0.000000	129.000000	64.000000	142.000000	0.000000
0.200000	15.000000	76.550000	863.000000	0.000000	129.000000	64.000000	172.000000	27.000000
0.210000	17.700000	76.970000	873.000000	0.000000	130.000000	63.000000	270.000000	42.000000
0.220000	20.710000	77.490000	864.000000	0.000000	130.000000	63.000000	301.000000	52.000000
0.230000	23.920000	78.050000	863.000000	0.000000	132.000000	64.000000	321.000000	56.000000
0.240000	26.290000	78.630000	846.000000	0.000000	133.000000	63.000000	237.000000	58.000000
0.250000	28.010000	79.040000	828.000000	0.000000	137.000000	63.000000	172.000000	41.000000
0.260000	29.300000	79.280000	824.000000	0.000000	140.000000	63.000000	129.000000	24.000000
0.270000	29.940000	79.410000	800.000000	0.000000	141.000000	63.000000	64.000000	13.000000
0.280000	30.080000	79.410000	720.000000	0.000000	143.000000	63.000000	14.000000	0.000000
0.290000	29.880000	79.410000	450.000000	0.000000	144.000000	62.000000	-20.000000	0.000000
0.300000	29.880000	79.410000	0.000000	1.000000	146.000000	63.000000	0.000000	0.000000
0.310000	28.190000	79.300000	0.000000	0.000000	146.000000	63.000000	-169.000000	-11.000000
0.320000	26.760000	79.300000	0.000000	0.000000	146.000000	63.000000	-143.000000	0.000000
0.330000	24.780000	79.300000	0.000000	0.000000	146.000000	63.000000	-198.000000	0.000000
0.340000	22.820000	79.300000	0.000000	0.000000	146.000000	63.000000	-196.000000	0.000000
0.350000	20.900000	79.080000	0.000000	0.000000	146.000000	62.000000	-192.000000	-22.000000
0.360000	19.330000	78.810000	0.000000	0.000000	147.000000	61.000000	-157.000000	-27.000000
0.370000	18.000000	78.540000	0.000000	0.000000	146.000000	60.000000	-133.000000	-27.000000
0.380000	17.070000	78.290000	0.000000	0.000000	146.000000	58.000000	-93.000000	-25.000000
0.390000	16.190000	78.120000	0.000000	0.000000	144.000000	58.000000	-88.000000	-17.000000
0.400000	15.580000	78.010000	0.000000	0.000000	144.000000	58.000000	-61.000000	-11.000000
0.410000	15.140000	77.950000	0.000000	0.000000	144.000000	58.000000	-44.000000	-6.000000
0.420000	15.010000	78.040000	0.000000	0.000000	146.000000	58.000000	-13.000000	9.000000
0.430000	15.010000	78.170000	0.000000	0.000000	145.000000	59.000000	0.000000	13.000000
0.440000	15.100000	78.340000	0.000000	0.000000	145.000000	60.000000	9.000000	17.000000
0.450000	15.200000	78.440000	0.000000	0.000000	146.000000	62.000000	10.000000	10.000000
0.460000	15.300000	78.530000	0.000000	0.000000	146.000000	63.000000	10.000000	9.000000
0.470000	15.430000	78.600000	0.000000	0.000000	145.000000	64.000000	13.000000	7.000000
0.480000	15.560000	78.690000	0.000000	0.000000	146.000000	64.000000	13.000000	9.000000
0.490000	15.680000	78.770000	0.000000	0.000000	146.000000	64.000000	12.000000	8.000000
0.500000	15.750000	78.920000	0.000000	0.000000	146.000000	64.000000	7.000000	15.000000
0.510000	15.750000	79.120000	0.000000	0.000000	145.000000	65.000000	0.000000	20.000000
0.520000	15.750000	79.120000	163.000000	1.000000	145.000000	65.000000	0.000000	0.000000
0.530000	15.440000	79.310000	272.000000	0.000000	144.000000	66.000000	-31.000000	19.000000
0.540000	15.090000	79.370000	389.000000	0.000000	142.000000	66.000000	-35.000000	6.000000
0.550000	14.680000	79.370000	475.000000	0.000000	140.000000	66.000000	-41.000000	0.000000
0.560000	14.230000	79.270000	535.000000	0.000000	139.000000	67.000000	-45.000000	-10.000000
0.570000	13.800000	79.090000	564.000000	0.000000	137.000000	66.000000	-43.000000	-18.000000
0.580000	13.420000	78.860000	605.000000	0.000000	133.000000	66.000000	-38.000000	-23.000000
0.590000	13.250000	78.590000	620.000000	0.000000	133.000000	66.000000	-17.000000	-27.000000
0.600000	13.250000	78.270000	617.000000	0.000000	132.000000	65.000000	0.000000	-32.000000
0.610000	13.200000	77.920000	630.000000	0.000000	130.000000	65.000000	-5.000000	-35.000000
0.620000	13.360000	77.590000	631.000000	0.000000	130.000000	63.000000	16.000000	-33.000000
0.630000	13.640000	77.430000	638.000000	0.000000	130.000000	63.000000	28.000000	-16.000000
0.640000	14.220000	77.360000	636.000000	0.000000	130.000000	63.000000	58.000000	-7.000000
0.650000	14.820000	77.600000	624.000000	0.000000	129.000000	64.000000	60.000000	24.000000
0.660000	15.410000	77.900000	625.000000	0.000000	129.000000	64.000000	59.000000	30.000000
0.670000	15.760000	78.240000	630.000000	0.000000	129.000000	64.000000	35.000000	34.000000
0.680000	15.960000	78.570000	636.000000	0.000000	130.000000	65.000000	20.000000	33.000000
0.690000	15.960000	78.990000	641.000000	0.000000	132.000000	65.000000	0.000000	42.000000
0.700000	15.850000	79.460000	643.000000	0.000000	133.000000	65.000000	-11.000000	47.000000
0.710000	15.680000	79.680000	643.000000	0.000000	135.000000	65.000000	-17.000000	22.000000
0.720000	15.530000	79.680000	640.000000	0.000000	135.000000	65.000000	-15.000000	0.000000
0.730000	15.430000	79.500000	641.000000	0.000000	135.000000	65.000000	-10.000000	-18.000000
0.740000	15.430000	78.980000	644.000000	0.000000	135.000000	65.000000	0.000000	-52.000000
0.750000	15.430000	78.490000	644.000000	0.000000	135.000000	65.000000	0.000000	-49.000000
0.760000	15.610000	78.030000	641.000000	0.000000	135.000000	65.000000	18.000000	-46.000000
0.770000	15.920000	77.740000	548.000000	0.000000	135.000000	65.000000	31.000000	-29.000000
0.780000	16.310000	77.640000	307.000000	0.000000	135.000000	65.000000	39.000000	-10.000000
0.790000	16.310000	77.640000	0.000000	1.000000	133.000000	65.000000	0.000000	0.000000
0.800000	17.100000	77.890000	0.000000	0.000000	133.000000	65.000000	79.000000	25.000000
0.810000	17.190000	78.240000	0.000000	0.000000	133.000000	65.000000	9.000000	35.000000
0.820000	17.130000	78.690000	0.000000	0.000000	132.000000	64.000000	-6.000000	45.000000
0.830000	17.040000	79.270000	0.000000	0.000000	132.000000	64.000000	-9.000000	58.000000
0.840000	17.040000	79.670000	0.000000	0.000000	130.000000	63.000000	0.000000	40.000000
0.850000	17.040000	79.940000	0.000000	0.000000	130.000000	63.000000	0.000000	27.000000
0.860000	17.040000	79.940000	287.000000	1.000000	130.000000	63.000000	0.000000	0.000000
0.870000	17.040000	79.940000	373.000000	0.000000	129.000000	63.000000	0.000000	0.000000
0.880000	17.300000	79.760000	464.000000	0.000000	129.000000	63.000000	26.000000	-18.000000
0.890000	17.470000	79.470000	529.000000	0.000000	127.000000	63.000000	17.000000	-29.000000
0.900000	17.680000	79.120000	563.000000	0.000000	129.000000	64.000000	21.000000	-35.000000
0.910000	17.880000	78.760000	570.000000	0.000000	129.000000	64.000000	20.000000	-36.000000
0.920000	17.990000	78.380000	574.000000	0.000000	130.000000	63.000000	11.000000	-38.000000
0.930000	18.050000	78.090000	570.000000	0.000000	132.000000	64.000000	6.000000	-29.000000
0.940000	18.050000	77.860000	536.000000	0.000000	132.000000	64.000000	0.000000	-23.000000
0.950000	18.050000	77.860000	520.000000	0.000000	133.000000	63.000000	0.000000	0.000000
0.960000	17.990000	78.050000	483.000000	0.000000	133.000000	63.000000	-6.000000	19.000000
0.970000	17.860000	78.360000	481.000000	0.000000	133.000000	63.000000	-13.000000	31.000000
0.980000	17.770000	79.020000	501.000000	0.000000	133.000000	63.000000	-9.000000	66.000000
0.990000	17.690000	79.670000	515.000000	0.000000	133.000000	63.000000	-8.000000	65.000000
1.000000	17.690000	80.050000	519.000000	0.000000	133.000000	63.000000	0.000000	38.000000
1.010000	17.860000	80.250000	518.000000	0.000000	133.000000	63.000000	17.000000	20.000000
1.020000	18.110000	80.250000	529.000000	0.000000	133.000000	63.000000	25.000000	0.000000
1.030000	18.380000	79.940000	537.000000	0.000000	133.000000	63.000000	27.000000	-31.000000
1.040000	18.750000	79.530000	564.000000	0.000000	133.000000	63.000000	37.000000	-41.000000
1.050000	19.190000	79.080000	584.000000	0.000000	133.000000	63.000000	44.000000	-45.000000
1.060000	19.680000	78.710000	616.000000	0.000000	133.000000	63.000000	49.000000	-37.000000
1.070000	20.240000	78.390000	620.000000	0.000000	133.000000	63.000000	56.000000	-32.000000
1.080000	20.890000	78.390000	628.000000	0.000000	133.000000	63.000000	65.000000	0.000000
1.090000	21.510000	78.550000	631.000000	0.000000	133.000000	62.000000	62.000000	16.000000
1.100000	21.880000	78.860000	637.000000	0.000000	133.000000	62.000000	37.000000	31.000000
1.110000	22.100000	79.180000	652.000000	0.000000	133.000000	62.000000	22.000000	32.000000
1.120000	22.050000	79.650000	685.000000	0.000000	135.000000	62.000000	-5.000000	47.000000
1.130000	21.750000	80.210000	691.000000	0.000000	134.000000	61.000000	-30.000000	56.000000
1.140000	21.270000	80.420000	694.000000	0.000000	134.000000	61.000000	-48.000000	21.000000
1.150000	20.630000	80.420000	644.000000	0.000000	132.000000	61.000000	-64.000000	0.000000
1.160000	19.920000	80.190000	527.000000	0.000000	132.000000	61.000000	-71.000000	-23.000000
1.170000	19.170000	79.970000	167.000000	0.000000	132.000000	61.000000	-75.000000	-22.000000
1.180000	19.170000	79.970000	0.000000	1.000000	130.000000	62.000000	0.000000	0.000000
1.190000	18.590000	79.730000	0.000000	0.000000	130.000000	62.000000	-58.000000	-24.000000
1.200000	18.660000	79.920000	0.000000	0.000000	129.000000	63.000000	7.000000	19.000000
1.210000	19.010000	80.260000	0.000000	0.000000	129.000000	63.000000	35.000000	34.000000
1.220000	19.620000	80.710000	0.000000	0.000000	129.000000	63.000000	61.000000	45.000000
1.230000	20.410000	81.200000	0.000000	0.000000	129.000000	63.000000	79.000000	49.000000
1.240000	21.000000	81.630000	0.000000	0.000000	129.000000	63.000000	59.000000	43.000000
1.250000	21.470000	82.090000	0.000000	0.000000	127.000000	62.000000	47.000000	46.000000
1.260000	21.850000	82.580000	0.000000	0.000000	127.000000	62.000000	38.000000	49.000000
1.270000	21.980000	82.860000	0.000000	0.000000	129.000000	61.000000	13.000000	28.000000
1.280000	21.980000	82.860000	362.000000	1.000000	129.000000	61.000000	0.000000	0.000000
1.290000	21.980000	82.860000	464.000000	0.000000	131.000000	61.000000	0.000000	0.000000
1.300000	21.730000	82.890000	546.000000	0.000000	132.000000	60.000000	-25.000000	3.000000
1.310000	21.790000	82.640000	625.000000	0.000000	134.000000	60.000000	6.000000	-25.000000
1.320000	21.940000	82.250000	658.000000	0.000000	135.000000	60.000000	15.000000	-39.000000
1.330000	22.140000	81.620000	664.000000	0.000000	135.000000	60.000000	20.000000	-63.000000
1.340000	22.370000	80.980000	669.000000	0.000000	136.000000	60.000000	23.000000	-64.000000
1.350000	22.660000	80.300000	662.000000	0.000000	135.000000	60.000000	29.000000	-68.000000
1.360000	22.880000	79.800000	588.000000	0.000000	135.000000	60.000000	22.000000	-50.000000
1.370000	23.050000	79.420000	317.000000	0.000000	135.000000	60.000000	17.000000	-38.000000
1.380000	23.050000	79.420000	0.000000	1.000000	132.000000	60.000000	0.000000	0.000000
1.390000	23.270000	79.470000	0.000000	0.000000	132.000000	60.000000	22.000000	5.000000
1.400000	23.270000	79.880000	0.000000	0.000000	131.000000	61.000000	0.000000	41.000000
1.410000	23.160000	80.570000	0.000000	0.000000	131.000000	61.000000	-11.000000	69.000000
1.420000	23.160000	81.220000	0.000000	0.000000	132.000000	61.000000	0.000000	65.000000
1.430000	23.310000	81.490000	0.000000	0.000000	132.000000	61.000000	15.000000	27.000000
1.440000	23.310000	81.490000	277.000000	1.000000	132.000000	61.000000	0.000000	0.000000
1.450000	23.310000	81.490000	371.000000	0.000000	132.000000	61.000000	0.000000	0.000000
1.460000	23.310000	81.490000	538.000000	0.000000	132.000000	61.000000	0.000000	0.000000
1.470000	23.610000	81.250000	617.000000	0.000000	132.000000	61.000000	30.000000	-24.000000
1.480000	23.770000	80.960000	664.000000	0.000000	134.000000	61.000000	16.000000	-29.000000
1.490000	23.960000	80.590000	690.000000	0.000000	134.000000	61.000000	19.000000	-37.000000
1.500000	24.230000	80.220000	694.000000	0.000000	134.000000	61.000000	27.000000	-37.000000
1.510000	24.500000	79.880000	673.000000	0.000000	135.000000	60.000000	27.000000	-34.000000
1.520000	24.770000	79.670000	560.000000	0.000000	135.000000	60.000000	27.000000	-21.000000
1.530000	24.990000	79.530000	255.000000	0.000000	134.000000	61.000000	22.000000	-14.000000
1.540000	24.990000	79.530000	0.000000	1.000000	134.000000	61.000000	0.000000	0.000000
1.550000	25.070000	79.910000	0.000000	0.000000	134.000000	61.000000	8.000000	38.000000
1.560000	24.780000	80.410000	0.000000	0.000000	134.000000	61.000000	-29.000000	50.000000
1.570000	24.490000	81.200000	0.000000	0.000000	135.000000	62.000000	-29.000000	79.000000
1.580000	24.190000	81.980000	0.000000	0.000000	135.000000	62.000000	-30.000000	78.000000
1.590000	24.110000	82.330000	0.000000	0.000000	135.000000	62.000000	-8.000000	35.000000
1.600000	24.110000	82.330000	175.000000	1.000000	135.000000	62.000000	0.000000	0.000000
1.610000	24.250000	82.730000	191.000000	0.000000	135.000000	62.000000	14.000000	40.000000
1.620000	24.250000	82.810000	220.000000	0.000000	135.000000	62.000000	0.000000	8.000000
1.630000	24.340000	82.730000	207.000000	0.000000	135.000000	62.000000	9.000000	-8.000000
1.640000	24.480000	82.570000	132.000000	0.000000	135.000000	62.000000	14.000000	-16.000000
1.650000	24.480000	82.570000	0.000000	1.000000	136.000000	61.000000	0.000000	0.000000
1.660000	24.920000	82.150000	0.000000	0.000000	136.000000	61.000000	44.000000	-42.000000
1.670000	25.080000	82.040000	0.000000	0.000000	136.000000	61.000000	16.000000	-11.000000
1.680000	25.230000	82.040000	0.000000	0.000000	139.000000	61.000000	15.000000	0.000000
1.690000	25.430000	82.040000	0.000000	0.000000	139.000000	61.000000	20.000000	0.000000
1.700000	25.720000	82.040000	0.000000	0.000000	139.000000	61.000000	29.000000	0.000000
1.710000	25.980000	82.160000	0.000000	0.000000	141.000000	61.000000	26.000000	12.000000
1.720000	25.980000	82.160000	186.000000	1.000000	141.000000	61.000000	0.000000	0.000000
1.730000	25.980000	82.160000	309.000000	0.000000	141.000000	61.000000	0.000000	0.000000
1.740000	26.210000	81.850000	422.000000	0.000000	141.000000	61.000000	23.000000	-31.000000
1.750000	26.060000	81.730000	516.000000	0.000000	141.000000	61.000000	-15.000000	-12.000000
1.760000	26.060000	81.430000	566.000000	0.000000	141.000000	61.000000	0.000000	-30.000000
1.770000	26.060000	81.030000	603.000000	0.000000	141.000000	61.000000	0.000000	-40.000000
1.780000	26.180000	80.600000	619.000000	0.000000	141.000000	61.000000	12.000000	-43.000000
1.790000	26.390000	80.280000	638.000000	0.000000	141.000000	61.000000	21.000000	-32.000000
1.800000	26.860000	80.040000	639.000000	0.000000	141.000000	61.000000	47.000000	-24.000000
1.810000	27.330000	80.040000	636.000000	0.000000	141.000000	61.000000	47.000000	0.000000
1.820000	27.750000	80.150000	610.000000	0.000000	139.000000	61.000000	42.000000	11.000000
1.830000	28.130000	80.400000	592.000000	0.000000	139.000000	61.000000	38.000000	25.000000
1.840000	28.350000	80.760000	577.000000	0.000000	141.000000	61.000000	22.000000	36.000000
1.850000	28.410000	81.220000	578.000000	0.000000	141.000000	61.000000	6.000000	46.000000
1.860000	28.350000	81.740000	595.000000	0.000000	141.000000	61.000000	-6.000000	52.000000
1.870000	28.200000	82.030000	606.000000	0.000000	143.000000	62.000000	-15.000000	29.000000
1.880000	28.050000	82.110000	616.000000	0.000000	143.000000	62.000000	-15.000000	8.000000
1.890000	27.940000	82.040000	620.000000	0.000000	144.000000	62.000000	-11.000000	-7.000000
1.900000	27.870000	81.870000	613.000000	0.000000	144.000000	62.000000	-7.000000	-17.000000
1.910000	27.920000	81.580000	619.000000	0.000000	146.000000	62.000000	5.000000	-29.000000
1.920000	28.040000	81.210000	636.000000	0.000000	146.000000	62.000000	12.000000	-37.000000
1.930000	28.250000	80.910000	645.000000	0.000000	146.000000	62.000000	21.000000	-30.000000
1.940000	28.660000	80.700000	645.000000	0.000000	146.000000	62.000000	41.000000	-21.000000
1.950000	29.200000	80.560000	645.000000	0.000000	146.000000	62.000000	54.000000	-14.000000
1.960000	29.790000	80.560000	627.000000	0.000000	146.000000	62.000000	59.000000	0.000000
1.970000	30.350000	80.630000	586.000000	0.000000	146.000000	62.000000	56.000000	7.000000
1.980000	30.760000	80.800000	550.000000	0.000000	144.000000	61.000000	41.000000	17.000000
1.990000	31.070000	81.050000	544.000000	0.000000	144.000000	61.000000	31.000000	25.000000
2.000000	31.190000	81.420000	526.000000	0.000000	144.000000	61.000000	12.000000	37.000000
2.010000	31.190000	81.880000	546.000000	0.000000	144.000000	61.000000	0.000000	46.000000
2.020000	31.000000	82.400000	572.000000	0.000000	144.000000	61.000000	-19.000000	52.000000
2.030000	30.690000	82.660000	611.000000	0.000000	142.000000	61.000000	-31.000000	26.000000
2.040000	30.290000	82.740000	614.000000	0.000000	142.000000	61.000000	-40.000000	8.000000
2.050000	29.840000	82.660000	630.000000	0.000000	145.000000	60.000000	-45.000000	-8.000000
2.060000	29.270000	82.520000	645.000000	0.000000	145.000000	60.000000	-57.000000	-14.000000
2.070000	28.750000	82.290000	652.000000	0.000000	145.000000	60.000000	-52.000000	-23.000000
2.080000	28.490000	81.990000	661.000000	0.000000	145.000000	60.000000	-26.000000	-30.000000
2.090000	28.390000	81.660000	670.000000	0.000000	145.000000	60.000000	-10.000000	-33.000000
2.100000	28.390000	81.340000	673.000000	0.000000	144.000000	61.000000	0.000000	-32.000000
2.110000	28.680000	81.100000	667.000000	0.000000	144.000000	61.000000	29.000000	-24.000000
2.120000	29.150000	80.900000	669.000000	0.000000	144.000000	61.000000	47.000000	-20.000000
2.130000	29.770000	80.900000	673.000000	0.000000	144.000000	61.000000	62.000000	0.000000
2.140000	30.390000	80.950000	675.000000	0.000000	144.000000	61.000000	62.000000	5.000000
2.150000	30.910000	81.100000	676.000000	0.000000	144.000000	61.000000	52.000000	15.000000
2.160000	31.350000	81.160000	673.000000	0.000000	144.000000	61.000000	44.000000	6.000000
2.170000	31.670000	81.160000	669.000000	0.000000	144.000000	61.000000	32.000000	0.000000
2.180000	31.820000	81.160000	642.000000	0.000000	142.000000	61.000000	15.000000	0.000000
2.190000	31.820000	81.160000	496.000000	0.000000	142.000000	61.000000	0.000000	0.000000
2.200000	31.820000	81.160000	30.000000	0.000000	142.000000	61.000000	0.000000	0.000000
2.210000	31.820000	81.160000	0.000000	1.000000	144.000000	60.000000	0.000000	0.000000
