t	x	y	pressure	penup	azimuth	inclination	v_x	v_y
0.000000	16.110000	17.810000	139.000000	1.000000	178.000000	47.000000	0.000000	0.000000
0.010000	16.270000	18.780000	251.000000	0.000000	178.000000	48.000000	16.000000	97.000000
0.020000	16.060000	19.010000	287.000000	0.000000	176.000000	50.000000	-21.000000	23.000000
0.030000	15.960000	19.010000	289.000000	0.000000	176.000000	52.000000	-10.000000	0.000000
0.040000	15.960000	18.830000	371.000000	0.000000	177.000000	54.000000	0.000000	-18.000000
0.050000	15.800000	18.290000	440.000000	0.000000	177.000000	55.000000	-16.000000	-54.000000
0.060000	15.630000	17.160000	495.000000	0.000000	179.000000	55.000000	-17.000000	-113.000000
0.070000	15.450000	15.630000	522.000000	0.000000	180.000000	55.000000	-18.000000	-153.000000
0.080000	15.270000	13.820000	527.000000	0.000000	180.000000	54.000000	-18.000000	-181.000000
0.090000	15.180000	11.970000	532.000000	0.000000	180.000000	53.000000	-9.000000	-185.000000
0.100000	15.180000	10.520000	533.000000	0.000000	181.000000	52.000000	0.000000	-145.000000
0.110000	15.390000	9.340000	530.000000	0.000000	181.000000	51.000000	21.000000	-118.000000
0.120000	15.810000	8.460000	518.000000	0.000000	181.000000	50.000000	42.000000	-88.000000
0.130000	16.350000	7.790000	512.000000	0.000000	181.000000	49.000000	54.000000	-67.000000
0.140000	16.870000	7.270000	497.000000	0.000000	181.000000	49.000000	52.000000	-52.000000
0.150000	17.240000	7.110000	498.000000	0.000000	180.000000	49.000000	37.000000	-16.000000
0.160000	17.500000	7.210000	491.000000	0.000000	179.000000	49.000000	26.000000	10.000000
0.170000	17.500000	7.490000	443.000000	0.000000	178.000000	49.000000	0.000000	28.000000
0.180000	17.120000	8.180000	423.000000	0.000000	177.000000	48.000000	-38.000000	69.000000
0.190000	16.440000	8.970000	433.000000	0.000000	176.000000	48.000000	-68.000000	79.000000
0.200000	15.370000	9.830000	456.000000	0.000000	174.000000	48.000000	-107.000000	86.000000
0.210000	14.150000	10.480000	486.000000	0.000000	174.000000	48.000000	-122.000000	65.000000
0.220000	12.830000	10.860000	498.000000	0.000000	174.000000	48.000000	-132.000000	38.000000
0.230000	11.460000	11.060000	512.000000	0.000000	176.000000	48.000000	-137.000000	20.000000
0.240000	10.110000	11.110000	516.000000	0.000000	177.000000	48.000000	-135.000000	5.000000
0.250000	9.280000	11.010000	524.000000	0.000000	178.000000	47.000000	-83.000000	-10.000000
0.260000	8.770000	10.810000	522.000000	0.000000	180.000000	47.000000	-51.000000	-20.000000
0.270000	8.920000	10.630000	527.000000	0.000000	180.000000	46.000000	15.000000	-18.000000
0.280000	9.960000	10.390000	536.000000	0.000000	180.000000	46.000000	104.000000	-24.000000
0.290000	11.600000	10.070000	564.000000	0.000000	180.000000	46.000000	164.000000	-32.000000
0.300000	14.200000	9.890000	569.000000	0.000000	180.000000	45.000000	260.000000	-18.000000
0.310000	17.430000	9.810000	580.000000	0.000000	180.000000	46.000000	323.000000	-8.000000
0.320000	21.080000	9.810000	603.000000	0.000000	179.000000	46.000000	365.000000	0.000000
0.330000	24.540000	9.760000	606.000000	0.000000	178.000000	47.000000	346.000000	-5.000000
0.340000	27.460000	9.760000	609.000000	0.000000	175.000000	49.000000	292.000000	0.000000
0.350000	30.030000	9.890000	606.000000	0.000000	174.000000	50.000000	257.000000	13.000000
0.360000	31.560000	9.970000	567.000000	0.000000	173.000000	51.000000	153.000000	8.000000
0.370000	32.140000	10.030000	415.000000	0.000000	171.000000	53.000000	58.000000	6.000000
0.380000	32.140000	10.030000	0.000000	1.000000	169.000000	53.000000	0.000000	0.000000
0.390000	31.160000	10.190000	0.000000	0.000000	167.000000	54.000000	-98.000000	16.000000
0.400000	29.560000	10.360000	0.000000	0.000000	166.000000	54.000000	-160.000000	17.000000
0.410000	27.510000	10.680000	0.000000	0.000000	165.000000	55.000000	-205.000000	32.000000
0.420000	25.180000	11.000000	0.000000	0.000000	166.000000	54.000000	-233.000000	32.000000
0.430000	23.180000	11.310000	0.000000	0.000000	164.000000	54.000000	-200.000000	31.000000
0.440000	21.410000	11.780000	0.000000	0.000000	165.000000	53.000000	-177.000000	47.000000
0.450000	19.960000	12.240000	0.000000	0.000000	165.000000	51.000000	-145.000000	46.000000
0.460000	19.020000	12.710000	0.000000	0.000000	165.000000	50.000000	-94.000000	47.000000
0.470000	18.410000	13.160000	0.000000	0.000000	165.000000	48.000000	-61.000000	45.000000
0.480000	17.910000	13.540000	0.000000	0.000000	165.000000	46.000000	-50.000000	38.000000
0.490000	17.430000	13.730000	0.000000	0.000000	166.000000	45.000000	-48.000000	19.000000
0.500000	17.010000	13.810000	0.000000	0.000000	165.000000	44.000000	-42.000000	8.000000
0.510000	16.820000	13.810000	0.000000	0.000000	165.000000	43.000000	-19.000000	0.000000
0.520000	16.770000	13.810000	0.000000	0.000000	165.000000	42.000000	-5.000000	0.000000
0.530000	16.910000	13.930000	0.000000	0.000000	164.000000	42.000000	14.000000	12.000000
0.540000	17.100000	14.090000	0.000000	0.000000	164.000000	41.000000	19.000000	16.000000
0.550000	17.360000	14.430000	0.000000	0.000000	164.000000	41.000000	26.000000	34.000000
0.560000	17.660000	14.910000	0.000000	0.000000	164.000000	41.000000	30.000000	48.000000
0.570000	17.860000	15.490000	0.000000	0.000000	163.000000	41.000000	20.000000	58.000000
0.580000	17.990000	16.090000	0.000000	0.000000	164.000000	41.000000	13.000000	60.000000
0.590000	18.080000	16.670000	0.000000	0.000000	163.000000	42.000000	9.000000	58.000000
0.600000	18.190000	17.200000	0.000000	0.000000	163.000000	43.000000	11.000000	53.000000
0.610000	18.310000	17.670000	0.000000	0.000000	162.000000	45.000000	12.000000	47.000000
0.620000	18.310000	17.670000	61.000000	1.000000	161.000000	46.000000	0.000000	0.000000
0.630000	18.430000	18.020000	151.000000	0.000000	161.000000	48.000000	12.000000	35.000000
0.640000	18.430000	18.020000	191.000000	0.000000	161.000000	50.000000	0.000000	0.000000
0.650000	18.430000	17.550000	246.000000	0.000000	160.000000	51.000000	0.000000	-47.000000
0.660000	18.320000	16.790000	280.000000	0.000000	161.000000	52.000000	-11.000000	-76.000000
0.670000	18.180000	15.680000	289.000000	0.000000	161.000000	52.000000	-14.000000	-111.000000
0.680000	18.180000	14.450000	302.000000	0.000000	162.000000	53.000000	0.000000	-123.000000
0.690000	18.180000	13.140000	309.000000	0.000000	163.000000	52.000000	0.000000	-131.000000
0.700000	18.270000	11.960000	305.000000	0.000000	165.000000	51.000000	9.000000	-118.000000
0.710000	18.410000	11.250000	325.000000	0.000000	165.000000	51.000000	14.000000	-71.000000
0.720000	18.550000	10.860000	376.000000	0.000000	165.000000	50.000000	14.000000	-39.000000
0.730000	18.670000	10.860000	481.000000	0.000000	166.000000	49.000000	12.000000	0.000000
0.740000	18.730000	11.170000	491.000000	0.000000	166.000000	49.000000	6.000000	31.000000
0.750000	18.730000	11.710000	501.000000	0.000000	165.000000	50.000000	0.000000	54.000000
0.760000	18.940000	13.120000	504.000000	0.000000	165.000000	50.000000	21.000000	141.000000
0.770000	19.140000	14.650000	491.000000	0.000000	165.000000	50.000000	20.000000	153.000000
0.780000	19.380000	16.250000	475.000000	0.000000	164.000000	50.000000	24.000000	160.000000
0.790000	19.610000	17.700000	486.000000	0.000000	164.000000	51.000000	23.000000	145.000000
0.800000	19.610000	18.610000	496.000000	0.000000	162.000000	51.000000	0.000000	91.000000
0.810000	19.530000	19.160000	512.000000	0.000000	162.000000	52.000000	-8.000000	55.000000
0.820000	19.420000	19.160000	513.000000	0.000000	160.000000	51.000000	-11.000000	0.000000
0.830000	19.330000	19.160000	513.000000	0.000000	160.000000	52.000000	-9.000000	0.000000
0.840000	19.260000	18.860000	516.000000	0.000000	158.000000	53.000000	-7.000000	-30.000000
0.850000	19.260000	18.310000	516.000000	0.000000	157.000000	54.000000	0.000000	-55.000000
0.860000	19.200000	17.280000	518.000000	0.000000	157.000000	54.000000	-6.000000	-103.000000
0.870000	19.290000	15.980000	518.000000	0.000000	156.000000	53.000000	9.000000	-130.000000
0.880000	19.450000	14.490000	516.000000	0.000000	156.000000	53.000000	16.000000	-149.000000
0.890000	19.710000	13.210000	522.000000	0.000000	158.000000	52.000000	26.000000	-128.000000
0.900000	19.980000	12.220000	517.000000	0.000000	159.000000	51.000000	27.000000	-99.000000
0.910000	20.300000	11.420000	514.000000	0.000000	159.000000	51.000000	32.000000	-80.000000
0.920000	20.680000	11.170000	517.000000	0.000000	161.000000	50.000000	38.000000	-25.000000
0.930000	20.800000	11.170000	522.000000	0.000000	161.000000	50.000000	12.000000	0.000000
0.940000	20.740000	11.280000	521.000000	0.000000	162.000000	51.000000	-6.000000	11.000000
0.950000	20.920000	12.020000	518.000000	0.000000	162.000000	51.000000	18.000000	74.000000
0.960000	21.120000	12.860000	513.000000	0.000000	164.000000	51.000000	20.000000	84.000000
0.970000	21.350000	13.770000	516.000000	0.000000	164.000000	51.000000	23.000000	91.000000
0.980000	21.570000	14.210000	515.000000	0.000000	164.000000	51.000000	22.000000	44.000000
0.990000	21.630000	14.360000	516.000000	0.000000	164.000000	51.000000	6.000000	15.000000
1.000000	21.570000	14.310000	518.000000	0.000000	162.000000	51.000000	-6.000000	-5.000000
1.010000	21.570000	14.250000	518.000000	0.000000	162.000000	51.000000	0.000000	-6.000000
1.020000	21.470000	13.910000	518.000000	0.000000	162.000000	51.000000	-10.000000	-34.000000
1.030000	21.360000	13.380000	519.000000	0.000000	162.000000	51.000000	-11.000000	-53.000000
1.040000	21.360000	12.540000	521.000000	0.000000	162.000000	51.000000	0.000000	-84.000000
1.050000	21.420000	11.700000	524.000000	0.000000	162.000000	51.000000	6.000000	-84.000000
1.060000	21.580000	10.850000	527.000000	0.000000	162.000000	51.000000	16.000000	-85.000000
1.070000	21.870000	10.320000	527.000000	0.000000	164.000000	51.000000	29.000000	-53.000000
1.080000	22.250000	10.010000	529.000000	0.000000	164.000000	51.000000	38.000000	-31.000000
1.090000	22.650000	9.860000	529.000000	0.000000	163.000000	52.000000	40.000000	-15.000000
1.100000	23.020000	10.020000	529.000000	0.000000	163.000000	52.000000	37.000000	16.000000
1.110000	23.330000	10.370000	529.000000	0.000000	163.000000	52.000000	31.000000	35.000000
1.120000	23.610000	10.840000	527.000000	0.000000	162.000000	52.000000	28.000000	47.000000
1.130000	23.840000	11.440000	529.000000	0.000000	162.000000	52.000000	23.000000	60.000000
1.140000	23.900000	12.030000	529.000000	0.000000	161.000000	52.000000	6.000000	59.000000
1.150000	23.840000	12.620000	542.000000	0.000000	161.000000	52.000000	-6.000000	59.000000
1.160000	23.730000	12.820000	556.000000	0.000000	161.000000	52.000000	-11.000000	20.000000
1.170000	23.620000	12.970000	565.000000	0.000000	161.000000	52.000000	-11.000000	15.000000
1.180000	23.460000	12.970000	568.000000	0.000000	161.000000	52.000000	-16.000000	0.000000
1.190000	23.270000	12.800000	561.000000	0.000000	161.000000	52.000000	-19.000000	-17.000000
1.200000	23.080000	12.480000	561.000000	0.000000	161.000000	52.000000	-19.000000	-32.000000
1.210000	22.890000	11.840000	564.000000	0.000000	161.000000	52.000000	-19.000000	-64.000000
1.220000	22.890000	11.170000	564.000000	0.000000	161.000000	52.000000	0.000000	-67.000000
1.230000	22.990000	10.640000	563.000000	0.000000	161.000000	52.000000	10.000000	-53.000000
1.240000	23.240000	10.200000	556.000000	0.000000	161.000000	52.000000	25.000000	-44.000000
1.250000	23.530000	9.940000	553.000000	0.000000	162.000000	52.000000	29.000000	-26.000000
1.260000	23.880000	9.890000	553.000000	0.000000	161.000000	52.000000	35.000000	-5.000000
1.270000	24.220000	9.970000	556.000000	0.000000	161.000000	52.000000	34.000000	8.000000
1.280000	24.480000	10.310000	562.000000	0.000000	162.000000	53.000000	26.000000	34.000000
1.290000	24.690000	10.900000	564.000000	0.000000	162.000000	53.000000	21.000000	59.000000
1.300000	24.800000	11.650000	565.000000	0.000000	162.000000	53.000000	11.000000	75.000000
1.310000	24.800000	12.620000	565.000000	0.000000	162.000000	53.000000	0.000000	97.000000
1.320000	24.800000	13.280000	561.000000	0.000000	162.000000	53.000000	0.000000	66.000000
1.330000	24.610000	13.740000	514.000000	0.000000	162.000000	53.000000	-19.000000	46.000000
1.340000	24.310000	13.890000	448.000000	0.000000	162.000000	53.000000	-30.000000	15.000000
1.350000	23.920000	13.780000	246.000000	0.000000	162.000000	53.000000	-39.000000	-11.000000
1.360000	23.920000	13.780000	0.000000	1.000000	162.000000	53.000000	0.000000	0.000000
1.370000	23.340000	12.970000	0.000000	0.000000	161.000000	52.000000	-58.000000	-81.000000
1.380000	23.340000	12.490000	0.000000	0.000000	161.000000	52.000000	0.000000	-48.000000
1.390000	23.570000	12.030000	0.000000	0.000000	162.000000	52.000000	23.000000	-46.000000
1.400000	24.110000	11.640000	0.000000	0.000000	162.000000	52.000000	54.000000	-39.000000
1.410000	24.670000	11.410000	0.000000	0.000000	162.000000	51.000000	56.000000	-23.000000
1.420000	25.240000	11.300000	0.000000	0.000000	164.000000	51.000000	57.000000	-11.000000
1.430000	25.720000	11.410000	0.000000	0.000000	164.000000	51.000000	48.000000	11.000000
1.440000	26.150000	11.620000	0.000000	0.000000	164.000000	50.000000	43.000000	21.000000
1.450000	26.410000	11.910000	0.000000	0.000000	165.000000	50.000000	26.000000	29.000000
1.460000	26.520000	12.250000	0.000000	0.000000	167.000000	50.000000	11.000000	34.000000
1.470000	26.520000	12.580000	0.000000	0.000000	167.000000	49.000000	0.000000	33.000000
1.480000	26.520000	12.860000	0.000000	0.000000	167.000000	50.000000	0.000000	28.000000
1.490000	26.520000	12.860000	253.000000	1.000000	167.000000	50.000000	0.000000	0.000000
1.500000	26.350000	13.280000	315.000000	0.000000	167.000000	50.000000	-17.000000	42.000000
1.510000	26.260000	13.280000	333.000000	0.000000	166.000000	51.000000	-9.000000	0.000000
1.520000	26.260000	13.210000	398.000000	0.000000	166.000000	51.000000	0.000000	-7.000000
1.530000	26.260000	12.900000	450.000000	0.000000	166.000000	52.000000	0.000000	-31.000000
1.540000	26.190000	12.300000	473.000000	0.000000	165.000000	53.000000	-7.000000	-60.000000
1.550000	26.140000	11.510000	485.000000	0.000000	164.000000	53.000000	-5.000000	-79.000000
1.560000	26.140000	10.970000	489.000000	0.000000	164.000000	54.000000	0.000000	-54.000000
1.570000	26.140000	10.550000	494.000000	0.000000	164.000000	54.000000	0.000000	-42.000000
1.580000	26.270000	10.200000	499.000000	0.000000	164.000000	54.000000	13.000000	-35.000000
1.590000	26.320000	10.100000	529.000000	0.000000	164.000000	54.000000	5.000000	-10.000000
1.600000	26.320000	10.100000	599.000000	0.000000	164.000000	54.000000	0.000000	0.000000
1.610000	26.320000	10.180000	647.000000	0.000000	164.000000	54.000000	0.000000	8.000000
1.620000	26.320000	10.450000	664.000000	0.000000	164.000000	54.000000	0.000000	27.000000
1.630000	26.260000	11.040000	664.000000	0.000000	164.000000	54.000000	-6.000000	59.000000
1.640000	26.380000	11.850000	670.000000	0.000000	166.000000	54.000000	12.000000	81.000000
1.650000	26.540000	12.760000	667.000000	0.000000	166.000000	54.000000	16.000000	91.000000
1.660000	26.750000	13.530000	670.000000	0.000000	166.000000	54.000000	21.000000	77.000000
1.670000	26.980000	13.970000	670.000000	0.000000	166.000000	54.000000	23.000000	44.000000
1.680000	27.190000	14.250000	650.000000	0.000000	164.000000	54.000000	21.000000	28.000000
1.690000	27.330000	14.300000	617.000000	0.000000	163.000000	54.000000	14.000000	5.000000
1.700000	27.420000	14.150000	572.000000	0.000000	162.000000	54.000000	9.000000	-15.000000
1.710000	27.660000	13.870000	445.000000	0.000000	162.000000	53.000000	24.000000	-28.000000
1.720000	27.930000	13.270000	301.000000	0.000000	162.000000	54.000000	27.000000	-60.000000
1.730000	28.270000	12.650000	61.000000	0.000000	160.000000	53.000000	34.000000	-62.000000
1.740000	28.270000	12.650000	0.000000	1.000000	160.000000	53.000000	0.000000	0.000000
1.750000	28.900000	11.360000	0.000000	0.000000	160.000000	53.000000	63.000000	-129.000000
1.760000	29.110000	11.070000	0.000000	0.000000	162.000000	54.000000	21.000000	-29.000000
1.770000	29.280000	10.990000	0.000000	0.000000	163.000000	54.000000	17.000000	-8.000000
1.780000	29.390000	11.070000	0.000000	0.000000	163.000000	54.000000	11.000000	8.000000
1.790000	29.460000	11.290000	0.000000	0.000000	163.000000	54.000000	7.000000	22.000000
1.800000	29.510000	11.610000	0.000000	0.000000	163.000000	54.000000	5.000000	32.000000
1.810000	29.610000	12.010000	0.000000	0.000000	163.000000	54.000000	10.000000	40.000000
1.820000	29.610000	12.010000	142.000000	1.000000	163.000000	54.000000	0.000000	0.000000
1.830000	29.720000	12.770000	249.000000	0.000000	163.000000	54.000000	11.000000	76.000000
1.840000	29.720000	13.170000	391.000000	0.000000	163.000000	54.000000	0.000000	40.000000
1.850000	29.720000	13.170000	477.000000	0.000000	163.000000	54.000000	0.000000	0.000000
1.860000	29.770000	13.490000	522.000000	0.000000	163.000000	54.000000	5.000000	32.000000
1.870000	29.840000	13.440000	538.000000	0.000000	164.000000	55.000000	7.000000	-5.000000
1.880000	29.840000	13.330000	546.000000	0.000000	164.000000	55.000000	0.000000	-11.000000
1.890000	29.930000	12.880000	565.000000	0.000000	164.000000	55.000000	9.000000	-45.000000
1.900000	30.020000	12.230000	568.000000	0.000000	164.000000	55.000000	9.000000	-65.000000
1.910000	30.170000	11.560000	560.000000	0.000000	164.000000	55.000000	15.000000	-67.000000
1.920000	30.360000	11.080000	570.000000	0.000000	164.000000	55.000000	19.000000	-48.000000
1.930000	30.360000	10.720000	553.000000	0.000000	164.000000	55.000000	0.000000	-36.000000
1.940000	30.360000	10.530000	546.000000	0.000000	164.000000	55.000000	0.000000	-19.000000
1.950000	30.250000	10.440000	544.000000	0.000000	164.000000	55.000000	-11.000000	-9.000000
1.960000	30.140000	10.440000	541.000000	0.000000	164.000000	55.000000	-11.000000	0.000000
1.970000	29.940000	10.500000	541.000000	0.000000	164.000000	55.000000	-20.000000	6.000000
1.980000	29.670000	10.680000	541.000000	0.000000	164.000000	55.000000	-27.000000	18.000000
1.990000	29.320000	10.930000	540.000000	0.000000	165.000000	55.000000	-35.000000	25.000000
2.000000	29.000000	11.130000	548.000000	0.000000	165.000000	55.000000	-32.000000	20.000000
2.010000	28.600000	11.240000	561.000000	0.000000	165.000000	55.000000	-40.000000	11.000000
2.020000	28.120000	11.290000	595.000000	0.000000	165.000000	55.000000	-48.000000	5.000000
2.030000	27.800000	11.220000	602.000000	0.000000	165.000000	55.000000	-32.000000	-7.000000
2.040000	27.670000	11.140000	606.000000	0.000000	165.000000	55.000000	-13.000000	-8.000000
2.050000	27.670000	11.030000	611.000000	0.000000	165.000000	55.000000	0.000000	-11.000000
2.060000	27.740000	10.870000	627.000000	0.000000	165.000000	55.000000	7.000000	-16.000000
2.070000	28.110000	10.600000	644.000000	0.000000	165.000000	55.000000	37.000000	-27.000000
2.080000	28.670000	10.400000	636.000000	0.000000	165.000000	55.000000	56.000000	-20.000000
2.090000	29.260000	10.250000	637.000000	0.000000	165.000000	55.000000	59.000000	-15.000000
2.100000	29.830000	10.250000	636.000000	0.000000	165.000000	55.000000	57.000000	0.000000
2.110000	30.300000	10.320000	638.000000	0.000000	165.000000	55.000000	47.000000	7.000000
2.120000	30.720000	10.450000	643.000000	0.000000	165.000000	55.000000	42.000000	13.000000
2.130000	30.950000	10.650000	643.000000	0.000000	165.000000	55.000000	23.000000	20.000000
2.140000	31.070000	10.930000	652.000000	0.000000	165.000000	55.000000	12.000000	28.000000
2.150000	31.070000	11.270000	668.000000	0.000000	165.000000	55.000000	0.000000	34.000000
2.160000	31.070000	11.690000	669.000000	0.000000	165.000000	56.000000	0.000000	42.000000
2.170000	31.070000	12.060000	694.000000	0.000000	163.000000	56.000000	0.000000	37.000000
2.180000	31.130000	12.400000	703.000000	0.000000	163.000000	56.000000	6.000000	34.000000
2.190000	31.130000	12.400000	705.000000	0.000000	163.000000	56.000000	0.000000	0.000000
2.200000	31.130000	12.350000	711.000000	0.000000	163.000000	56.000000	0.000000	-5.000000
2.210000	31.130000	11.960000	722.000000	0.000000	163.000000	56.000000	0.000000	-39.000000
