t	x	y	pressure	penup	azimuth	inclination	v_x	v_y
0.000000	12.640000	27.750000	1.000000	1.000000	133.000000	63.000000	0.000000	0.000000
0.010000	13.090000	27.300000	15.000000	1.000000	135.000000	63.000000	0.000000	0.000000
0.020000	13.290000	27.240000	50.000000	0.000000	133.000000	62.000000	20.000000	-6.000000
0.030000	13.590000	27.240000	105.000000	0.000000	132.000000	61.000000	30.000000	0.000000
0.040000	13.920000	27.330000	153.000000	0.000000	132.000000	61.000000	33.000000	9.000000
0.050000	14.280000	27.540000	173.000000	0.000000	132.000000	61.000000	36.000000	21.000000
0.060000	14.690000	27.980000	203.000000	0.000000	132.000000	60.000000	41.000000	44.000000
0.070000	15.130000	28.440000	206.000000	0.000000	132.000000	60.000000	44.000000	46.000000
0.080000	15.550000	28.910000	228.000000	0.000000	132.000000	60.000000	42.000000	47.000000
0.090000	15.750000	29.570000	245.000000	0.000000	135.000000	60.000000	20.000000	66.000000
0.100000	15.830000	30.040000	284.000000	0.000000	135.000000	60.000000	8.000000	47.000000
0.110000	15.600000	30.390000	311.000000	0.000000	135.000000	60.000000	-23.000000	35.000000
0.120000	15.130000	30.600000	344.000000	0.000000	138.000000	60.000000	-47.000000	21.000000
0.130000	14.490000	30.600000	362.000000	0.000000	138.000000	60.000000	-64.000000	0.000000
0.140000	13.790000	30.600000	391.000000	0.000000	138.000000	60.000000	-70.000000	0.000000
0.150000	13.120000	30.360000	405.000000	0.000000	139.000000	60.000000	-67.000000	-24.000000
0.160000	12.480000	30.010000	413.000000	0.000000	139.000000	60.000000	-64.000000	-35.000000
0.170000	12.220000	29.560000	409.000000	0.000000	138.000000	59.000000	-26.000000	-45.000000
0.180000	12.220000	28.930000	407.000000	0.000000	139.000000	58.000000	0.000000	-63.000000
0.190000	12.460000	28.120000	407.000000	0.000000	138.000000	58.000000	24.000000	-81.000000
0.200000	12.970000	27.180000	404.000000	0.000000	136.000000	58.000000	51.000000	-94.000000
0.210000	13.500000	26.440000	405.000000	0.000000	136.000000	58.000000	53.000000	-74.000000
0.220000	14.090000	25.790000	404.000000	0.000000	136.000000	58.000000	59.000000	-65.000000
0.230000	14.480000	25.190000	405.000000	0.000000	135.000000	59.000000	39.000000	-60.000000
0.240000	14.740000	24.730000	412.000000	0.000000	136.000000	60.000000	26.000000	-46.000000
0.250000	14.740000	24.300000	415.000000	0.000000	135.000000	60.000000	0.000000	-43.000000
0.260000	14.340000	23.890000	415.000000	0.000000	135.000000	60.000000	-40.000000	-41.000000
0.270000	13.760000	23.430000	425.000000	0.000000	136.000000	61.000000	-58.000000	-46.000000
0.280000	12.840000	22.970000	448.000000	0.000000	136.000000	61.000000	-92.000000	-46.000000
0.290000	11.420000	22.390000	475.000000	0.000000	136.000000	61.000000	-142.000000	-58.000000
0.300000	9.670000	21.730000	495.000000	0.000000	138.000000	61.000000	-175.000000	-66.000000
0.310000	8.130000	21.290000	491.000000	0.000000	141.000000	61.000000	-154.000000	-44.000000
0.320000	7.090000	21.060000	518.000000	0.000000	142.000000	61.000000	-104.000000	-23.000000
0.330000	6.370000	20.970000	545.000000	0.000000	144.000000	61.000000	-72.000000	-9.000000
0.340000	6.270000	21.020000	551.000000	0.000000	144.000000	61.000000	-10.000000	5.000000
0.350000	6.900000	21.400000	554.000000	0.000000	147.000000	61.000000	63.000000	38.000000
0.360000	8.020000	22.000000	570.000000	0.000000	148.000000	61.000000	112.000000	60.000000
0.370000	10.100000	23.030000	575.000000	0.000000	148.000000	61.000000	208.000000	103.000000
0.380000	12.620000	24.100000	594.000000	0.000000	147.000000	62.000000	252.000000	107.000000
0.390000	15.440000	25.200000	641.000000	0.000000	146.000000	62.000000	282.000000	110.000000
0.400000	18.610000	26.470000	652.000000	0.000000	146.000000	62.000000	317.000000	127.000000
0.410000	22.140000	27.760000	667.000000	0.000000	144.000000	62.000000	353.000000	129.000000
0.420000	25.900000	29.070000	676.000000	0.000000	143.000000	62.000000	376.000000	131.000000
0.430000	29.190000	30.160000	671.000000	0.000000	141.000000	61.000000	329.000000	109.000000
0.440000	31.750000	30.950000	630.000000	0.000000	141.000000	61.000000	256.000000	79.000000
0.450000	33.820000	31.550000	537.000000	0.000000	139.000000	61.000000	207.000000	60.000000
0.460000	34.990000	31.970000	294.000000	0.000000	141.000000	60.000000	117.000000	42.000000
0.470000	34.990000	31.970000	0.000000	1.000000	141.000000	60.000000	0.000000	0.000000
0.480000	34.560000	31.960000	0.000000	0.000000	141.000000	60.000000	-43.000000	-1.000000
0.490000	32.860000	31.520000	0.000000	0.000000	141.000000	59.000000	-170.000000	-44.000000
0.500000	30.440000	30.900000	0.000000	0.000000	141.000000	59.000000	-242.000000	-62.000000
0.510000	27.540000	30.170000	0.000000	0.000000	141.000000	59.000000	-290.000000	-73.000000
0.520000	24.410000	29.140000	0.000000	0.000000	138.000000	59.000000	-313.000000	-103.000000
0.530000	21.570000	28.300000	0.000000	0.000000	136.000000	58.000000	-284.000000	-84.000000
0.540000	18.930000	27.590000	0.000000	0.000000	136.000000	58.000000	-264.000000	-71.000000
0.550000	16.840000	26.820000	0.000000	0.000000	134.000000	58.000000	-209.000000	-77.000000
0.560000	15.380000	26.270000	0.000000	0.000000	135.000000	58.000000	-146.000000	-55.000000
0.570000	14.330000	25.880000	0.000000	0.000000	135.000000	58.000000	-105.000000	-39.000000
0.580000	13.790000	25.490000	0.000000	0.000000	138.000000	58.000000	-54.000000	-39.000000
0.590000	13.710000	25.230000	0.000000	0.000000	139.000000	58.000000	-8.000000	-26.000000
0.600000	13.940000	25.070000	0.000000	0.000000	142.000000	58.000000	23.000000	-16.000000
0.610000	14.380000	25.070000	0.000000	0.000000	143.000000	59.000000	44.000000	0.000000
0.620000	14.860000	25.280000	0.000000	0.000000	147.000000	59.000000	48.000000	21.000000
0.630000	15.380000	25.530000	0.000000	0.000000	149.000000	59.000000	52.000000	25.000000
0.640000	15.910000	25.840000	0.000000	0.000000	148.000000	60.000000	53.000000	31.000000
0.650000	16.390000	26.130000	0.000000	0.000000	147.000000	61.000000	48.000000	29.000000
0.660000	16.720000	26.380000	0.000000	0.000000	144.000000	61.000000	33.000000	25.000000
0.670000	16.950000	26.510000	0.000000	0.000000	141.000000	60.000000	23.000000	13.000000
0.680000	16.950000	26.580000	0.000000	0.000000	138.000000	60.000000	0.000000	7.000000
0.690000	16.850000	26.690000	0.000000	0.000000	136.000000	60.000000	-10.000000	11.000000
0.700000	16.730000	26.860000	0.000000	0.000000	135.000000	59.000000	-12.000000	17.000000
0.710000	16.580000	27.070000	0.000000	0.000000	134.000000	58.000000	-15.000000	21.000000
0.720000	16.460000	27.290000	0.000000	0.000000	131.000000	58.000000	-12.000000	22.000000
0.730000	16.460000	27.500000	0.000000	0.000000	131.000000	58.000000	0.000000	21.000000
0.740000	16.510000	27.700000	0.000000	0.000000	130.000000	58.000000	5.000000	20.000000
0.750000	16.510000	27.880000	0.000000	0.000000	130.000000	58.000000	0.000000	18.000000
0.760000	16.510000	27.880000	91.000000	1.000000	130.000000	58.000000	0.000000	0.000000
0.770000	16.510000	27.880000	137.000000	0.000000	130.000000	58.000000	0.000000	0.000000
0.780000	16.510000	27.880000	173.000000	0.000000	130.000000	58.000000	0.000000	0.000000
0.790000	16.510000	27.880000	265.000000	0.000000	130.000000	58.000000	0.000000	0.000000
0.800000	16.380000	27.480000	325.000000	0.000000	131.000000	57.000000	-13.000000	-40.000000
0.810000	16.290000	27.110000	344.000000	0.000000	131.000000	57.000000	-9.000000	-37.000000
0.820000	16.170000	26.730000	364.000000	0.000000	132.000000	58.000000	-12.000000	-38.000000
0.830000	16.080000	26.360000	344.000000	0.000000	131.000000	58.000000	-9.000000	-37.000000
0.840000	15.990000	26.050000	223.000000	0.000000	132.000000	59.000000	-9.000000	-31.000000
0.850000	15.990000	26.050000	0.000000	1.000000	134.000000	60.000000	0.000000	0.000000
0.860000	16.010000	25.680000	0.000000	0.000000	134.000000	61.000000	2.000000	-37.000000
0.870000	16.180000	25.950000	0.000000	0.000000	135.000000	62.000000	17.000000	27.000000
0.880000	16.470000	26.450000	0.000000	0.000000	135.000000	62.000000	29.000000	50.000000
0.890000	16.790000	27.070000	0.000000	0.000000	133.000000	62.000000	32.000000	62.000000
0.900000	17.130000	27.730000	0.000000	0.000000	133.000000	62.000000	34.000000	66.000000
0.910000	17.350000	28.410000	0.000000	0.000000	132.000000	61.000000	22.000000	68.000000
0.920000	17.500000	28.980000	0.000000	0.000000	132.000000	60.000000	15.000000	57.000000
0.930000	17.500000	29.270000	0.000000	0.000000	131.000000	60.000000	0.000000	29.000000
0.940000	17.500000	29.270000	251.000000	1.000000	131.000000	58.000000	0.000000	0.000000
0.950000	17.340000	29.690000	256.000000	0.000000	132.000000	58.000000	-16.000000	42.000000
0.960000	16.960000	29.770000	249.000000	0.000000	131.000000	57.000000	-38.000000	8.000000
0.970000	16.750000	29.690000	245.000000	0.000000	132.000000	57.000000	-21.000000	-8.000000
0.980000	16.660000	29.500000	242.000000	0.000000	135.000000	57.000000	-9.000000	-19.000000
0.990000	16.660000	29.290000	222.000000	0.000000	135.000000	57.000000	0.000000	-21.000000
1.000000	16.840000	29.030000	90.000000	0.000000	135.000000	57.000000	18.000000	-26.000000
1.010000	17.150000	28.720000	1.000000	1.000000	136.000000	56.000000	0.000000	0.000000
1.020000	17.150000	28.720000	0.000000	0.000000	136.000000	56.000000	0.000000	0.000000
1.030000	17.990000	28.200000	0.000000	0.000000	136.000000	57.000000	84.000000	-52.000000
1.040000	17.990000	28.200000	51.000000	1.000000	136.000000	57.000000	0.000000	0.000000
1.050000	18.010000	27.760000	130.000000	0.000000	136.000000	57.000000	2.000000	-44.000000
1.060000	17.800000	27.500000	175.000000	0.000000	138.000000	58.000000	-21.000000	-26.000000
1.070000	17.590000	27.230000	264.000000	0.000000	136.000000	58.000000	-21.000000	-27.000000
1.080000	17.390000	26.970000	317.000000	0.000000	138.000000	59.000000	-20.000000	-26.000000
1.090000	17.330000	26.680000	330.000000	0.000000	138.000000	59.000000	-6.000000	-29.000000
1.100000	17.330000	26.520000	332.000000	0.000000	136.000000	60.000000	0.000000	-16.000000
1.110000	17.330000	26.440000	343.000000	0.000000	136.000000	60.000000	0.000000	-8.000000
1.120000	17.500000	26.440000	364.000000	0.000000	135.000000	60.000000	17.000000	0.000000
1.130000	17.850000	26.780000	366.000000	0.000000	135.000000	60.000000	35.000000	34.000000
1.140000	18.330000	27.250000	373.000000	0.000000	135.000000	60.000000	48.000000	47.000000
1.150000	18.760000	28.030000	362.000000	0.000000	135.000000	60.000000	43.000000	78.000000
1.160000	19.090000	28.680000	396.000000	0.000000	135.000000	60.000000	33.000000	65.000000
1.170000	19.350000	29.240000	407.000000	0.000000	135.000000	59.000000	26.000000	56.000000
1.180000	19.410000	29.770000	422.000000	0.000000	135.000000	59.000000	6.000000	53.000000
1.190000	19.410000	30.240000	430.000000	0.000000	136.000000	58.000000	0.000000	47.000000
1.200000	19.260000	30.410000	448.000000	0.000000	136.000000	58.000000	-15.000000	17.000000
1.210000	19.200000	30.410000	448.000000	0.000000	138.000000	58.000000	-6.000000	0.000000
1.220000	19.130000	30.220000	450.000000	0.000000	139.000000	57.000000	-7.000000	-19.000000
1.230000	18.980000	29.710000	455.000000	0.000000	139.000000	57.000000	-15.000000	-51.000000
1.240000	18.790000	29.000000	458.000000	0.000000	139.000000	57.000000	-19.000000	-71.000000
1.250000	18.790000	28.300000	460.000000	0.000000	139.000000	57.000000	0.000000	-70.000000
1.260000	18.740000	27.740000	460.000000	0.000000	139.000000	57.000000	-5.000000	-56.000000
1.270000	18.880000	27.280000	458.000000	0.000000	139.000000	57.000000	14.000000	-46.000000
1.280000	19.100000	27.160000	447.000000	0.000000	138.000000	58.000000	22.000000	-12.000000
1.290000	19.530000	27.380000	445.000000	0.000000	136.000000	57.000000	43.000000	22.000000
1.300000	20.040000	27.820000	440.000000	0.000000	135.000000	58.000000	51.000000	44.000000
1.310000	20.590000	28.480000	440.000000	0.000000	135.000000	58.000000	55.000000	66.000000
1.320000	20.830000	28.970000	448.000000	0.000000	135.000000	58.000000	24.000000	49.000000
1.330000	20.890000	29.340000	475.000000	0.000000	135.000000	58.000000	6.000000	37.000000
1.340000	20.830000	29.450000	491.000000	0.000000	134.000000	57.000000	-6.000000	11.000000
1.350000	20.760000	29.450000	496.000000	0.000000	135.000000	57.000000	-7.000000	0.000000
1.360000	20.690000	29.310000	496.000000	0.000000	135.000000	57.000000	-7.000000	-14.000000
1.370000	20.610000	28.930000	497.000000	0.000000	135.000000	57.000000	-8.000000	-38.000000
1.380000	20.510000	28.550000	491.000000	0.000000	136.000000	56.000000	-10.000000	-38.000000
1.390000	20.510000	28.250000	442.000000	0.000000	136.000000	56.000000	0.000000	-30.000000
1.400000	20.660000	28.020000	309.000000	0.000000	136.000000	56.000000	15.000000	-23.000000
1.410000	20.910000	27.860000	70.000000	0.000000	135.000000	57.000000	25.000000	-16.000000
1.420000	20.910000	27.860000	0.000000	1.000000	135.000000	57.000000	0.000000	0.000000
1.430000	21.380000	28.090000	0.000000	0.000000	135.000000	57.000000	47.000000	23.000000
1.440000	21.660000	28.480000	0.000000	0.000000	134.000000	57.000000	28.000000	39.000000
1.450000	21.740000	28.830000	0.000000	0.000000	134.000000	57.000000	8.000000	35.000000
1.460000	21.810000	29.120000	0.000000	0.000000	132.000000	57.000000	7.000000	29.000000
1.470000	21.810000	29.120000	184.000000	1.000000	132.000000	57.000000	0.000000	0.000000
1.480000	21.770000	29.410000	232.000000	0.000000	132.000000	57.000000	-4.000000	29.000000
1.490000	21.610000	29.410000	304.000000	0.000000	132.000000	55.000000	-16.000000	0.000000
1.500000	21.410000	29.410000	315.000000	0.000000	134.000000	56.000000	-20.000000	0.000000
1.510000	21.350000	29.410000	325.000000	0.000000	134.000000	56.000000	-6.000000	0.000000
1.520000	21.350000	29.320000	329.000000	0.000000	135.000000	55.000000	0.000000	-9.000000
1.530000	21.430000	29.240000	320.000000	0.000000	135.000000	55.000000	8.000000	-8.000000
1.540000	21.660000	29.100000	247.000000	0.000000	135.000000	55.000000	23.000000	-14.000000
1.550000	22.060000	29.100000	141.000000	0.000000	135.000000	55.000000	40.000000	0.000000
1.560000	22.470000	29.100000	70.000000	0.000000	135.000000	55.000000	41.000000	0.000000
1.570000	22.790000	29.250000	49.000000	0.000000	135.000000	55.000000	32.000000	15.000000
1.580000	23.050000	29.400000	65.000000	0.000000	135.000000	55.000000	26.000000	15.000000
1.590000	23.050000	29.560000	146.000000	0.000000	135.000000	55.000000	0.000000	16.000000
1.600000	22.960000	29.720000	171.000000	0.000000	135.000000	55.000000	-9.000000	16.000000
1.610000	22.780000	29.820000	255.000000	0.000000	135.000000	55.000000	-18.000000	10.000000
1.620000	22.510000	29.820000	340.000000	0.000000	135.000000	55.000000	-27.000000	0.000000
1.630000	22.240000	29.680000	366.000000	0.000000	135.000000	55.000000	-27.000000	-14.000000
1.640000	22.010000	29.450000	402.000000	0.000000	135.000000	55.000000	-23.000000	-23.000000
1.650000	21.860000	29.160000	414.000000	0.000000	135.000000	55.000000	-15.000000	-29.000000
1.660000	21.860000	28.900000	439.000000	0.000000	135.000000	55.000000	0.000000	-26.000000
1.670000	22.040000	28.720000	448.000000	0.000000	135.000000	55.000000	18.000000	-18.000000
1.680000	22.310000	28.570000	453.000000	0.000000	134.000000	56.000000	27.000000	-15.000000
1.690000	22.630000	28.570000	417.000000	0.000000	132.000000	55.000000	32.000000	0.000000
1.700000	22.940000	28.510000	292.000000	0.000000	132.000000	55.000000	31.000000	-6.000000
1.710000	23.220000	28.510000	56.000000	0.000000	132.000000	55.000000	28.000000	0.000000
1.720000	23.220000	28.510000	0.000000	1.000000	131.000000	56.000000	0.000000	0.000000
1.730000	23.580000	28.570000	0.000000	0.000000	131.000000	56.000000	36.000000	6.000000
1.740000	23.700000	28.780000	0.000000	0.000000	131.000000	56.000000	12.000000	21.000000
1.750000	23.820000	29.150000	0.000000	0.000000	131.000000	56.000000	12.000000	37.000000
1.760000	23.980000	29.650000	0.000000	0.000000	132.000000	57.000000	16.000000	50.000000
1.770000	24.190000	30.240000	0.000000	0.000000	132.000000	57.000000	21.000000	59.000000
1.780000	24.320000	30.780000	0.000000	0.000000	132.000000	57.000000	13.000000	54.000000
1.790000	24.320000	30.780000	252.000000	1.000000	134.000000	56.000000	0.000000	0.000000
1.800000	24.410000	31.930000	274.000000	0.000000	134.000000	56.000000	9.000000	115.000000
1.810000	24.150000	32.550000	340.000000	0.000000	134.000000	56.000000	-26.000000	62.000000
1.820000	23.820000	32.980000	407.000000	0.000000	134.000000	56.000000	-33.000000	43.000000
1.830000	23.770000	33.070000	433.000000	0.000000	135.000000	55.000000	-5.000000	9.000000
1.840000	23.770000	32.940000	458.000000	0.000000	135.000000	55.000000	0.000000	-13.000000
1.850000	23.680000	32.520000	485.000000	0.000000	135.000000	55.000000	-9.000000	-42.000000
1.860000	23.610000	31.590000	519.000000	0.000000	135.000000	55.000000	-7.000000	-93.000000
1.870000	23.520000	30.320000	561.000000	0.000000	135.000000	55.000000	-9.000000	-127.000000
1.880000	23.390000	28.960000	591.000000	0.000000	135.000000	55.000000	-13.000000	-136.000000
1.890000	23.230000	27.440000	595.000000	0.000000	136.000000	56.000000	-16.000000	-152.000000
1.900000	23.060000	25.820000	599.000000	0.000000	135.000000	57.000000	-17.000000	-162.000000
1.910000	22.870000	24.470000	600.000000	0.000000	134.000000	57.000000	-19.000000	-135.000000
1.920000	22.680000	23.630000	602.000000	0.000000	132.000000	58.000000	-19.000000	-84.000000
1.930000	22.490000	23.140000	586.000000	0.000000	132.000000	58.000000	-19.000000	-49.000000
1.940000	22.420000	23.140000	465.000000	0.000000	131.000000	58.000000	-7.000000	0.000000
1.950000	22.420000	23.490000	386.000000	0.000000	129.000000	59.000000	0.000000	35.000000
1.960000	22.420000	24.110000	260.000000	0.000000	128.000000	59.000000	0.000000	62.000000
1.970000	22.420000	24.110000	0.000000	1.000000	126.000000	60.000000	0.000000	0.000000
1.980000	23.050000	26.220000	0.000000	0.000000	126.000000	60.000000	63.000000	211.000000
1.990000	23.480000	27.410000	0.000000	0.000000	126.000000	60.000000	43.000000	119.000000
2.000000	23.920000	28.450000	0.000000	0.000000	128.000000	59.000000	44.000000	104.000000
2.010000	24.380000	29.230000	0.000000	0.000000	128.000000	59.000000	46.000000	78.000000
2.020000	24.380000	29.230000	32.000000	1.000000	129.000000	59.000000	0.000000	0.000000
2.030000	25.180000	30.280000	107.000000	0.000000	129.000000	59.000000	80.000000	105.000000
2.040000	25.310000	30.530000	217.000000	0.000000	131.000000	58.000000	13.000000	25.000000
2.050000	25.310000	30.660000	325.000000	0.000000	132.000000	58.000000	0.000000	13.000000
2.060000	25.220000	30.660000	369.000000	0.000000	134.000000	57.000000	-9.000000	0.000000
2.070000	25.070000	30.660000	420.000000	0.000000	132.000000	57.000000	-15.000000	0.000000
2.080000	24.740000	30.410000	456.000000	0.000000	134.000000	56.000000	-33.000000	-25.000000
2.090000	24.370000	30.020000	485.000000	0.000000	134.000000	56.000000	-37.000000	-39.000000
2.100000	23.980000	29.530000	495.000000	0.000000	134.000000	56.000000	-39.000000	-49.000000
2.110000	23.820000	29.140000	495.000000	0.000000	134.000000	56.000000	-16.000000	-39.000000
2.120000	23.870000	28.820000	480.000000	0.000000	134.000000	56.000000	5.000000	-32.000000
2.130000	24.060000	28.660000	449.000000	0.000000	134.000000	56.000000	19.000000	-16.000000
2.140000	24.360000	28.780000	423.000000	0.000000	134.000000	56.000000	30.000000	12.000000
2.150000	24.810000	29.080000	391.000000	0.000000	131.000000	56.000000	45.000000	30.000000
2.160000	25.350000	29.560000	389.000000	0.000000	131.000000	56.000000	54.000000	48.000000
2.170000	25.720000	30.050000	391.000000	0.000000	131.000000	56.000000	37.000000	49.000000
2.180000	25.850000	30.560000	391.000000	0.000000	131.000000	56.000000	13.000000	51.000000
2.190000	25.850000	30.890000	413.000000	0.000000	132.000000	57.000000	0.000000	33.000000
2.200000	25.850000	31.030000	423.000000	0.000000	132.000000	57.000000	0.000000	14.000000
2.210000	25.850000	31.030000	436.000000	0.000000	135.000000	57.000000	0.000000	0.000000
