t	x	y	pressure	penup	azimuth	inclination	v_x	v_y
0.000000	14.530000	9.830000	132.000000	1.000000	180.000000	45.000000	0.000000	0.000000
0.010000	14.350000	9.420000	144.000000	0.000000	180.000000	47.000000	-18.000000	-41.000000
0.020000	14.260000	9.420000	148.000000	0.000000	179.000000	48.000000	-9.000000	0.000000
0.030000	14.170000	9.350000	180.000000	0.000000	176.000000	50.000000	-9.000000	-7.000000
0.040000	14.170000	9.350000	233.000000	0.000000	175.000000	51.000000	0.000000	0.000000
0.050000	14.270000	9.350000	286.000000	0.000000	173.000000	53.000000	10.000000	0.000000
0.060000	14.480000	9.550000	307.000000	0.000000	172.000000	54.000000	21.000000	20.000000
0.070000	14.780000	9.880000	310.000000	0.000000	170.000000	54.000000	30.000000	33.000000
0.080000	15.310000	10.330000	325.000000	0.000000	170.000000	55.000000	53.000000	45.000000
0.090000	15.900000	10.870000	327.000000	0.000000	170.000000	55.000000	59.000000	54.000000
0.100000	16.520000	11.490000	327.000000	0.000000	168.000000	55.000000	62.000000	62.000000
0.110000	16.840000	12.160000	339.000000	0.000000	167.000000	55.000000	32.000000	67.000000
0.120000	16.840000	12.700000	372.000000	0.000000	164.000000	55.000000	0.000000	54.000000
0.130000	16.620000	13.200000	396.000000	0.000000	163.000000	55.000000	-22.000000	50.000000
0.140000	16.240000	13.640000	425.000000	0.000000	161.000000	55.000000	-38.000000	44.000000
0.150000	15.680000	13.860000	423.000000	0.000000	160.000000	54.000000	-56.000000	22.000000
0.160000	15.000000	13.950000	449.000000	0.000000	160.000000	54.000000	-68.000000	9.000000
0.170000	14.290000	13.860000	465.000000	0.000000	160.000000	54.000000	-71.000000	-9.000000
0.180000	13.800000	13.560000	466.000000	0.000000	160.000000	53.000000	-49.000000	-30.000000
0.190000	13.450000	13.130000	458.000000	0.000000	160.000000	53.000000	-35.000000	-43.000000
0.200000	13.450000	12.410000	455.000000	0.000000	162.000000	54.000000	0.000000	-72.000000
0.210000	13.730000	11.480000	440.000000	0.000000	164.000000	53.000000	28.000000	-93.000000
0.220000	14.180000	10.400000	443.000000	0.000000	164.000000	53.000000	45.000000	-108.000000
0.230000	14.630000	9.530000	444.000000	0.000000	165.000000	53.000000	45.000000	-87.000000
0.240000	14.910000	8.810000	444.000000	0.000000	166.000000	53.000000	28.000000	-72.000000
0.250000	15.080000	8.200000	449.000000	0.000000	168.000000	53.000000	17.000000	-61.000000
0.260000	15.000000	7.520000	439.000000	0.000000	169.000000	53.000000	-8.000000	-68.000000
0.270000	14.670000	7.020000	445.000000	0.000000	170.000000	54.000000	-33.000000	-50.000000
0.280000	14.180000	6.640000	474.000000	0.000000	172.000000	54.000000	-49.000000	-38.000000
0.290000	13.420000	6.350000	490.000000	0.000000	173.000000	53.000000	-76.000000	-29.000000
0.300000	12.360000	6.040000	515.000000	0.000000	175.000000	53.000000	-106.000000	-31.000000
0.310000	11.110000	5.730000	543.000000	0.000000	176.000000	52.000000	-125.000000	-31.000000
0.320000	9.590000	5.460000	551.000000	0.000000	178.000000	51.000000	-152.000000	-27.000000
0.330000	8.380000	5.210000	562.000000	0.000000	179.000000	50.000000	-121.000000	-25.000000
0.340000	7.370000	5.050000	570.000000	0.000000	180.000000	49.000000	-101.000000	-16.000000
0.350000	6.900000	4.950000	560.000000	0.000000	180.000000	49.000000	-47.000000	-10.000000
0.360000	6.900000	4.900000	560.000000	0.000000	181.000000	48.000000	0.000000	-5.000000
0.370000	7.100000	4.970000	561.000000	0.000000	181.000000	48.000000	20.000000	7.000000
0.380000	7.880000	5.190000	570.000000	0.000000	182.000000	48.000000	78.000000	22.000000
0.390000	9.640000	5.520000	591.000000	0.000000	182.000000	47.000000	176.000000	33.000000
0.400000	12.050000	6.170000	591.000000	0.000000	182.000000	48.000000	241.000000	65.000000
0.410000	14.890000	6.990000	611.000000	0.000000	181.000000	48.000000	284.000000	82.000000
0.420000	18.330000	7.920000	643.000000	0.000000	180.000000	49.000000	344.000000	93.000000
0.430000	22.170000	8.810000	658.000000	0.000000	178.000000	51.000000	384.000000	89.000000
0.440000	25.920000	9.700000	661.000000	0.000000	175.000000	52.000000	375.000000	89.000000
0.450000	29.340000	10.580000	662.000000	0.000000	170.000000	54.000000	342.000000	88.000000
0.460000	32.550000	11.250000	645.000000	0.000000	166.000000	56.000000	321.000000	67.000000
0.470000	34.700000	11.910000	570.000000	0.000000	161.000000	57.000000	215.000000	66.000000
0.480000	36.020000	12.560000	388.000000	0.000000	157.000000	60.000000	132.000000	65.000000
0.490000	36.790000	12.850000	1.000000	1.000000	153.000000	61.000000	0.000000	0.000000
0.500000	36.790000	12.850000	0.000000	0.000000	149.000000	63.000000	0.000000	0.000000
0.510000	35.350000	12.780000	0.000000	0.000000	148.000000	63.000000	-144.000000	-7.000000
0.520000	33.530000	12.460000	0.000000	0.000000	146.000000	63.000000	-182.000000	-32.000000
0.530000	31.290000	12.100000	0.000000	0.000000	146.000000	63.000000	-224.000000	-36.000000
0.540000	28.870000	11.630000	0.000000	0.000000	144.000000	62.000000	-242.000000	-47.000000
0.550000	26.340000	11.100000	0.000000	0.000000	145.000000	60.000000	-253.000000	-53.000000
0.560000	23.930000	10.770000	0.000000	0.000000	146.000000	58.000000	-241.000000	-33.000000
0.570000	21.850000	10.440000	0.000000	0.000000	147.000000	56.000000	-208.000000	-33.000000
0.580000	19.990000	10.100000	0.000000	0.000000	147.000000	55.000000	-186.000000	-34.000000
0.590000	18.390000	9.820000	0.000000	0.000000	148.000000	53.000000	-160.000000	-28.000000
0.600000	17.190000	9.580000	0.000000	0.000000	149.000000	51.000000	-120.000000	-24.000000
0.610000	16.250000	9.340000	0.000000	0.000000	151.000000	49.000000	-94.000000	-24.000000
0.620000	15.730000	9.130000	0.000000	0.000000	153.000000	49.000000	-52.000000	-21.000000
0.630000	15.610000	8.950000	0.000000	0.000000	156.000000	50.000000	-12.000000	-18.000000
0.640000	15.760000	8.860000	0.000000	0.000000	161.000000	49.000000	15.000000	-9.000000
0.650000	15.950000	8.790000	0.000000	0.000000	164.000000	51.000000	19.000000	-7.000000
0.660000	16.160000	8.740000	0.000000	0.000000	166.000000	51.000000	21.000000	-5.000000
0.670000	16.410000	8.800000	0.000000	0.000000	167.000000	51.000000	25.000000	6.000000
0.680000	16.560000	8.870000	0.000000	0.000000	168.000000	52.000000	15.000000	7.000000
0.690000	16.630000	8.950000	0.000000	0.000000	168.000000	52.000000	7.000000	8.000000
0.700000	16.680000	9.010000	0.000000	0.000000	165.000000	53.000000	5.000000	6.000000
0.710000	16.730000	9.080000	0.000000	0.000000	162.000000	53.000000	5.000000	7.000000
0.720000	16.730000	9.150000	0.000000	0.000000	158.000000	52.000000	0.000000	7.000000
0.730000	16.670000	9.200000	0.000000	0.000000	155.000000	51.000000	-6.000000	5.000000
0.740000	16.670000	9.250000	0.000000	0.000000	153.000000	52.000000	0.000000	5.000000
0.750000	16.670000	9.250000	85.000000	1.000000	151.000000	51.000000	0.000000	0.000000
0.760000	16.670000	9.250000	137.000000	0.000000	151.000000	51.000000	0.000000	0.000000
0.770000	16.670000	9.250000	212.000000	0.000000	150.000000	52.000000	0.000000	0.000000
0.780000	16.670000	9.250000	265.000000	0.000000	152.000000	53.000000	0.000000	0.000000
0.790000	16.670000	9.250000	312.000000	0.000000	152.000000	53.000000	0.000000	0.000000
0.800000	16.670000	9.250000	362.000000	0.000000	152.000000	53.000000	0.000000	0.000000
0.810000	16.450000	8.980000	415.000000	0.000000	152.000000	53.000000	-22.000000	-27.000000
0.820000	16.400000	8.530000	423.000000	0.000000	152.000000	53.000000	-5.000000	-45.000000
0.830000	16.400000	8.200000	422.000000	0.000000	152.000000	53.000000	0.000000	-33.000000
0.840000	16.400000	7.870000	371.000000	0.000000	152.000000	53.000000	0.000000	-33.000000
0.850000	16.400000	7.640000	207.000000	0.000000	152.000000	53.000000	0.000000	-23.000000
0.860000	16.530000	7.490000	1.000000	1.000000	152.000000	53.000000	0.000000	0.000000
0.870000	16.530000	7.490000	0.000000	0.000000	152.000000	53.000000	0.000000	0.000000
0.880000	16.780000	7.780000	0.000000	0.000000	152.000000	53.000000	25.000000	29.000000
0.890000	16.930000	8.240000	0.000000	0.000000	152.000000	53.000000	15.000000	46.000000
0.900000	17.060000	8.760000	0.000000	0.000000	152.000000	53.000000	13.000000	52.000000
0.910000	17.170000	9.260000	0.000000	0.000000	152.000000	53.000000	11.000000	50.000000
0.920000	17.250000	9.720000	0.000000	0.000000	152.000000	53.000000	8.000000	46.000000
0.930000	17.310000	10.140000	0.000000	0.000000	151.000000	53.000000	6.000000	42.000000
0.940000	17.310000	10.140000	202.000000	1.000000	151.000000	53.000000	0.000000	0.000000
0.950000	17.310000	10.530000	210.000000	0.000000	151.000000	53.000000	0.000000	39.000000
0.960000	17.220000	10.530000	215.000000	0.000000	151.000000	53.000000	-9.000000	0.000000
0.970000	17.050000	10.530000	213.000000	0.000000	151.000000	53.000000	-17.000000	0.000000
0.980000	17.050000	10.440000	213.000000	0.000000	151.000000	54.000000	0.000000	-9.000000
0.990000	17.050000	10.270000	176.000000	0.000000	151.000000	54.000000	0.000000	-17.000000
1.000000	17.140000	10.040000	109.000000	0.000000	151.000000	54.000000	9.000000	-23.000000
1.010000	17.140000	10.040000	0.000000	1.000000	153.000000	55.000000	0.000000	0.000000
1.020000	17.850000	9.670000	0.000000	0.000000	153.000000	55.000000	71.000000	-37.000000
1.030000	18.240000	9.590000	0.000000	0.000000	153.000000	55.000000	39.000000	-8.000000
1.040000	18.440000	9.590000	0.000000	0.000000	153.000000	55.000000	20.000000	0.000000
1.050000	18.500000	9.590000	0.000000	0.000000	153.000000	55.000000	6.000000	0.000000
1.060000	18.500000	9.590000	98.000000	1.000000	153.000000	55.000000	0.000000	0.000000
1.070000	18.220000	9.410000	141.000000	0.000000	153.000000	54.000000	-28.000000	-18.000000
1.080000	17.970000	9.250000	206.000000	0.000000	153.000000	54.000000	-25.000000	-16.000000
1.090000	17.720000	9.020000	280.000000	0.000000	153.000000	54.000000	-25.000000	-23.000000
1.100000	17.520000	8.790000	294.000000	0.000000	153.000000	54.000000	-20.000000	-23.000000
1.110000	17.400000	8.570000	312.000000	0.000000	153.000000	54.000000	-12.000000	-22.000000
1.120000	17.340000	8.370000	305.000000	0.000000	155.000000	54.000000	-6.000000	-20.000000
1.130000	17.430000	8.270000	319.000000	0.000000	155.000000	54.000000	9.000000	-10.000000
1.140000	17.610000	8.270000	332.000000	0.000000	155.000000	54.000000	18.000000	0.000000
1.150000	17.930000	8.360000	339.000000	0.000000	155.000000	54.000000	32.000000	9.000000
1.160000	18.280000	8.690000	339.000000	0.000000	155.000000	54.000000	35.000000	33.000000
1.170000	18.700000	9.180000	334.000000	0.000000	155.000000	54.000000	42.000000	49.000000
1.180000	19.000000	9.760000	353.000000	0.000000	153.000000	55.000000	30.000000	58.000000
1.190000	19.220000	10.410000	367.000000	0.000000	153.000000	55.000000	22.000000	65.000000
1.200000	19.310000	11.100000	386.000000	0.000000	153.000000	55.000000	9.000000	69.000000
1.210000	19.310000	12.050000	415.000000	0.000000	152.000000	56.000000	0.000000	95.000000
1.220000	19.310000	12.630000	450.000000	0.000000	150.000000	55.000000	0.000000	58.000000
1.230000	19.200000	12.970000	502.000000	0.000000	150.000000	55.000000	-11.000000	34.000000
1.240000	19.200000	12.970000	509.000000	0.000000	150.000000	55.000000	0.000000	0.000000
1.250000	19.130000	12.900000	510.000000	0.000000	150.000000	55.000000	-7.000000	-7.000000
1.260000	19.020000	12.300000	519.000000	0.000000	150.000000	55.000000	-11.000000	-60.000000
1.270000	18.900000	11.350000	520.000000	0.000000	150.000000	55.000000	-12.000000	-95.000000
1.280000	18.760000	10.440000	522.000000	0.000000	150.000000	55.000000	-14.000000	-91.000000
1.290000	18.820000	9.710000	522.000000	0.000000	150.000000	55.000000	6.000000	-73.000000
1.300000	19.000000	9.100000	517.000000	0.000000	151.000000	54.000000	18.000000	-61.000000
1.310000	19.270000	8.790000	507.000000	0.000000	151.000000	54.000000	27.000000	-31.000000
1.320000	19.620000	8.790000	504.000000	0.000000	151.000000	54.000000	35.000000	0.000000
1.330000	19.990000	8.900000	507.000000	0.000000	151.000000	54.000000	37.000000	11.000000
1.340000	20.360000	9.250000	507.000000	0.000000	151.000000	54.000000	37.000000	35.000000
1.350000	20.610000	9.690000	507.000000	0.000000	151.000000	54.000000	25.000000	44.000000
1.360000	20.780000	10.200000	520.000000	0.000000	150.000000	55.000000	17.000000	51.000000
1.370000	20.780000	10.550000	537.000000	0.000000	150.000000	55.000000	0.000000	35.000000
1.380000	20.780000	10.670000	561.000000	0.000000	150.000000	55.000000	0.000000	12.000000
1.390000	20.720000	10.670000	556.000000	0.000000	150.000000	55.000000	-6.000000	0.000000
1.400000	20.720000	10.520000	559.000000	0.000000	150.000000	55.000000	0.000000	-15.000000
1.410000	20.670000	10.220000	559.000000	0.000000	150.000000	55.000000	-5.000000	-30.000000
1.420000	20.670000	9.810000	551.000000	0.000000	150.000000	55.000000	0.000000	-41.000000
1.430000	20.770000	9.540000	507.000000	0.000000	150.000000	55.000000	10.000000	-27.000000
1.440000	21.020000	9.360000	377.000000	0.000000	150.000000	55.000000	25.000000	-18.000000
1.450000	21.340000	9.250000	107.000000	0.000000	150.000000	55.000000	32.000000	-11.000000
1.460000	21.340000	9.250000	0.000000	1.000000	150.000000	55.000000	0.000000	0.000000
1.470000	21.910000	9.470000	0.000000	0.000000	150.000000	55.000000	57.000000	22.000000
1.480000	22.090000	9.780000	0.000000	0.000000	149.000000	55.000000	18.000000	31.000000
1.490000	22.170000	10.140000	0.000000	0.000000	149.000000	55.000000	8.000000	36.000000
1.500000	22.260000	10.540000	0.000000	0.000000	149.000000	55.000000	9.000000	40.000000
1.510000	22.260000	10.970000	0.000000	0.000000	147.000000	55.000000	0.000000	43.000000
1.520000	22.260000	10.970000	213.000000	1.000000	147.000000	55.000000	0.000000	0.000000
1.530000	22.150000	11.680000	262.000000	0.000000	147.000000	55.000000	-11.000000	71.000000
1.540000	21.940000	11.900000	305.000000	0.000000	146.000000	54.000000	-21.000000	22.000000
1.550000	21.690000	11.970000	364.000000	0.000000	146.000000	54.000000	-25.000000	7.000000
1.560000	21.690000	11.970000	384.000000	0.000000	146.000000	54.000000	0.000000	0.000000
1.570000	21.690000	11.880000	393.000000	0.000000	145.000000	55.000000	0.000000	-9.000000
1.580000	21.690000	11.640000	396.000000	0.000000	145.000000	55.000000	0.000000	-24.000000
1.590000	21.760000	11.290000	371.000000	0.000000	145.000000	55.000000	7.000000	-35.000000
1.600000	21.950000	11.000000	281.000000	0.000000	145.000000	55.000000	19.000000	-29.000000
1.610000	22.280000	10.820000	222.000000	0.000000	145.000000	55.000000	33.000000	-18.000000
1.620000	22.690000	10.710000	173.000000	0.000000	146.000000	55.000000	41.000000	-11.000000
1.630000	23.010000	10.600000	182.000000	0.000000	146.000000	55.000000	32.000000	-11.000000
1.640000	23.140000	10.510000	184.000000	0.000000	146.000000	55.000000	13.000000	-9.000000
1.650000	23.140000	10.440000	212.000000	0.000000	146.000000	55.000000	0.000000	-7.000000
1.660000	22.960000	10.310000	279.000000	0.000000	146.000000	55.000000	-18.000000	-13.000000
1.670000	22.690000	10.180000	344.000000	0.000000	146.000000	55.000000	-27.000000	-13.000000
1.680000	22.360000	10.070000	377.000000	0.000000	146.000000	55.000000	-33.000000	-11.000000
1.690000	22.200000	9.970000	396.000000	0.000000	146.000000	55.000000	-16.000000	-10.000000
1.700000	22.110000	9.970000	398.000000	0.000000	146.000000	55.000000	-9.000000	0.000000
1.710000	22.110000	9.890000	396.000000	0.000000	146.000000	55.000000	0.000000	-8.000000
1.720000	22.180000	9.890000	417.000000	0.000000	146.000000	55.000000	7.000000	0.000000
1.730000	22.430000	9.890000	414.000000	0.000000	146.000000	55.000000	25.000000	0.000000
1.740000	22.820000	9.950000	423.000000	0.000000	146.000000	55.000000	39.000000	6.000000
1.750000	23.180000	10.110000	427.000000	0.000000	146.000000	55.000000	36.000000	16.000000
1.760000	23.390000	10.320000	431.000000	0.000000	146.000000	55.000000	21.000000	21.000000
1.770000	23.510000	10.320000	431.000000	0.000000	145.000000	56.000000	12.000000	0.000000
1.780000	23.510000	10.320000	433.000000	0.000000	145.000000	56.000000	0.000000	0.000000
1.790000	23.510000	10.320000	433.000000	0.000000	145.000000	56.000000	0.000000	0.000000
1.800000	23.510000	10.230000	430.000000	0.000000	145.000000	56.000000	0.000000	-9.000000
1.810000	23.510000	10.120000	391.000000	0.000000	145.000000	56.000000	0.000000	-11.000000
1.820000	23.510000	9.990000	247.000000	0.000000	145.000000	56.000000	0.000000	-13.000000
1.830000	23.640000	9.880000	53.000000	0.000000	145.000000	56.000000	13.000000	-11.000000
1.840000	23.640000	9.880000	0.000000	1.000000	145.000000	56.000000	0.000000	0.000000
1.850000	23.960000	10.020000	0.000000	0.000000	145.000000	56.000000	32.000000	14.000000
1.860000	24.160000	10.250000	0.000000	0.000000	147.000000	56.000000	20.000000	23.000000
1.870000	24.370000	10.590000	0.000000	0.000000	147.000000	56.000000	21.000000	34.000000
1.880000	24.510000	11.010000	0.000000	0.000000	147.000000	56.000000	14.000000	42.000000
1.890000	24.600000	11.640000	0.000000	0.000000	147.000000	56.000000	9.000000	63.000000
1.900000	24.600000	11.640000	80.000000	1.000000	147.000000	56.000000	0.000000	0.000000
1.910000	24.600000	13.350000	120.000000	0.000000	147.000000	56.000000	0.000000	171.000000
1.920000	24.540000	13.910000	190.000000	0.000000	147.000000	56.000000	-6.000000	56.000000
1.930000	24.440000	14.170000	292.000000	0.000000	147.000000	56.000000	-10.000000	26.000000
1.940000	24.330000	14.240000	342.000000	0.000000	147.000000	56.000000	-11.000000	7.000000
1.950000	24.200000	14.170000	361.000000	0.000000	148.000000	56.000000	-13.000000	-7.000000
1.960000	24.050000	13.720000	404.000000	0.000000	148.000000	56.000000	-15.000000	-45.000000
1.970000	23.940000	13.010000	465.000000	0.000000	146.000000	55.000000	-11.000000	-71.000000
1.980000	23.880000	11.830000	499.000000	0.000000	146.000000	55.000000	-6.000000	-118.000000
1.990000	23.930000	10.630000	509.000000	0.000000	146.000000	55.000000	5.000000	-120.000000
2.000000	24.030000	9.430000	512.000000	0.000000	146.000000	55.000000	10.000000	-120.000000
2.010000	23.950000	8.210000	522.000000	0.000000	146.000000	55.000000	-8.000000	-122.000000
2.020000	23.750000	7.090000	515.000000	0.000000	148.000000	56.000000	-20.000000	-112.000000
2.030000	23.480000	6.050000	526.000000	0.000000	148.000000	56.000000	-27.000000	-104.000000
2.040000	23.200000	5.410000	526.000000	0.000000	148.000000	56.000000	-28.000000	-64.000000
2.050000	22.930000	5.160000	520.000000	0.000000	149.000000	56.000000	-27.000000	-25.000000
2.060000	22.690000	5.160000	478.000000	0.000000	149.000000	56.000000	-24.000000	0.000000
2.070000	22.480000	5.540000	428.000000	0.000000	149.000000	56.000000	-21.000000	38.000000
2.080000	22.480000	6.190000	334.000000	0.000000	150.000000	55.000000	0.000000	65.000000
2.090000	22.680000	7.030000	210.000000	0.000000	150.000000	55.000000	20.000000	84.000000
2.100000	23.060000	7.820000	101.000000	0.000000	150.000000	55.000000	38.000000	79.000000
2.110000	23.480000	8.570000	61.000000	0.000000	150.000000	55.000000	42.000000	75.000000
2.120000	23.950000	9.220000	68.000000	0.000000	150.000000	55.000000	47.000000	65.000000
2.130000	24.390000	9.830000	71.000000	0.000000	150.000000	55.000000	44.000000	61.000000
2.140000	24.820000	10.390000	96.000000	0.000000	149.000000	56.000000	43.000000	56.000000
2.150000	25.160000	10.750000	136.000000	0.000000	149.000000	56.000000	34.000000	36.000000
2.160000	25.340000	10.980000	222.000000	0.000000	149.000000	56.000000	18.000000	23.000000
2.170000	25.410000	10.980000	287.000000	0.000000	148.000000	57.000000	7.000000	0.000000
2.180000	25.270000	10.980000	341.000000	0.000000	148.000000	57.000000	-14.000000	0.000000
2.190000	25.060000	10.900000	389.000000	0.000000	147.000000	58.000000	-21.000000	-8.000000
2.200000	24.790000	10.620000	435.000000	0.000000	147.000000	58.000000	-27.000000	-28.000000
2.210000	24.350000	10.220000	440.000000	0.000000	147.000000	58.000000	-44.000000	-40.000000
2.220000	24.130000	9.880000	445.000000	0.000000	147.000000	58.000000	-22.000000	-34.000000
