t	x	y	pressure	penup	azimuth	inclination	v_x	v_y
0.000000	10.600000	71.520000	202.000000	1.000000	154.000000	57.000000	0.000000	0.000000
0.010000	10.370000	70.230000	274.000000	0.000000	153.000000	58.000000	-23.000000	-129.000000
0.020000	10.300000	69.990000	448.000000	0.000000	153.000000	58.000000	-7.000000	-24.000000
0.030000	10.220000	69.740000	595.000000	0.000000	150.000000	58.000000	-8.000000	-25.000000
0.040000	10.220000	69.500000	710.000000	0.000000	149.000000	59.000000	0.000000	-24.000000
0.050000	10.150000	69.500000	827.000000	0.000000	149.000000	59.000000	-7.000000	0.000000
0.060000	10.240000	69.500000	896.000000	0.000000	147.000000	59.000000	9.000000	0.000000
0.070000	10.390000	69.860000	949.000000	0.000000	147.000000	59.000000	15.000000	36.000000
0.080000	10.850000	70.760000	984.000000	0.000000	147.000000	59.000000	46.000000	90.000000
0.090000	11.490000	72.030000	1008.000000	0.000000	147.000000	59.000000	64.000000	127.000000
0.100000	12.120000	73.840000	1015.000000	0.000000	147.000000	59.000000	63.000000	181.000000
0.110000	12.750000	76.130000	1017.000000	0.000000	146.000000	58.000000	63.000000	229.000000
0.120000	13.260000	78.740000	1011.000000	0.000000	147.000000	58.000000	51.000000	261.000000
0.130000	13.680000	81.410000	1009.000000	0.000000	150.000000	57.000000	42.000000	267.000000
0.140000	13.860000	83.100000	1000.000000	0.000000	150.000000	57.000000	18.000000	169.000000
0.150000	14.040000	84.130000	1003.000000	0.000000	152.000000	57.000000	18.000000	103.000000
0.160000	14.040000	84.360000	979.000000	0.000000	153.000000	56.000000	0.000000	23.000000
0.170000	13.990000	84.240000	986.000000	0.000000	155.000000	55.000000	-5.000000	-12.000000
0.180000	13.990000	83.900000	983.000000	0.000000	155.000000	55.000000	0.000000	-34.000000
0.190000	13.990000	82.710000	985.000000	0.000000	158.000000	55.000000	0.000000	-119.000000
0.200000	13.940000	80.900000	986.000000	0.000000	158.000000	55.000000	-5.000000	-181.000000
0.210000	13.870000	78.690000	994.000000	0.000000	158.000000	55.000000	-7.000000	-221.000000
0.220000	13.770000	76.570000	994.000000	0.000000	158.000000	55.000000	-10.000000	-212.000000
0.230000	13.720000	74.960000	994.000000	0.000000	156.000000	55.000000	-5.000000	-161.000000
0.240000	13.830000	73.700000	992.000000	0.000000	156.000000	55.000000	11.000000	-126.000000
0.250000	14.040000	73.270000	977.000000	0.000000	154.000000	55.000000	21.000000	-43.000000
0.260000	14.160000	73.140000	999.000000	0.000000	154.000000	55.000000	12.000000	-13.000000
0.270000	14.310000	73.210000	1005.000000	0.000000	154.000000	55.000000	15.000000	7.000000
0.280000	14.490000	73.800000	1005.000000	0.000000	153.000000	55.000000	18.000000	59.000000
0.290000	15.040000	75.050000	981.000000	0.000000	153.000000	55.000000	55.000000	125.000000
0.300000	15.550000	76.750000	973.000000	0.000000	154.000000	55.000000	51.000000	170.000000
0.310000	16.040000	78.670000	964.000000	0.000000	154.000000	55.000000	49.000000	192.000000
0.320000	16.710000	80.570000	949.000000	0.000000	155.000000	55.000000	67.000000	190.000000
0.330000	17.390000	81.580000	943.000000	0.000000	157.000000	56.000000	68.000000	101.000000
0.340000	17.680000	82.010000	951.000000	0.000000	158.000000	56.000000	29.000000	43.000000
0.350000	17.680000	81.960000	942.000000	0.000000	160.000000	56.000000	0.000000	-5.000000
0.360000	17.560000	81.640000	944.000000	0.000000	161.000000	57.000000	-12.000000	-32.000000
0.370000	17.510000	81.130000	951.000000	0.000000	163.000000	57.000000	-5.000000	-51.000000
0.380000	17.510000	80.170000	933.000000	0.000000	165.000000	56.000000	0.000000	-96.000000
0.390000	17.590000	79.340000	933.000000	0.000000	165.000000	56.000000	8.000000	-83.000000
0.400000	17.710000	78.610000	935.000000	0.000000	166.000000	56.000000	12.000000	-73.000000
0.410000	17.890000	78.250000	940.000000	0.000000	166.000000	56.000000	18.000000	-36.000000
0.420000	18.070000	78.090000	952.000000	0.000000	166.000000	56.000000	18.000000	-16.000000
0.430000	18.240000	78.090000	973.000000	0.000000	168.000000	56.000000	17.000000	0.000000
0.440000	18.440000	78.170000	974.000000	0.000000	168.000000	56.000000	20.000000	8.000000
0.450000	18.660000	78.520000	973.000000	0.000000	168.000000	56.000000	22.000000	35.000000
0.460000	18.990000	79.030000	974.000000	0.000000	168.000000	56.000000	33.000000	51.000000
0.470000	19.160000	79.160000	973.000000	0.000000	168.000000	56.000000	17.000000	13.000000
0.480000	19.220000	79.160000	968.000000	0.000000	168.000000	55.000000	6.000000	0.000000
0.490000	19.220000	79.160000	974.000000	0.000000	168.000000	55.000000	0.000000	0.000000
0.500000	19.270000	79.050000	973.000000	0.000000	168.000000	55.000000	5.000000	-11.000000
0.510000	19.380000	78.960000	970.000000	0.000000	168.000000	55.000000	11.000000	-9.000000
0.520000	19.520000	78.860000	968.000000	0.000000	169.000000	54.000000	14.000000	-10.000000
0.530000	19.670000	78.760000	915.000000	0.000000	169.000000	54.000000	15.000000	-10.000000
0.540000	19.820000	78.650000	746.000000	0.000000	169.000000	54.000000	15.000000	-11.000000
0.550000	19.880000	78.650000	314.000000	0.000000	168.000000	55.000000	6.000000	0.000000
0.560000	19.880000	78.650000	0.000000	1.000000	168.000000	55.000000	0.000000	0.000000
0.570000	19.780000	78.820000	0.000000	0.000000	168.000000	55.000000	-10.000000	17.000000
0.580000	19.690000	79.360000	0.000000	0.000000	168.000000	55.000000	-9.000000	54.000000
0.590000	19.600000	80.130000	0.000000	0.000000	168.000000	56.000000	-9.000000	77.000000
0.600000	19.750000	80.850000	0.000000	0.000000	166.000000	56.000000	15.000000	72.000000
0.610000	19.990000	81.530000	0.000000	0.000000	165.000000	56.000000	24.000000	68.000000
0.620000	20.280000	82.120000	0.000000	0.000000	165.000000	56.000000	29.000000	59.000000
0.630000	20.550000	82.630000	0.000000	0.000000	163.000000	56.000000	27.000000	51.000000
0.640000	20.810000	82.980000	0.000000	0.000000	163.000000	56.000000	26.000000	35.000000
0.650000	20.980000	83.250000	0.000000	0.000000	163.000000	56.000000	17.000000	27.000000
0.660000	20.980000	83.250000	470.000000	1.000000	162.000000	56.000000	0.000000	0.000000
0.670000	21.020000	83.670000	700.000000	0.000000	163.000000	56.000000	4.000000	42.000000
0.680000	21.020000	83.820000	833.000000	0.000000	164.000000	55.000000	0.000000	15.000000
0.690000	21.020000	83.820000	873.000000	0.000000	164.000000	55.000000	0.000000	0.000000
0.700000	21.020000	83.820000	882.000000	0.000000	166.000000	54.000000	0.000000	0.000000
0.710000	21.020000	83.770000	881.000000	0.000000	166.000000	54.000000	0.000000	-5.000000
0.720000	21.020000	83.770000	834.000000	0.000000	166.000000	54.000000	0.000000	0.000000
0.730000	21.020000	83.770000	737.000000	0.000000	166.000000	54.000000	0.000000	0.000000
0.740000	20.800000	83.660000	578.000000	0.000000	166.000000	53.000000	-22.000000	-11.000000
0.750000	20.500000	83.480000	391.000000	0.000000	166.000000	53.000000	-30.000000	-18.000000
0.760000	20.270000	83.250000	179.000000	0.000000	166.000000	53.000000	-23.000000	-23.000000
0.770000	20.080000	83.100000	101.000000	0.000000	166.000000	53.000000	-19.000000	-15.000000
0.780000	19.960000	82.940000	105.000000	0.000000	166.000000	54.000000	-12.000000	-16.000000
0.790000	19.880000	82.750000	214.000000	0.000000	166.000000	54.000000	-8.000000	-19.000000
0.800000	19.880000	82.540000	389.000000	0.000000	166.000000	54.000000	0.000000	-21.000000
0.810000	19.950000	82.330000	519.000000	0.000000	166.000000	54.000000	7.000000	-21.000000
0.820000	20.060000	82.210000	671.000000	0.000000	166.000000	54.000000	11.000000	-12.000000
0.830000	20.150000	82.140000	785.000000	0.000000	166.000000	54.000000	9.000000	-7.000000
0.840000	20.220000	82.140000	851.000000	0.000000	166.000000	54.000000	7.000000	0.000000
0.850000	20.290000	82.140000	861.000000	0.000000	166.000000	54.000000	7.000000	0.000000
0.860000	20.360000	82.140000	873.000000	0.000000	166.000000	54.000000	7.000000	0.000000
0.870000	20.560000	82.190000	866.000000	0.000000	166.000000	54.000000	20.000000	5.000000
0.880000	20.840000	82.250000	724.000000	0.000000	166.000000	54.000000	28.000000	6.000000
0.890000	21.130000	82.250000	394.000000	0.000000	166.000000	54.000000	29.000000	0.000000
0.900000	21.130000	82.250000	0.000000	1.000000	166.000000	54.000000	0.000000	0.000000
0.910000	21.750000	82.370000	0.000000	0.000000	166.000000	54.000000	62.000000	12.000000
0.920000	22.040000	82.540000	0.000000	0.000000	166.000000	54.000000	29.000000	17.000000
0.930000	22.310000	82.790000	0.000000	0.000000	166.000000	54.000000	27.000000	25.000000
0.940000	22.630000	83.090000	0.000000	0.000000	166.000000	54.000000	32.000000	30.000000
0.950000	22.910000	83.480000	0.000000	0.000000	164.000000	54.000000	28.000000	39.000000
0.960000	23.070000	83.930000	0.000000	0.000000	164.000000	54.000000	16.000000	45.000000
0.970000	23.070000	83.930000	253.000000	1.000000	164.000000	54.000000	0.000000	0.000000
0.980000	23.060000	84.840000	460.000000	0.000000	164.000000	54.000000	-1.000000	91.000000
0.990000	22.950000	85.280000	664.000000	0.000000	166.000000	53.000000	-11.000000	44.000000
1.000000	22.840000	85.730000	761.000000	0.000000	166.000000	53.000000	-11.000000	45.000000
1.010000	22.840000	85.730000	787.000000	0.000000	166.000000	53.000000	0.000000	0.000000
1.020000	22.840000	85.260000	861.000000	0.000000	166.000000	53.000000	0.000000	-47.000000
1.030000	22.840000	84.560000	908.000000	0.000000	166.000000	53.000000	0.000000	-70.000000
1.040000	22.730000	83.080000	950.000000	0.000000	166.000000	54.000000	-11.000000	-148.000000
1.050000	22.590000	81.230000	965.000000	0.000000	166.000000	54.000000	-14.000000	-185.000000
1.060000	22.420000	79.130000	983.000000	0.000000	166.000000	54.000000	-17.000000	-210.000000
1.070000	22.170000	77.170000	992.000000	0.000000	165.000000	55.000000	-25.000000	-196.000000
1.080000	21.860000	75.330000	995.000000	0.000000	165.000000	55.000000	-31.000000	-184.000000
1.090000	21.630000	73.560000	978.000000	0.000000	165.000000	55.000000	-23.000000	-177.000000
1.100000	21.520000	72.770000	984.000000	0.000000	163.000000	56.000000	-11.000000	-79.000000
1.110000	21.520000	72.370000	991.000000	0.000000	163.000000	56.000000	0.000000	-40.000000
1.120000	21.460000	72.230000	1021.000000	0.000000	163.000000	56.000000	-6.000000	-14.000000
1.130000	21.460000	72.290000	1014.000000	0.000000	161.000000	57.000000	0.000000	6.000000
1.140000	21.350000	72.830000	979.000000	0.000000	161.000000	57.000000	-11.000000	54.000000
1.150000	21.220000	73.700000	940.000000	0.000000	161.000000	57.000000	-13.000000	87.000000
1.160000	21.280000	75.250000	935.000000	0.000000	159.000000	57.000000	6.000000	155.000000
1.170000	21.590000	76.770000	923.000000	0.000000	159.000000	57.000000	31.000000	152.000000
1.180000	22.060000	77.810000	915.000000	0.000000	161.000000	57.000000	47.000000	104.000000
1.190000	22.680000	78.540000	915.000000	0.000000	161.000000	57.000000	62.000000	73.000000
1.200000	23.210000	78.960000	918.000000	0.000000	161.000000	57.000000	53.000000	42.000000
1.210000	23.690000	79.100000	921.000000	0.000000	163.000000	57.000000	48.000000	14.000000
1.220000	24.190000	79.100000	923.000000	0.000000	163.000000	57.000000	50.000000	0.000000
1.230000	24.710000	79.100000	926.000000	0.000000	163.000000	56.000000	52.000000	0.000000
1.240000	25.280000	79.100000	927.000000	0.000000	165.000000	56.000000	57.000000	0.000000
1.250000	25.750000	79.230000	929.000000	0.000000	165.000000	55.000000	47.000000	13.000000
1.260000	26.160000	79.400000	929.000000	0.000000	167.000000	55.000000	41.000000	17.000000
1.270000	26.530000	79.780000	930.000000	0.000000	167.000000	54.000000	37.000000	38.000000
1.280000	26.770000	80.230000	932.000000	0.000000	167.000000	54.000000	24.000000	45.000000
1.290000	26.930000	80.740000	933.000000	0.000000	169.000000	54.000000	16.000000	51.000000
1.300000	26.930000	81.220000	932.000000	0.000000	169.000000	54.000000	0.000000	48.000000
1.310000	26.730000	81.660000	932.000000	0.000000	169.000000	54.000000	-20.000000	44.000000
1.320000	26.480000	81.850000	923.000000	0.000000	169.000000	54.000000	-25.000000	19.000000
1.330000	26.140000	81.900000	914.000000	0.000000	169.000000	54.000000	-34.000000	5.000000
1.340000	25.710000	81.720000	906.000000	0.000000	169.000000	54.000000	-43.000000	-18.000000
1.350000	25.230000	81.330000	899.000000	0.000000	169.000000	54.000000	-48.000000	-39.000000
1.360000	24.930000	80.790000	896.000000	0.000000	167.000000	54.000000	-30.000000	-54.000000
1.370000	24.810000	80.270000	908.000000	0.000000	167.000000	54.000000	-12.000000	-52.000000
1.380000	24.810000	79.970000	899.000000	0.000000	166.000000	54.000000	0.000000	-30.000000
1.390000	24.920000	79.820000	900.000000	0.000000	166.000000	54.000000	11.000000	-15.000000
1.400000	25.060000	79.760000	905.000000	0.000000	164.000000	55.000000	14.000000	-6.000000
1.410000	25.380000	79.890000	906.000000	0.000000	164.000000	55.000000	32.000000	13.000000
1.420000	25.810000	80.160000	908.000000	0.000000	164.000000	55.000000	43.000000	27.000000
1.430000	26.310000	80.560000	906.000000	0.000000	164.000000	55.000000	50.000000	40.000000
1.440000	26.830000	81.000000	906.000000	0.000000	165.000000	55.000000	52.000000	44.000000
1.450000	27.370000	81.460000	906.000000	0.000000	165.000000	55.000000	54.000000	46.000000
1.460000	27.810000	81.720000	908.000000	0.000000	167.000000	55.000000	44.000000	26.000000
1.470000	28.200000	81.790000	906.000000	0.000000	168.000000	55.000000	39.000000	7.000000
1.480000	28.480000	81.730000	906.000000	0.000000	170.000000	56.000000	28.000000	-6.000000
1.490000	28.660000	81.510000	908.000000	0.000000	171.000000	55.000000	18.000000	-22.000000
1.500000	28.770000	81.230000	905.000000	0.000000	173.000000	55.000000	11.000000	-28.000000
1.510000	28.770000	80.880000	905.000000	0.000000	174.000000	55.000000	0.000000	-35.000000
1.520000	28.710000	80.520000	903.000000	0.000000	176.000000	54.000000	-6.000000	-36.000000
1.530000	28.550000	80.200000	900.000000	0.000000	177.000000	55.000000	-16.000000	-32.000000
1.540000	28.300000	79.910000	891.000000	0.000000	177.000000	55.000000	-25.000000	-29.000000
1.550000	28.040000	79.650000	875.000000	0.000000	177.000000	55.000000	-26.000000	-26.000000
1.560000	27.780000	79.570000	855.000000	0.000000	177.000000	56.000000	-26.000000	-8.000000
1.570000	27.500000	79.620000	845.000000	0.000000	176.000000	56.000000	-28.000000	5.000000
1.580000	27.250000	79.750000	827.000000	0.000000	175.000000	57.000000	-25.000000	13.000000
1.590000	27.180000	79.990000	824.000000	0.000000	174.000000	57.000000	-7.000000	24.000000
1.600000	27.180000	80.300000	824.000000	0.000000	172.000000	57.000000	0.000000	31.000000
1.610000	27.450000	80.580000	827.000000	0.000000	172.000000	57.000000	27.000000	28.000000
1.620000	27.730000	80.820000	833.000000	0.000000	171.000000	57.000000	28.000000	24.000000
1.630000	28.080000	80.990000	852.000000	0.000000	171.000000	57.000000	35.000000	17.000000
1.640000	28.380000	80.990000	858.000000	0.000000	173.000000	56.000000	30.000000	0.000000
1.650000	28.700000	80.920000	861.000000	0.000000	173.000000	56.000000	32.000000	-7.000000
1.660000	29.050000	80.850000	873.000000	0.000000	173.000000	56.000000	35.000000	-7.000000
1.670000	29.150000	80.790000	875.000000	0.000000	174.000000	56.000000	10.000000	-6.000000
1.680000	29.200000	80.730000	890.000000	0.000000	174.000000	55.000000	5.000000	-6.000000
1.690000	29.200000	80.730000	897.000000	0.000000	176.000000	55.000000	0.000000	0.000000
1.700000	29.200000	80.730000	924.000000	0.000000	176.000000	55.000000	0.000000	0.000000
1.710000	29.200000	80.730000	926.000000	0.000000	176.000000	55.000000	0.000000	0.000000
1.720000	29.200000	80.730000	921.000000	0.000000	176.000000	55.000000	0.000000	0.000000
1.730000	29.200000	80.730000	920.000000	0.000000	176.000000	55.000000	0.000000	0.000000
1.740000	29.200000	80.480000	921.000000	0.000000	176.000000	55.000000	0.000000	-25.000000
1.750000	29.510000	80.150000	924.000000	0.000000	176.000000	55.000000	31.000000	-33.000000
1.760000	30.250000	79.670000	926.000000	0.000000	176.000000	55.000000	74.000000	-48.000000
1.770000	31.300000	79.190000	926.000000	0.000000	176.000000	55.000000	105.000000	-48.000000
1.780000	32.850000	78.740000	926.000000	0.000000	176.000000	55.000000	155.000000	-45.000000
1.790000	34.410000	78.440000	926.000000	0.000000	175.000000	54.000000	156.000000	-30.000000
1.800000	35.980000	78.210000	924.000000	0.000000	175.000000	54.000000	157.000000	-23.000000
1.810000	37.290000	78.140000	927.000000	0.000000	175.000000	54.000000	131.000000	-7.000000
1.820000	38.440000	78.080000	926.000000	0.000000	175.000000	54.000000	115.000000	-6.000000
1.830000	39.010000	78.080000	923.000000	0.000000	175.000000	54.000000	57.000000	0.000000
1.840000	39.090000	78.000000	917.000000	0.000000	176.000000	54.000000	8.000000	-8.000000
1.850000	38.850000	77.940000	917.000000	0.000000	177.000000	53.000000	-24.000000	-6.000000
1.860000	38.330000	77.880000	917.000000	0.000000	179.000000	53.000000	-52.000000	-6.000000
1.870000	37.110000	77.620000	915.000000	0.000000	180.000000	54.000000	-122.000000	-26.000000
1.880000	35.420000	77.330000	912.000000	0.000000	180.000000	54.000000	-169.000000	-29.000000
1.890000	33.310000	76.960000	908.000000	0.000000	180.000000	54.000000	-211.000000	-37.000000
1.900000	30.230000	76.530000	911.000000	0.000000	180.000000	54.000000	-308.000000	-43.000000
1.910000	26.510000	76.070000	915.000000	0.000000	180.000000	54.000000	-372.000000	-46.000000
1.920000	22.550000	75.590000	912.000000	0.000000	179.000000	54.000000	-396.000000	-48.000000
1.930000	18.620000	74.950000	912.000000	0.000000	177.000000	54.000000	-393.000000	-64.000000
1.940000	15.720000	74.410000	915.000000	0.000000	176.000000	54.000000	-290.000000	-54.000000
1.950000	13.510000	73.930000	914.000000	0.000000	173.000000	54.000000	-221.000000	-48.000000
1.960000	12.700000	73.650000	911.000000	0.000000	172.000000	54.000000	-81.000000	-28.000000
1.970000	12.380000	73.530000	881.000000	0.000000	169.000000	53.000000	-32.000000	-12.000000
1.980000	12.380000	73.530000	787.000000	0.000000	166.000000	53.000000	0.000000	0.000000
1.990000	12.630000	73.580000	399.000000	0.000000	165.000000	53.000000	25.000000	5.000000
2.000000	12.630000	73.580000	0.000000	1.000000	162.000000	53.000000	0.000000	0.000000
2.010000	14.200000	74.140000	0.000000	0.000000	161.000000	52.000000	157.000000	56.000000
2.020000	14.910000	74.850000	0.000000	0.000000	160.000000	52.000000	71.000000	71.000000
2.030000	15.660000	75.530000	0.000000	0.000000	160.000000	52.000000	75.000000	68.000000
2.040000	16.490000	76.150000	0.000000	0.000000	161.000000	52.000000	83.000000	62.000000
2.050000	17.380000	76.600000	0.000000	0.000000	163.000000	52.000000	89.000000	45.000000
2.060000	17.970000	76.950000	0.000000	0.000000	163.000000	52.000000	59.000000	35.000000
2.070000	18.360000	77.350000	0.000000	0.000000	165.000000	51.000000	39.000000	40.000000
2.080000	18.450000	77.680000	0.000000	0.000000	167.000000	50.000000	9.000000	33.000000
2.090000	18.450000	77.960000	0.000000	0.000000	168.000000	50.000000	0.000000	28.000000
2.100000	18.320000	78.100000	0.000000	0.000000	168.000000	50.000000	-13.000000	14.000000
2.110000	18.320000	78.200000	0.000000	0.000000	169.000000	50.000000	0.000000	10.000000
2.120000	18.540000	78.200000	0.000000	0.000000	169.000000	50.000000	22.000000	0.000000
2.130000	18.880000	78.070000	0.000000	0.000000	169.000000	50.000000	34.000000	-13.000000
2.140000	18.880000	78.070000	208.000000	1.000000	170.000000	52.000000	0.000000	0.000000
2.150000	19.920000	77.580000	218.000000	0.000000	169.000000	53.000000	104.000000	-49.000000
2.160000	20.280000	77.480000	386.000000	0.000000	170.000000	54.000000	36.000000	-10.000000
2.170000	20.530000	77.480000	518.000000	0.000000	170.000000	55.000000	25.000000	0.000000
2.180000	20.770000	77.480000	641.000000	0.000000	171.000000	55.000000	24.000000	0.000000
2.190000	20.830000	77.480000	740.000000	0.000000	171.000000	56.000000	6.000000	0.000000
2.200000	20.760000	77.550000	785.000000	0.000000	171.000000	56.000000	-7.000000	7.000000
