t	x	y	pressure	penup	azimuth	inclination	v_x	v_y
0.000000	54.520000	81.410000	47.000000	1.000000	127.000000	53.000000	0.000000	0.000000
0.010000	55.520000	81.820000	267.000000	0.000000	127.000000	53.000000	100.000000	41.000000
0.020000	55.320000	82.170000	320.000000	0.000000	128.000000	54.000000	-20.000000	35.000000
0.030000	55.240000	82.170000	400.000000	0.000000	128.000000	54.000000	-8.000000	0.000000
0.040000	55.120000	81.670000	468.000000	0.000000	130.000000	54.000000	-12.000000	-50.000000
0.050000	54.960000	80.920000	507.000000	0.000000	130.000000	54.000000	-16.000000	-75.000000
0.060000	53.680000	78.950000	540.000000	0.000000	130.000000	54.000000	-128.000000	-197.000000
0.070000	52.310000	76.930000	536.000000	0.000000	131.000000	55.000000	-137.000000	-202.000000
0.080000	50.880000	74.650000	501.000000	0.000000	130.000000	55.000000	-143.000000	-228.000000
0.090000	49.560000	72.220000	461.000000	0.000000	130.000000	55.000000	-132.000000	-243.000000
0.100000	48.730000	70.540000	441.000000	0.000000	129.000000	56.000000	-83.000000	-168.000000
0.110000	48.220000	69.840000	418.000000	0.000000	129.000000	56.000000	-51.000000	-70.000000
0.120000	48.170000	69.840000	396.000000	0.000000	127.000000	56.000000	-5.000000	0.000000
0.130000	48.410000	70.320000	369.000000	0.000000	127.000000	56.000000	24.000000	48.000000
0.140000	48.840000	72.030000	361.000000	0.000000	126.000000	57.000000	43.000000	171.000000
0.150000	49.820000	74.540000	376.000000	0.000000	126.000000	57.000000	98.000000	251.000000
0.160000	51.070000	77.200000	410.000000	0.000000	126.000000	57.000000	125.000000	266.000000
0.170000	52.500000	80.030000	463.000000	0.000000	124.000000	57.000000	143.000000	283.000000
0.180000	53.880000	82.980000	489.000000	0.000000	124.000000	57.000000	138.000000	295.000000
0.190000	54.550000	84.090000	524.000000	0.000000	124.000000	57.000000	67.000000	111.000000
0.200000	54.740000	84.420000	564.000000	0.000000	124.000000	57.000000	19.000000	33.000000
0.210000	54.680000	84.220000	577.000000	0.000000	124.000000	57.000000	-6.000000	-20.000000
0.220000	54.270000	83.720000	594.000000	0.000000	124.000000	57.000000	-41.000000	-50.000000
0.230000	53.620000	82.150000	595.000000	0.000000	124.000000	57.000000	-65.000000	-157.000000
0.240000	52.590000	79.860000	595.000000	0.000000	124.000000	57.000000	-103.000000	-229.000000
0.250000	51.590000	77.190000	512.000000	0.000000	124.000000	57.000000	-100.000000	-267.000000
0.260000	51.590000	75.160000	455.000000	0.000000	124.000000	57.000000	0.000000	-203.000000
0.270000	52.190000	73.560000	468.000000	0.000000	126.000000	57.000000	60.000000	-160.000000
0.280000	53.930000	73.260000	496.000000	0.000000	126.000000	57.000000	174.000000	-30.000000
0.290000	56.270000	74.030000	538.000000	0.000000	126.000000	57.000000	234.000000	77.000000
0.300000	59.020000	75.520000	548.000000	0.000000	126.000000	57.000000	275.000000	149.000000
0.310000	61.460000	77.080000	556.000000	0.000000	126.000000	57.000000	244.000000	156.000000
0.320000	63.510000	79.140000	516.000000	0.000000	126.000000	57.000000	205.000000	206.000000
0.330000	65.290000	81.530000	515.000000	0.000000	126.000000	57.000000	178.000000	239.000000
0.340000	66.150000	84.370000	545.000000	0.000000	127.000000	57.000000	86.000000	284.000000
0.350000	65.790000	85.900000	561.000000	0.000000	127.000000	57.000000	-36.000000	153.000000
0.360000	64.610000	86.560000	616.000000	0.000000	128.000000	57.000000	-118.000000	66.000000
0.370000	62.410000	86.110000	622.000000	0.000000	128.000000	57.000000	-220.000000	-45.000000
0.380000	59.510000	84.590000	652.000000	0.000000	130.000000	58.000000	-290.000000	-152.000000
0.390000	56.130000	82.370000	737.000000	0.000000	130.000000	58.000000	-338.000000	-222.000000
0.400000	52.370000	79.080000	749.000000	0.000000	130.000000	58.000000	-376.000000	-329.000000
0.410000	50.290000	76.150000	700.000000	0.000000	131.000000	58.000000	-208.000000	-293.000000
0.420000	49.320000	73.460000	664.000000	0.000000	131.000000	58.000000	-97.000000	-269.000000
0.430000	50.660000	71.510000	637.000000	0.000000	131.000000	58.000000	134.000000	-195.000000
0.440000	53.300000	70.820000	638.000000	0.000000	131.000000	58.000000	264.000000	-69.000000
0.450000	56.800000	70.980000	638.000000	0.000000	132.000000	59.000000	350.000000	16.000000
0.460000	60.050000	72.150000	640.000000	0.000000	132.000000	59.000000	325.000000	117.000000
0.470000	62.630000	73.620000	662.000000	0.000000	132.000000	59.000000	258.000000	147.000000
0.480000	64.760000	75.280000	673.000000	0.000000	131.000000	60.000000	213.000000	166.000000
0.490000	66.170000	77.030000	690.000000	0.000000	131.000000	60.000000	141.000000	175.000000
0.500000	66.520000	78.760000	716.000000	0.000000	131.000000	60.000000	35.000000	173.000000
0.510000	66.160000	80.480000	743.000000	0.000000	131.000000	60.000000	-36.000000	172.000000
0.520000	64.740000	81.190000	753.000000	0.000000	131.000000	61.000000	-142.000000	71.000000
0.530000	62.530000	81.060000	763.000000	0.000000	131.000000	61.000000	-221.000000	-13.000000
0.540000	59.790000	80.380000	780.000000	0.000000	131.000000	61.000000	-274.000000	-68.000000
0.550000	56.800000	78.660000	784.000000	0.000000	131.000000	61.000000	-299.000000	-172.000000
0.560000	54.000000	76.530000	800.000000	0.000000	132.000000	61.000000	-280.000000	-213.000000
0.570000	51.320000	74.130000	768.000000	0.000000	132.000000	61.000000	-268.000000	-240.000000
0.580000	50.580000	72.100000	724.000000	0.000000	132.000000	61.000000	-74.000000	-203.000000
0.590000	51.750000	70.620000	685.000000	0.000000	132.000000	61.000000	117.000000	-148.000000
0.600000	54.180000	69.510000	662.000000	0.000000	132.000000	61.000000	243.000000	-111.000000
0.610000	57.450000	69.600000	655.000000	0.000000	133.000000	62.000000	327.000000	9.000000
0.620000	60.520000	70.440000	664.000000	0.000000	133.000000	62.000000	307.000000	84.000000
0.630000	63.460000	71.780000	699.000000	0.000000	133.000000	62.000000	294.000000	134.000000
0.640000	65.650000	73.060000	697.000000	0.000000	137.000000	62.000000	219.000000	128.000000
0.650000	67.410000	74.590000	752.000000	0.000000	137.000000	62.000000	176.000000	153.000000
0.660000	68.870000	76.290000	791.000000	0.000000	137.000000	62.000000	146.000000	170.000000
0.670000	69.680000	77.630000	824.000000	0.000000	138.000000	63.000000	81.000000	134.000000
0.680000	69.870000	78.550000	851.000000	0.000000	138.000000	63.000000	19.000000	92.000000
0.690000	69.650000	79.190000	863.000000	0.000000	137.000000	63.000000	-22.000000	64.000000
0.700000	69.060000	79.650000	860.000000	0.000000	137.000000	63.000000	-59.000000	46.000000
0.710000	67.690000	79.570000	867.000000	0.000000	138.000000	64.000000	-137.000000	-8.000000
0.720000	65.810000	79.130000	854.000000	0.000000	138.000000	64.000000	-188.000000	-44.000000
0.730000	63.590000	78.240000	845.000000	0.000000	138.000000	64.000000	-222.000000	-89.000000
0.740000	62.380000	77.500000	763.000000	0.000000	140.000000	65.000000	-121.000000	-74.000000
0.750000	61.830000	76.850000	710.000000	0.000000	140.000000	65.000000	-55.000000	-65.000000
0.760000	62.450000	76.210000	661.000000	0.000000	142.000000	65.000000	62.000000	-64.000000
0.770000	64.080000	76.030000	563.000000	0.000000	142.000000	65.000000	163.000000	-18.000000
0.780000	66.380000	76.150000	485.000000	0.000000	144.000000	66.000000	230.000000	12.000000
0.790000	69.120000	76.880000	492.000000	0.000000	145.000000	65.000000	274.000000	73.000000
0.800000	71.020000	77.580000	580.000000	0.000000	145.000000	65.000000	190.000000	70.000000
0.810000	72.360000	78.260000	685.000000	0.000000	147.000000	65.000000	134.000000	68.000000
0.820000	72.890000	78.740000	749.000000	0.000000	147.000000	65.000000	53.000000	48.000000
0.830000	72.560000	79.120000	757.000000	0.000000	147.000000	65.000000	-33.000000	38.000000
0.840000	71.660000	79.440000	749.000000	0.000000	147.000000	65.000000	-90.000000	32.000000
0.850000	69.150000	79.280000	802.000000	0.000000	149.000000	66.000000	-251.000000	-16.000000
0.860000	65.040000	78.280000	861.000000	0.000000	149.000000	66.000000	-411.000000	-100.000000
0.870000	59.870000	76.730000	934.000000	0.000000	149.000000	66.000000	-517.000000	-155.000000
0.880000	54.330000	74.360000	993.000000	0.000000	152.000000	65.000000	-554.000000	-237.000000
0.890000	48.850000	71.280000	1017.000000	0.000000	152.000000	65.000000	-548.000000	-308.000000
0.900000	43.420000	67.740000	1023.000000	0.000000	152.000000	65.000000	-543.000000	-354.000000
0.910000	39.960000	65.650000	999.000000	0.000000	152.000000	65.000000	-346.000000	-209.000000
0.920000	38.960000	64.920000	881.000000	0.000000	149.000000	66.000000	-100.000000	-73.000000
0.930000	39.600000	65.110000	752.000000	0.000000	149.000000	66.000000	64.000000	19.000000
0.940000	40.960000	65.290000	369.000000	0.000000	149.000000	66.000000	136.000000	18.000000
