t	x	y	pressure	penup	azimuth	inclination	v_x	v_y
0.000000	86.220000	43.070000	18.000000	1.000000	149.000000	53.000000	0.000000	0.000000
0.010000	86.050000	42.670000	53.000000	0.000000	149.000000	53.000000	-17.000000	-40.000000
0.020000	85.990000	42.480000	99.000000	0.000000	149.000000	53.000000	-6.000000	-19.000000
0.030000	85.990000	42.330000	134.000000	0.000000	149.000000	53.000000	0.000000	-15.000000
0.040000	85.920000	42.220000	172.000000	0.000000	149.000000	53.000000	-7.000000	-11.000000
0.050000	85.920000	42.220000	217.000000	0.000000	149.000000	53.000000	0.000000	0.000000
0.060000	85.920000	42.220000	275.000000	0.000000	149.000000	53.000000	0.000000	0.000000
0.070000	86.030000	42.220000	316.000000	0.000000	149.000000	53.000000	11.000000	0.000000
0.080000	86.180000	42.520000	367.000000	0.000000	149.000000	53.000000	15.000000	30.000000
0.090000	86.510000	43.000000	425.000000	0.000000	148.000000	54.000000	33.000000	48.000000
0.100000	86.960000	43.620000	436.000000	0.000000	148.000000	54.000000	45.000000	62.000000
0.110000	87.420000	44.360000	448.000000	0.000000	148.000000	54.000000	46.000000	74.000000
0.120000	87.850000	45.100000	452.000000	0.000000	148.000000	54.000000	43.000000	74.000000
0.130000	88.270000	45.930000	458.000000	0.000000	148.000000	54.000000	42.000000	83.000000
0.140000	88.730000	46.810000	450.000000	0.000000	150.000000	54.000000	46.000000	88.000000
0.150000	89.190000	47.700000	447.000000	0.000000	150.000000	54.000000	46.000000	89.000000
0.160000	89.620000	48.350000	440.000000	0.000000	150.000000	54.000000	43.000000	65.000000
0.170000	89.850000	48.830000	443.000000	0.000000	151.000000	54.000000	23.000000	48.000000
0.180000	89.960000	48.970000	442.000000	0.000000	151.000000	54.000000	11.000000	14.000000
0.190000	89.960000	48.920000	449.000000	0.000000	153.000000	54.000000	0.000000	-5.000000
0.200000	89.960000	48.750000	448.000000	0.000000	153.000000	54.000000	0.000000	-17.000000
0.210000	90.030000	48.160000	443.000000	0.000000	153.000000	54.000000	7.000000	-59.000000
0.220000	90.090000	47.360000	446.000000	0.000000	156.000000	53.000000	6.000000	-80.000000
0.230000	90.190000	46.410000	439.000000	0.000000	156.000000	53.000000	10.000000	-95.000000
0.240000	90.360000	45.460000	440.000000	0.000000	156.000000	55.000000	17.000000	-95.000000
0.250000	90.580000	44.560000	443.000000	0.000000	156.000000	55.000000	22.000000	-90.000000
0.260000	90.820000	43.850000	445.000000	0.000000	158.000000	55.000000	24.000000	-71.000000
0.270000	91.100000	43.260000	443.000000	0.000000	158.000000	55.000000	28.000000	-59.000000
0.280000	91.390000	42.890000	445.000000	0.000000	159.000000	55.000000	29.000000	-37.000000
0.290000	91.670000	42.640000	450.000000	0.000000	158.000000	56.000000	28.000000	-25.000000
0.300000	91.790000	42.480000	448.000000	0.000000	158.000000	56.000000	12.000000	-16.000000
0.310000	91.790000	42.480000	453.000000	0.000000	157.000000	56.000000	0.000000	0.000000
0.320000	91.790000	42.600000	455.000000	0.000000	157.000000	56.000000	0.000000	12.000000
0.330000	91.510000	42.770000	445.000000	0.000000	156.000000	55.000000	-28.000000	17.000000
0.340000	91.160000	43.100000	446.000000	0.000000	156.000000	55.000000	-35.000000	33.000000
0.350000	90.650000	43.420000	446.000000	0.000000	156.000000	55.000000	-51.000000	32.000000
0.360000	90.070000	43.710000	446.000000	0.000000	156.000000	55.000000	-58.000000	29.000000
0.370000	89.440000	43.910000	440.000000	0.000000	156.000000	55.000000	-63.000000	20.000000
0.380000	88.750000	43.970000	440.000000	0.000000	156.000000	55.000000	-69.000000	6.000000
0.390000	88.110000	43.970000	441.000000	0.000000	155.000000	54.000000	-64.000000	0.000000
0.400000	87.690000	43.970000	436.000000	0.000000	155.000000	54.000000	-42.000000	0.000000
0.410000	87.400000	43.920000	433.000000	0.000000	153.000000	54.000000	-29.000000	-5.000000
0.420000	87.400000	43.920000	430.000000	0.000000	153.000000	54.000000	0.000000	0.000000
0.430000	87.530000	43.920000	430.000000	0.000000	152.000000	54.000000	13.000000	0.000000
0.440000	87.970000	44.120000	431.000000	0.000000	152.000000	54.000000	44.000000	20.000000
0.450000	88.620000	44.430000	430.000000	0.000000	151.000000	53.000000	65.000000	31.000000
0.460000	89.610000	44.830000	427.000000	0.000000	152.000000	54.000000	99.000000	40.000000
0.470000	90.530000	45.290000	425.000000	0.000000	151.000000	54.000000	92.000000	46.000000
0.480000	91.400000	45.740000	427.000000	0.000000	153.000000	55.000000	87.000000	45.000000
0.490000	92.160000	46.190000	433.000000	0.000000	154.000000	55.000000	76.000000	45.000000
0.500000	92.790000	46.540000	423.000000	0.000000	154.000000	55.000000	63.000000	35.000000
0.510000	93.340000	46.830000	430.000000	0.000000	155.000000	55.000000	55.000000	29.000000
0.520000	93.750000	47.030000	430.000000	0.000000	157.000000	56.000000	41.000000	20.000000
0.530000	93.920000	47.100000	433.000000	0.000000	157.000000	56.000000	17.000000	7.000000
0.540000	93.920000	47.100000	435.000000	0.000000	157.000000	56.000000	0.000000	0.000000
0.550000	93.920000	47.100000	428.000000	0.000000	157.000000	56.000000	0.000000	0.000000
0.560000	93.860000	47.100000	428.000000	0.000000	158.000000	55.000000	-6.000000	0.000000
0.570000	93.710000	47.030000	422.000000	0.000000	158.000000	55.000000	-15.000000	-7.000000
0.580000	93.370000	46.890000	407.000000	0.000000	158.000000	55.000000	-34.000000	-14.000000
0.590000	92.890000	46.700000	371.000000	0.000000	158.000000	54.000000	-48.000000	-19.000000
0.600000	92.310000	46.510000	359.000000	0.000000	159.000000	55.000000	-58.000000	-19.000000
0.610000	91.840000	46.330000	351.000000	0.000000	159.000000	55.000000	-47.000000	-18.000000
0.620000	91.410000	46.200000	353.000000	0.000000	159.000000	55.000000	-43.000000	-13.000000
0.630000	91.210000	46.110000	356.000000	0.000000	160.000000	55.000000	-20.000000	-9.000000
0.640000	91.130000	46.110000	359.000000	0.000000	160.000000	56.000000	-8.000000	0.000000
0.650000	91.280000	46.110000	366.000000	0.000000	160.000000	56.000000	15.000000	0.000000
0.660000	91.730000	46.250000	373.000000	0.000000	160.000000	56.000000	45.000000	14.000000
0.670000	92.390000	46.450000	371.000000	0.000000	160.000000	56.000000	66.000000	20.000000
0.680000	93.210000	46.610000	389.000000	0.000000	160.000000	56.000000	82.000000	16.000000
0.690000	94.040000	46.700000	397.000000	0.000000	160.000000	56.000000	83.000000	9.000000
0.700000	94.720000	46.700000	405.000000	0.000000	160.000000	56.000000	68.000000	0.000000
0.710000	95.310000	46.700000	402.000000	0.000000	160.000000	56.000000	59.000000	0.000000
0.720000	95.730000	46.620000	397.000000	0.000000	158.000000	56.000000	42.000000	-8.000000
0.730000	95.990000	46.470000	400.000000	0.000000	159.000000	55.000000	26.000000	-15.000000
0.740000	96.140000	46.260000	400.000000	0.000000	159.000000	55.000000	15.000000	-21.000000
0.750000	96.140000	46.020000	405.000000	0.000000	157.000000	56.000000	0.000000	-24.000000
0.760000	95.790000	45.720000	404.000000	0.000000	157.000000	56.000000	-35.000000	-30.000000
0.770000	95.260000	45.390000	415.000000	0.000000	157.000000	56.000000	-53.000000	-33.000000
0.780000	94.550000	45.030000	420.000000	0.000000	157.000000	56.000000	-71.000000	-36.000000
0.790000	93.770000	44.660000	427.000000	0.000000	157.000000	56.000000	-78.000000	-37.000000
0.800000	92.930000	44.310000	427.000000	0.000000	157.000000	56.000000	-84.000000	-35.000000
0.810000	92.270000	44.030000	418.000000	0.000000	158.000000	56.000000	-66.000000	-28.000000
0.820000	91.880000	43.800000	435.000000	0.000000	158.000000	56.000000	-39.000000	-23.000000
0.830000	91.680000	43.710000	415.000000	0.000000	158.000000	56.000000	-20.000000	-9.000000
0.840000	91.680000	43.710000	402.000000	0.000000	160.000000	55.000000	0.000000	0.000000
0.850000	91.780000	43.710000	396.000000	0.000000	160.000000	55.000000	10.000000	0.000000
0.860000	91.920000	43.710000	392.000000	0.000000	162.000000	56.000000	14.000000	0.000000
0.870000	92.150000	43.790000	394.000000	0.000000	162.000000	56.000000	23.000000	8.000000
0.880000	92.600000	43.890000	381.000000	0.000000	163.000000	55.000000	45.000000	10.000000
0.890000	93.180000	44.050000	377.000000	0.000000	163.000000	55.000000	58.000000	16.000000
0.900000	93.800000	44.190000	381.000000	0.000000	163.000000	55.000000	62.000000	14.000000
0.910000	94.420000	44.330000	379.000000	0.000000	161.000000	55.000000	62.000000	14.000000
0.920000	95.030000	44.330000	382.000000	0.000000	161.000000	55.000000	61.000000	0.000000
0.930000	95.540000	44.380000	381.000000	0.000000	161.000000	55.000000	51.000000	5.000000
0.940000	96.000000	44.380000	381.000000	0.000000	160.000000	54.000000	46.000000	0.000000
0.950000	96.380000	44.290000	382.000000	0.000000	160.000000	54.000000	38.000000	-9.000000
0.960000	96.600000	44.140000	381.000000	0.000000	160.000000	54.000000	22.000000	-15.000000
0.970000	96.700000	44.000000	381.000000	0.000000	160.000000	54.000000	10.000000	-14.000000
0.980000	96.700000	43.820000	389.000000	0.000000	158.000000	54.000000	0.000000	-18.000000
0.990000	96.450000	43.610000	389.000000	0.000000	158.000000	54.000000	-25.000000	-21.000000
1.000000	96.050000	43.360000	394.000000	0.000000	158.000000	54.000000	-40.000000	-25.000000
1.010000	95.380000	43.130000	394.000000	0.000000	158.000000	54.000000	-67.000000	-23.000000
1.020000	94.650000	42.920000	404.000000	0.000000	158.000000	54.000000	-73.000000	-21.000000
1.030000	93.880000	42.760000	407.000000	0.000000	158.000000	54.000000	-77.000000	-16.000000
1.040000	93.130000	42.620000	422.000000	0.000000	157.000000	54.000000	-75.000000	-14.000000
1.050000	92.610000	42.490000	425.000000	0.000000	157.000000	54.000000	-52.000000	-13.000000
1.060000	92.240000	42.390000	425.000000	0.000000	157.000000	54.000000	-37.000000	-10.000000
1.070000	92.240000	42.330000	418.000000	0.000000	158.000000	53.000000	0.000000	-6.000000
1.080000	92.240000	42.330000	425.000000	0.000000	159.000000	53.000000	0.000000	0.000000
1.090000	92.380000	42.330000	422.000000	0.000000	159.000000	53.000000	14.000000	0.000000
1.100000	92.750000	42.330000	404.000000	0.000000	159.000000	53.000000	37.000000	0.000000
1.110000	93.280000	42.420000	398.000000	0.000000	159.000000	53.000000	53.000000	9.000000
1.120000	93.970000	42.550000	387.000000	0.000000	159.000000	53.000000	69.000000	13.000000
1.130000	94.530000	42.670000	387.000000	0.000000	159.000000	53.000000	56.000000	12.000000
1.140000	94.990000	42.790000	391.000000	0.000000	158.000000	53.000000	46.000000	12.000000
1.150000	95.370000	42.890000	393.000000	0.000000	158.000000	53.000000	38.000000	10.000000
1.160000	95.710000	43.000000	391.000000	0.000000	158.000000	53.000000	34.000000	11.000000
1.170000	96.030000	43.110000	391.000000	0.000000	156.000000	53.000000	32.000000	11.000000
1.180000	96.390000	43.250000	398.000000	0.000000	156.000000	53.000000	36.000000	14.000000
1.190000	96.760000	43.400000	388.000000	0.000000	156.000000	53.000000	37.000000	15.000000
1.200000	97.150000	43.550000	392.000000	0.000000	157.000000	54.000000	39.000000	15.000000
1.210000	97.540000	43.650000	412.000000	0.000000	157.000000	54.000000	39.000000	10.000000
1.220000	97.940000	43.740000	423.000000	0.000000	157.000000	54.000000	40.000000	9.000000
1.230000	98.370000	43.830000	420.000000	0.000000	158.000000	54.000000	43.000000	9.000000
1.240000	98.800000	43.930000	425.000000	0.000000	160.000000	54.000000	43.000000	10.000000
1.250000	99.220000	44.070000	423.000000	0.000000	160.000000	54.000000	42.000000	14.000000
1.260000	99.570000	44.240000	428.000000	0.000000	160.000000	55.000000	35.000000	17.000000
1.270000	99.860000	44.370000	428.000000	0.000000	160.000000	55.000000	29.000000	13.000000
1.280000	99.940000	44.530000	414.000000	0.000000	160.000000	55.000000	8.000000	16.000000
1.290000	99.940000	44.530000	391.000000	0.000000	162.000000	56.000000	0.000000	0.000000
1.300000	99.540000	44.980000	377.000000	0.000000	162.000000	56.000000	-40.000000	45.000000
1.310000	99.100000	45.190000	361.000000	0.000000	162.000000	56.000000	-44.000000	21.000000
1.320000	98.540000	45.320000	356.000000	0.000000	162.000000	56.000000	-56.000000	13.000000
1.330000	97.900000	45.400000	351.000000	0.000000	162.000000	56.000000	-64.000000	8.000000
1.340000	97.240000	45.400000	351.000000	0.000000	162.000000	56.000000	-66.000000	0.000000
1.350000	96.620000	45.350000	364.000000	0.000000	160.000000	55.000000	-62.000000	-5.000000
1.360000	96.220000	45.270000	363.000000	0.000000	160.000000	55.000000	-40.000000	-8.000000
1.370000	95.950000	45.190000	361.000000	0.000000	160.000000	55.000000	-27.000000	-8.000000
1.380000	95.870000	45.130000	361.000000	0.000000	160.000000	55.000000	-8.000000	-6.000000
1.390000	95.960000	45.080000	363.000000	0.000000	160.000000	55.000000	9.000000	-5.000000
1.400000	96.150000	45.080000	368.000000	0.000000	160.000000	55.000000	19.000000	0.000000
1.410000	96.580000	45.080000	366.000000	0.000000	159.000000	55.000000	43.000000	0.000000
1.420000	97.150000	45.210000	364.000000	0.000000	159.000000	55.000000	57.000000	13.000000
1.430000	97.800000	45.410000	364.000000	0.000000	159.000000	55.000000	65.000000	20.000000
1.440000	98.540000	45.600000	369.000000	0.000000	160.000000	55.000000	74.000000	19.000000
1.450000	99.200000	45.760000	368.000000	0.000000	160.000000	55.000000	66.000000	16.000000
1.460000	99.800000	45.930000	373.000000	0.000000	160.000000	56.000000	60.000000	17.000000
1.470000	100.200000	46.060000	371.000000	0.000000	160.000000	56.000000	40.000000	13.000000
1.480000	100.430000	46.160000	376.000000	0.000000	160.000000	56.000000	23.000000	10.000000
1.490000	100.550000	46.210000	382.000000	0.000000	161.000000	57.000000	12.000000	5.000000
1.500000	100.550000	46.270000	386.000000	0.000000	161.000000	57.000000	0.000000	6.000000
1.510000	100.370000	46.330000	384.000000	0.000000	161.000000	57.000000	-18.000000	6.000000
1.520000	100.150000	46.430000	384.000000	0.000000	161.000000	57.000000	-22.000000	10.000000
1.530000	99.660000	46.540000	376.000000	0.000000	161.000000	57.000000	-49.000000	11.000000
1.540000	99.050000	46.630000	367.000000	0.000000	161.000000	57.000000	-61.000000	9.000000
1.550000	98.350000	46.720000	338.000000	0.000000	160.000000	56.000000	-70.000000	9.000000
1.560000	97.600000	46.780000	344.000000	0.000000	160.000000	56.000000	-75.000000	6.000000
1.570000	96.870000	46.780000	333.000000	0.000000	160.000000	56.000000	-73.000000	0.000000
1.580000	96.150000	46.780000	333.000000	0.000000	160.000000	55.000000	-72.000000	0.000000
1.590000	95.810000	46.780000	334.000000	0.000000	160.000000	55.000000	-34.000000	0.000000
1.600000	95.730000	46.830000	339.000000	0.000000	160.000000	55.000000	-8.000000	5.000000
1.610000	95.820000	46.830000	336.000000	0.000000	160.000000	54.000000	9.000000	0.000000
1.620000	96.060000	46.930000	339.000000	0.000000	160.000000	54.000000	24.000000	10.000000
1.630000	96.480000	47.040000	348.000000	0.000000	160.000000	54.000000	42.000000	11.000000
1.640000	97.020000	47.150000	358.000000	0.000000	160.000000	54.000000	54.000000	11.000000
1.650000	97.790000	47.340000	366.000000	0.000000	160.000000	54.000000	77.000000	19.000000
1.660000	98.620000	47.580000	364.000000	0.000000	160.000000	53.000000	83.000000	24.000000
1.670000	99.560000	47.860000	368.000000	0.000000	160.000000	53.000000	94.000000	28.000000
1.680000	100.520000	48.120000	369.000000	0.000000	162.000000	54.000000	96.000000	26.000000
1.690000	101.300000	48.310000	361.000000	0.000000	162.000000	54.000000	78.000000	19.000000
1.700000	101.960000	48.460000	371.000000	0.000000	163.000000	54.000000	66.000000	15.000000
1.710000	102.340000	48.460000	377.000000	0.000000	163.000000	54.000000	38.000000	0.000000
1.720000	102.510000	48.370000	393.000000	0.000000	164.000000	54.000000	17.000000	-9.000000
1.730000	102.510000	48.180000	399.000000	0.000000	164.000000	54.000000	0.000000	-19.000000
1.740000	102.450000	47.960000	425.000000	0.000000	166.000000	54.000000	-6.000000	-22.000000
1.750000	102.110000	47.470000	452.000000	0.000000	165.000000	55.000000	-34.000000	-49.000000
1.760000	101.620000	46.820000	474.000000	0.000000	165.000000	55.000000	-49.000000	-65.000000
1.770000	100.980000	46.170000	486.000000	0.000000	165.000000	55.000000	-64.000000	-65.000000
1.780000	100.360000	45.530000	496.000000	0.000000	165.000000	55.000000	-62.000000	-64.000000
1.790000	99.740000	44.870000	493.000000	0.000000	164.000000	55.000000	-62.000000	-66.000000
1.800000	99.430000	44.320000	492.000000	0.000000	163.000000	56.000000	-31.000000	-55.000000
1.810000	99.380000	43.860000	502.000000	0.000000	163.000000	56.000000	-5.000000	-46.000000
1.820000	99.490000	43.490000	537.000000	0.000000	162.000000	56.000000	11.000000	-37.000000
1.830000	100.040000	43.310000	567.000000	0.000000	162.000000	56.000000	55.000000	-18.000000
1.840000	101.070000	43.260000	614.000000	0.000000	162.000000	56.000000	103.000000	-5.000000
1.850000	102.420000	43.410000	656.000000	0.000000	162.000000	56.000000	135.000000	15.000000
1.860000	103.940000	43.590000	697.000000	0.000000	162.000000	56.000000	152.000000	18.000000
1.870000	105.610000	43.790000	707.000000	0.000000	162.000000	56.000000	167.000000	20.000000
1.880000	107.380000	43.950000	699.000000	0.000000	162.000000	56.000000	177.000000	16.000000
1.890000	108.850000	44.110000	685.000000	0.000000	162.000000	56.000000	147.000000	16.000000
1.900000	109.980000	44.110000	616.000000	0.000000	163.000000	57.000000	113.000000	0.000000
1.910000	110.870000	44.030000	279.000000	0.000000	163.000000	57.000000	89.000000	-8.000000
