t	x	y	pressure	penup	azimuth	inclination	v_x	v_y
0.000000	19.010000	70.150000	417.000000	1.000000	149.000000	59.000000	0.000000	0.000000
0.010000	19.010000	70.150000	469.000000	0.000000	150.000000	58.000000	0.000000	0.000000
0.020000	19.010000	70.150000	563.000000	0.000000	150.000000	58.000000	0.000000	0.000000
0.030000	18.950000	69.690000	639.000000	0.000000	150.000000	58.000000	-6.000000	-46.000000
0.040000	19.050000	68.790000	707.000000	0.000000	151.000000	58.000000	10.000000	-90.000000
0.050000	19.220000	67.210000	754.000000	0.000000	150.000000	58.000000	17.000000	-158.000000
0.060000	19.460000	65.130000	794.000000	0.000000	149.000000	58.000000	24.000000	-208.000000
0.070000	19.730000	62.720000	823.000000	0.000000	149.000000	58.000000	27.000000	-241.000000
0.080000	19.900000	60.970000	846.000000	0.000000	147.000000	59.000000	17.000000	-175.000000
0.090000	20.010000	59.690000	860.000000	0.000000	146.000000	60.000000	11.000000	-128.000000
0.100000	20.190000	58.730000	894.000000	0.000000	145.000000	60.000000	18.000000	-96.000000
0.110000	20.360000	58.240000	938.000000	0.000000	142.000000	61.000000	17.000000	-49.000000
0.120000	20.480000	58.080000	990.000000	0.000000	142.000000	61.000000	12.000000	-16.000000
0.130000	20.570000	58.150000	1023.000000	0.000000	141.000000	61.000000	9.000000	7.000000
0.140000	20.640000	58.420000	1023.000000	0.000000	141.000000	61.000000	7.000000	27.000000
0.150000	20.750000	59.170000	1023.000000	0.000000	140.000000	62.000000	11.000000	75.000000
0.160000	20.880000	60.240000	1023.000000	0.000000	140.000000	62.000000	13.000000	107.000000
0.170000	20.510000	61.460000	1023.000000	0.000000	140.000000	62.000000	-37.000000	122.000000
0.180000	19.990000	62.980000	1023.000000	0.000000	140.000000	62.000000	-52.000000	152.000000
0.190000	19.380000	64.710000	1023.000000	0.000000	141.000000	61.000000	-61.000000	173.000000
0.200000	18.810000	66.310000	1023.000000	0.000000	141.000000	61.000000	-57.000000	160.000000
0.210000	18.490000	67.620000	1023.000000	0.000000	142.000000	61.000000	-32.000000	131.000000
0.220000	18.330000	68.750000	1023.000000	0.000000	142.000000	61.000000	-16.000000	113.000000
0.230000	18.280000	69.670000	1023.000000	0.000000	144.000000	60.000000	-5.000000	92.000000
0.240000	18.280000	70.230000	1023.000000	0.000000	145.000000	59.000000	0.000000	56.000000
0.250000	18.280000	70.550000	1023.000000	0.000000	146.000000	58.000000	0.000000	32.000000
0.260000	18.280000	70.550000	1023.000000	0.000000	147.000000	58.000000	0.000000	0.000000
0.270000	18.280000	70.550000	1023.000000	0.000000	148.000000	57.000000	0.000000	0.000000
0.280000	18.350000	70.060000	1023.000000	0.000000	149.000000	56.000000	7.000000	-49.000000
0.290000	18.680000	69.330000	1023.000000	0.000000	149.000000	56.000000	33.000000	-73.000000
0.300000	19.180000	67.990000	1023.000000	0.000000	149.000000	56.000000	50.000000	-134.000000
0.310000	19.700000	66.650000	1023.000000	0.000000	149.000000	56.000000	52.000000	-134.000000
0.320000	20.470000	65.640000	1023.000000	0.000000	148.000000	57.000000	77.000000	-101.000000
0.330000	21.400000	64.860000	1023.000000	0.000000	148.000000	57.000000	93.000000	-78.000000
0.340000	22.460000	64.430000	1023.000000	0.000000	149.000000	58.000000	106.000000	-43.000000
0.350000	23.370000	64.240000	1023.000000	0.000000	147.000000	59.000000	91.000000	-19.000000
0.360000	24.180000	64.240000	1023.000000	0.000000	147.000000	59.000000	81.000000	0.000000
0.370000	24.540000	64.290000	1023.000000	0.000000	148.000000	60.000000	36.000000	5.000000
0.380000	24.740000	64.440000	1023.000000	0.000000	148.000000	60.000000	20.000000	15.000000
0.390000	24.830000	64.650000	1023.000000	0.000000	148.000000	60.000000	9.000000	21.000000
0.400000	24.770000	65.040000	1023.000000	0.000000	150.000000	60.000000	-6.000000	39.000000
0.410000	24.520000	65.740000	1023.000000	0.000000	150.000000	60.000000	-25.000000	70.000000
0.420000	24.130000	66.650000	1023.000000	0.000000	150.000000	60.000000	-39.000000	91.000000
0.430000	23.610000	67.620000	1023.000000	0.000000	150.000000	60.000000	-52.000000	97.000000
0.440000	23.420000	68.560000	1023.000000	0.000000	150.000000	60.000000	-19.000000	94.000000
0.450000	23.420000	69.370000	1023.000000	0.000000	151.000000	60.000000	0.000000	81.000000
0.460000	23.530000	69.750000	1023.000000	0.000000	151.000000	60.000000	11.000000	38.000000
0.470000	23.530000	69.900000	1023.000000	0.000000	152.000000	59.000000	0.000000	15.000000
0.480000	23.530000	69.900000	1023.000000	0.000000	152.000000	59.000000	0.000000	0.000000
0.490000	23.590000	69.820000	1023.000000	0.000000	153.000000	58.000000	6.000000	-8.000000
0.500000	23.750000	69.310000	1023.000000	0.000000	152.000000	57.000000	16.000000	-51.000000
0.510000	23.990000	68.520000	1023.000000	0.000000	152.000000	57.000000	24.000000	-79.000000
0.520000	24.220000	67.630000	1023.000000	0.000000	152.000000	57.000000	23.000000	-89.000000
0.530000	24.420000	66.570000	1023.000000	0.000000	152.000000	57.000000	20.000000	-106.000000
0.540000	24.610000	65.400000	1023.000000	0.000000	152.000000	57.000000	19.000000	-117.000000
0.550000	24.940000	64.370000	1023.000000	0.000000	153.000000	58.000000	33.000000	-103.000000
0.560000	25.320000	63.590000	1023.000000	0.000000	153.000000	58.000000	38.000000	-78.000000
0.570000	25.690000	62.970000	1023.000000	0.000000	152.000000	59.000000	37.000000	-62.000000
0.580000	26.040000	62.540000	1023.000000	0.000000	152.000000	59.000000	35.000000	-43.000000
0.590000	26.360000	62.280000	1023.000000	0.000000	151.000000	60.000000	32.000000	-26.000000
0.600000	26.520000	62.140000	1023.000000	0.000000	151.000000	60.000000	16.000000	-14.000000
0.610000	26.520000	62.140000	1023.000000	0.000000	151.000000	60.000000	0.000000	0.000000
0.620000	26.580000	62.140000	1023.000000	0.000000	152.000000	60.000000	6.000000	0.000000
0.630000	26.580000	62.140000	1023.000000	0.000000	152.000000	60.000000	0.000000	0.000000
0.640000	26.580000	62.140000	1023.000000	0.000000	152.000000	60.000000	0.000000	0.000000
0.650000	26.510000	62.230000	1023.000000	0.000000	152.000000	60.000000	-7.000000	9.000000
0.660000	26.410000	62.300000	1023.000000	0.000000	152.000000	60.000000	-10.000000	7.000000
0.670000	26.250000	62.440000	134.000000	0.000000	152.000000	60.000000	-16.000000	14.000000
0.680000	26.250000	62.440000	0.000000	1.000000	152.000000	60.000000	0.000000	0.000000
0.690000	25.580000	63.000000	0.000000	0.000000	152.000000	60.000000	-67.000000	56.000000
0.700000	25.060000	63.500000	0.000000	0.000000	152.000000	60.000000	-52.000000	50.000000
0.710000	24.600000	64.130000	0.000000	0.000000	152.000000	60.000000	-46.000000	63.000000
0.720000	24.180000	64.850000	0.000000	0.000000	153.000000	59.000000	-42.000000	72.000000
0.730000	23.900000	65.230000	0.000000	0.000000	153.000000	59.000000	-28.000000	38.000000
0.740000	23.710000	65.420000	0.000000	0.000000	154.000000	58.000000	-19.000000	19.000000
0.750000	23.360000	65.490000	0.000000	0.000000	155.000000	58.000000	-35.000000	7.000000
0.760000	22.860000	65.490000	0.000000	0.000000	156.000000	57.000000	-50.000000	0.000000
0.770000	22.250000	65.440000	0.000000	0.000000	154.000000	56.000000	-61.000000	-5.000000
0.780000	21.550000	65.440000	0.000000	0.000000	155.000000	55.000000	-70.000000	0.000000
0.790000	20.840000	65.500000	0.000000	0.000000	154.000000	55.000000	-71.000000	6.000000
0.800000	20.180000	65.680000	0.000000	0.000000	153.000000	54.000000	-66.000000	18.000000
0.810000	19.600000	66.000000	0.000000	0.000000	153.000000	55.000000	-58.000000	32.000000
0.820000	19.300000	66.170000	0.000000	0.000000	151.000000	54.000000	-30.000000	17.000000
0.830000	19.300000	66.170000	0.000000	0.000000	151.000000	54.000000	0.000000	0.000000
0.840000	19.300000	66.170000	423.000000	1.000000	149.000000	55.000000	0.000000	0.000000
0.850000	18.450000	65.900000	605.000000	0.000000	148.000000	56.000000	-85.000000	-27.000000
0.860000	18.210000	65.610000	693.000000	0.000000	148.000000	57.000000	-24.000000	-29.000000
0.870000	18.160000	65.380000	821.000000	0.000000	148.000000	57.000000	-5.000000	-23.000000
0.880000	18.280000	65.180000	947.000000	0.000000	147.000000	58.000000	12.000000	-20.000000
0.890000	18.510000	64.990000	1023.000000	0.000000	147.000000	58.000000	23.000000	-19.000000
0.900000	19.110000	64.640000	1023.000000	0.000000	146.000000	58.000000	60.000000	-35.000000
0.910000	20.870000	64.640000	1023.000000	0.000000	146.000000	58.000000	176.000000	0.000000
0.920000	23.410000	64.980000	1023.000000	0.000000	147.000000	59.000000	254.000000	34.000000
0.930000	25.580000	65.110000	1023.000000	0.000000	147.000000	59.000000	217.000000	13.000000
0.940000	27.070000	65.110000	1023.000000	0.000000	147.000000	59.000000	149.000000	0.000000
0.950000	28.100000	65.000000	1023.000000	0.000000	149.000000	59.000000	103.000000	-11.000000
0.960000	28.640000	65.000000	1023.000000	0.000000	149.000000	59.000000	54.000000	0.000000
0.970000	28.780000	65.000000	1023.000000	0.000000	149.000000	59.000000	14.000000	0.000000
0.980000	28.780000	65.000000	1023.000000	0.000000	151.000000	60.000000	0.000000	0.000000
0.990000	28.780000	65.000000	1023.000000	0.000000	151.000000	60.000000	0.000000	0.000000
1.000000	28.170000	64.950000	1023.000000	0.000000	152.000000	59.000000	-61.000000	-5.000000
1.010000	27.580000	64.950000	872.000000	0.000000	150.000000	58.000000	-59.000000	0.000000
1.020000	27.160000	65.030000	344.000000	0.000000	150.000000	58.000000	-42.000000	8.000000
1.030000	27.160000	65.030000	0.000000	1.000000	150.000000	58.000000	0.000000	0.000000
1.040000	26.990000	65.390000	0.000000	0.000000	149.000000	58.000000	-17.000000	36.000000
1.050000	27.220000	65.840000	0.000000	0.000000	149.000000	58.000000	23.000000	45.000000
1.060000	27.740000	66.410000	0.000000	0.000000	149.000000	58.000000	52.000000	57.000000
1.070000	28.450000	66.980000	0.000000	0.000000	149.000000	58.000000	71.000000	57.000000
1.080000	29.110000	67.370000	0.000000	0.000000	150.000000	57.000000	66.000000	39.000000
1.090000	29.550000	67.660000	0.000000	0.000000	148.000000	57.000000	44.000000	29.000000
1.100000	29.830000	67.740000	0.000000	0.000000	149.000000	56.000000	28.000000	8.000000
1.110000	29.780000	67.740000	0.000000	0.000000	150.000000	55.000000	-5.000000	0.000000
1.120000	29.640000	67.740000	0.000000	0.000000	150.000000	54.000000	-14.000000	0.000000
1.130000	29.430000	67.690000	0.000000	0.000000	150.000000	54.000000	-21.000000	-5.000000
1.140000	29.320000	67.690000	0.000000	0.000000	150.000000	54.000000	-11.000000	0.000000
1.150000	29.390000	67.840000	0.000000	0.000000	149.000000	53.000000	7.000000	15.000000
1.160000	29.590000	67.960000	0.000000	0.000000	150.000000	54.000000	20.000000	12.000000
1.170000	29.760000	68.100000	0.000000	0.000000	150.000000	54.000000	17.000000	14.000000
1.180000	29.840000	68.150000	0.000000	0.000000	149.000000	55.000000	8.000000	5.000000
1.190000	29.840000	68.150000	0.000000	0.000000	150.000000	55.000000	0.000000	0.000000
1.200000	29.840000	68.150000	0.000000	0.000000	149.000000	56.000000	0.000000	0.000000
1.210000	29.840000	68.150000	0.000000	0.000000	149.000000	56.000000	0.000000	0.000000
1.220000	29.840000	68.530000	0.000000	0.000000	150.000000	57.000000	0.000000	38.000000
1.230000	29.840000	68.750000	0.000000	0.000000	150.000000	57.000000	0.000000	22.000000
1.240000	29.730000	68.960000	0.000000	0.000000	150.000000	57.000000	-11.000000	21.000000
1.250000	29.660000	69.160000	0.000000	0.000000	150.000000	57.000000	-7.000000	20.000000
1.260000	29.600000	69.420000	0.000000	0.000000	151.000000	58.000000	-6.000000	26.000000
1.270000	29.540000	69.530000	0.000000	0.000000	151.000000	58.000000	-6.000000	11.000000
1.280000	29.470000	69.530000	0.000000	0.000000	151.000000	58.000000	-7.000000	0.000000
1.290000	29.410000	69.530000	0.000000	0.000000	153.000000	58.000000	-6.000000	0.000000
1.300000	29.410000	69.460000	0.000000	0.000000	153.000000	58.000000	0.000000	-7.000000
1.310000	29.340000	69.410000	0.000000	0.000000	152.000000	59.000000	-7.000000	-5.000000
1.320000	29.340000	69.410000	0.000000	0.000000	152.000000	59.000000	0.000000	0.000000
1.330000	29.290000	69.320000	0.000000	0.000000	152.000000	59.000000	-5.000000	-9.000000
1.340000	29.290000	69.270000	0.000000	0.000000	152.000000	59.000000	0.000000	-5.000000
1.350000	29.210000	69.180000	0.000000	0.000000	152.000000	59.000000	-8.000000	-9.000000
1.360000	29.110000	69.080000	0.000000	0.000000	152.000000	59.000000	-10.000000	-10.000000
1.370000	29.000000	69.000000	0.000000	0.000000	152.000000	59.000000	-11.000000	-8.000000
1.380000	28.890000	69.000000	0.000000	0.000000	152.000000	59.000000	-11.000000	0.000000
1.390000	28.810000	68.900000	0.000000	0.000000	150.000000	58.000000	-8.000000	-10.000000
1.400000	28.760000	68.900000	0.000000	0.000000	151.000000	58.000000	-5.000000	0.000000
1.410000	28.760000	68.900000	0.000000	0.000000	151.000000	58.000000	0.000000	0.000000
1.420000	28.690000	68.900000	0.000000	0.000000	151.000000	58.000000	-7.000000	0.000000
1.430000	28.640000	68.900000	0.000000	0.000000	151.000000	58.000000	-5.000000	0.000000
1.440000	28.590000	68.950000	0.000000	0.000000	152.000000	57.000000	-5.000000	5.000000
1.450000	28.500000	69.030000	0.000000	0.000000	152.000000	57.000000	-9.000000	8.000000
1.460000	28.370000	69.090000	0.000000	0.000000	154.000000	57.000000	-13.000000	6.000000
1.470000	28.210000	69.230000	0.000000	0.000000	154.000000	57.000000	-16.000000	14.000000
1.480000	28.060000	69.430000	0.000000	0.000000	154.000000	57.000000	-15.000000	20.000000
1.490000	27.920000	69.590000	0.000000	0.000000	155.000000	58.000000	-14.000000	16.000000
1.500000	27.800000	69.780000	0.000000	0.000000	155.000000	58.000000	-12.000000	19.000000
1.510000	27.730000	69.970000	0.000000	0.000000	155.000000	58.000000	-7.000000	19.000000
1.520000	27.730000	69.970000	345.000000	1.000000	155.000000	58.000000	0.000000	0.000000
1.530000	27.730000	70.270000	492.000000	0.000000	155.000000	58.000000	0.000000	30.000000
1.540000	27.730000	70.360000	647.000000	0.000000	155.000000	58.000000	0.000000	9.000000
1.550000	27.800000	70.360000	690.000000	0.000000	156.000000	57.000000	7.000000	0.000000
1.560000	27.800000	70.360000	785.000000	0.000000	154.000000	56.000000	0.000000	0.000000
1.570000	28.010000	70.030000	840.000000	0.000000	154.000000	56.000000	21.000000	-33.000000
1.580000	28.210000	69.580000	927.000000	0.000000	154.000000	55.000000	20.000000	-45.000000
1.590000	28.460000	68.550000	992.000000	0.000000	153.000000	56.000000	25.000000	-103.000000
1.600000	28.730000	67.350000	1017.000000	0.000000	153.000000	56.000000	27.000000	-120.000000
1.610000	28.990000	66.050000	1023.000000	0.000000	151.000000	56.000000	26.000000	-130.000000
1.620000	29.230000	64.760000	1023.000000	0.000000	151.000000	56.000000	24.000000	-129.000000
1.630000	29.480000	63.800000	1023.000000	0.000000	150.000000	57.000000	25.000000	-96.000000
1.640000	29.690000	63.050000	1023.000000	0.000000	149.000000	58.000000	21.000000	-75.000000
1.650000	29.840000	62.570000	1023.000000	0.000000	149.000000	58.000000	15.000000	-48.000000
1.660000	29.940000	62.450000	1023.000000	0.000000	147.000000	59.000000	10.000000	-12.000000
1.670000	29.990000	62.560000	1023.000000	0.000000	147.000000	59.000000	5.000000	11.000000
1.680000	29.990000	62.630000	1023.000000	0.000000	147.000000	59.000000	0.000000	7.000000
1.690000	29.990000	62.950000	1023.000000	0.000000	149.000000	59.000000	0.000000	32.000000
1.700000	30.060000	63.440000	1023.000000	0.000000	149.000000	59.000000	7.000000	49.000000
1.710000	29.720000	64.130000	1023.000000	0.000000	149.000000	59.000000	-34.000000	69.000000
1.720000	29.140000	65.000000	1023.000000	0.000000	149.000000	59.000000	-58.000000	87.000000
1.730000	28.530000	66.000000	1023.000000	0.000000	149.000000	59.000000	-61.000000	100.000000
1.740000	27.870000	66.800000	1023.000000	0.000000	147.000000	59.000000	-66.000000	80.000000
1.750000	27.180000	67.570000	1023.000000	0.000000	147.000000	59.000000	-69.000000	77.000000
1.760000	26.650000	68.170000	1023.000000	0.000000	147.000000	59.000000	-53.000000	60.000000
1.770000	26.380000	68.660000	1023.000000	0.000000	147.000000	59.000000	-27.000000	49.000000
1.780000	26.270000	69.360000	1023.000000	0.000000	147.000000	59.000000	-11.000000	70.000000
1.790000	26.270000	70.040000	1023.000000	0.000000	150.000000	58.000000	0.000000	68.000000
1.800000	26.600000	70.680000	1023.000000	0.000000	151.000000	58.000000	33.000000	64.000000
1.810000	27.090000	71.270000	1023.000000	0.000000	151.000000	58.000000	49.000000	59.000000
1.820000	27.910000	71.690000	1023.000000	0.000000	152.000000	57.000000	82.000000	42.000000
1.830000	29.090000	71.990000	1023.000000	0.000000	153.000000	56.000000	118.000000	30.000000
1.840000	30.520000	71.850000	1023.000000	0.000000	154.000000	55.000000	143.000000	-14.000000
1.850000	31.710000	71.470000	1023.000000	0.000000	156.000000	55.000000	119.000000	-38.000000
1.860000	32.500000	70.930000	1023.000000	0.000000	156.000000	55.000000	79.000000	-54.000000
1.870000	33.010000	70.230000	1023.000000	0.000000	157.000000	54.000000	51.000000	-70.000000
1.880000	33.070000	69.570000	1023.000000	0.000000	158.000000	55.000000	6.000000	-66.000000
1.890000	32.860000	68.930000	1023.000000	0.000000	158.000000	55.000000	-21.000000	-64.000000
1.900000	32.470000	68.320000	1023.000000	0.000000	158.000000	55.000000	-39.000000	-61.000000
1.910000	31.710000	67.840000	1023.000000	0.000000	157.000000	56.000000	-76.000000	-48.000000
1.920000	30.820000	67.450000	1023.000000	0.000000	156.000000	57.000000	-89.000000	-39.000000
1.930000	29.850000	67.180000	1023.000000	0.000000	155.000000	58.000000	-97.000000	-27.000000
1.940000	28.870000	67.050000	1023.000000	0.000000	154.000000	58.000000	-98.000000	-13.000000
1.950000	28.130000	67.050000	1023.000000	0.000000	152.000000	59.000000	-74.000000	0.000000
1.960000	27.560000	67.150000	1023.000000	0.000000	151.000000	60.000000	-57.000000	10.000000
1.970000	27.310000	67.250000	1023.000000	0.000000	149.000000	59.000000	-25.000000	10.000000
1.980000	27.260000	67.430000	1023.000000	0.000000	149.000000	59.000000	-5.000000	18.000000
1.990000	27.330000	67.660000	1023.000000	0.000000	149.000000	59.000000	7.000000	23.000000
2.000000	27.640000	67.910000	1023.000000	0.000000	147.000000	59.000000	31.000000	25.000000
2.010000	28.520000	68.320000	1023.000000	0.000000	147.000000	59.000000	88.000000	41.000000
2.020000	29.790000	68.850000	1023.000000	0.000000	147.000000	59.000000	127.000000	53.000000
2.030000	30.940000	68.920000	1023.000000	0.000000	149.000000	58.000000	115.000000	7.000000
2.040000	31.860000	68.660000	1023.000000	0.000000	149.000000	58.000000	92.000000	-26.000000
2.050000	32.620000	68.190000	1023.000000	0.000000	150.000000	58.000000	76.000000	-47.000000
2.060000	32.910000	67.660000	1023.000000	0.000000	151.000000	58.000000	29.000000	-53.000000
2.070000	32.860000	67.070000	1023.000000	0.000000	153.000000	58.000000	-5.000000	-59.000000
2.080000	32.580000	66.370000	1023.000000	0.000000	153.000000	58.000000	-28.000000	-70.000000
2.090000	32.180000	65.620000	1023.000000	0.000000	153.000000	59.000000	-40.000000	-75.000000
2.100000	31.710000	64.850000	1023.000000	0.000000	153.000000	59.000000	-47.000000	-77.000000
2.110000	31.180000	64.340000	1023.000000	0.000000	153.000000	59.000000	-53.000000	-51.000000
2.120000	30.910000	64.000000	1023.000000	0.000000	153.000000	59.000000	-27.000000	-34.000000
2.130000	30.790000	63.830000	1023.000000	0.000000	153.000000	59.000000	-12.000000	-17.000000
2.140000	30.790000	63.830000	1023.000000	0.000000	153.000000	59.000000	0.000000	0.000000
2.150000	30.790000	63.830000	1023.000000	0.000000	152.000000	59.000000	0.000000	0.000000
2.160000	30.980000	63.950000	1023.000000	0.000000	152.000000	59.000000	19.000000	12.000000
2.170000	31.170000	64.110000	1023.000000	0.000000	152.000000	59.000000	19.000000	16.000000
2.180000	31.760000	64.310000	1023.000000	0.000000	149.000000	59.000000	59.000000	20.000000
2.190000	32.420000	64.440000	1023.000000	0.000000	151.000000	60.000000	66.000000	13.000000
2.200000	33.120000	64.610000	1023.000000	0.000000	151.000000	60.000000	70.000000	17.000000
