t	x	y	pressure	penup	azimuth	inclination	v_x	v_y
0.000000	57.420000	59.110000	99.000000	1.000000	183.000000	59.000000	0.000000	0.000000
0.010000	57.550000	58.860000	307.000000	0.000000	183.000000	59.000000	13.000000	-25.000000
0.020000	57.550000	58.860000	445.000000	0.000000	183.000000	59.000000	0.000000	0.000000
0.030000	57.550000	58.990000	580.000000	0.000000	183.000000	59.000000	0.000000	13.000000
0.040000	57.550000	58.990000	676.000000	0.000000	183.000000	59.000000	0.000000	0.000000
0.050000	57.550000	58.990000	755.000000	0.000000	183.000000	59.000000	0.000000	0.000000
0.060000	57.550000	58.990000	821.000000	0.000000	185.000000	59.000000	0.000000	0.000000
0.070000	57.550000	58.990000	879.000000	0.000000	185.000000	59.000000	0.000000	0.000000
0.080000	57.550000	58.990000	944.000000	0.000000	187.000000	59.000000	0.000000	0.000000
0.090000	57.550000	58.990000	977.000000	0.000000	187.000000	59.000000	0.000000	0.000000
0.100000	57.550000	58.990000	1023.000000	0.000000	187.000000	59.000000	0.000000	0.000000
0.110000	57.550000	58.990000	1023.000000	0.000000	188.000000	59.000000	0.000000	0.000000
0.120000	57.550000	58.990000	1023.000000	0.000000	188.000000	59.000000	0.000000	0.000000
0.130000	57.550000	58.990000	1023.000000	0.000000	187.000000	60.000000	0.000000	0.000000
0.140000	57.550000	58.990000	1023.000000	0.000000	187.000000	60.000000	0.000000	0.000000
0.150000	57.550000	58.990000	1023.000000	0.000000	187.000000	60.000000	0.000000	0.000000
0.160000	57.550000	58.990000	1023.000000	0.000000	187.000000	60.000000	0.000000	0.000000
0.170000	57.550000	58.990000	1023.000000	0.000000	187.000000	60.000000	0.000000	0.000000
0.180000	57.550000	58.990000	1023.000000	0.000000	187.000000	60.000000	0.000000	0.000000
0.190000	57.550000	58.990000	1023.000000	0.000000	187.000000	60.000000	0.000000	0.000000
0.200000	57.550000	59.040000	1023.000000	0.000000	185.000000	60.000000	0.000000	5.000000
0.210000	57.490000	59.040000	1023.000000	0.000000	185.000000	60.000000	-6.000000	0.000000
0.220000	57.370000	59.260000	1023.000000	0.000000	185.000000	60.000000	-12.000000	22.000000
0.230000	57.160000	59.620000	1023.000000	0.000000	185.000000	60.000000	-21.000000	36.000000
0.240000	56.860000	60.170000	1023.000000	0.000000	185.000000	59.000000	-30.000000	55.000000
0.250000	56.520000	60.870000	1023.000000	0.000000	185.000000	59.000000	-34.000000	70.000000
0.260000	56.170000	61.660000	1023.000000	0.000000	183.000000	58.000000	-35.000000	79.000000
0.270000	55.810000	62.690000	1023.000000	0.000000	183.000000	58.000000	-36.000000	103.000000
0.280000	55.410000	63.900000	1023.000000	0.000000	183.000000	57.000000	-40.000000	121.000000
0.290000	55.010000	65.220000	1023.000000	0.000000	182.000000	57.000000	-40.000000	132.000000
0.300000	54.630000	66.360000	1008.000000	0.000000	181.000000	56.000000	-38.000000	114.000000
0.310000	54.260000	67.450000	993.000000	0.000000	180.000000	56.000000	-37.000000	109.000000
0.320000	54.110000	68.340000	990.000000	0.000000	180.000000	55.000000	-15.000000	89.000000
0.330000	53.910000	69.110000	997.000000	0.000000	180.000000	55.000000	-20.000000	77.000000
0.340000	53.680000	69.770000	999.000000	0.000000	180.000000	54.000000	-23.000000	66.000000
0.350000	53.610000	70.120000	1002.000000	0.000000	179.000000	53.000000	-7.000000	35.000000
0.360000	53.610000	70.270000	1000.000000	0.000000	179.000000	53.000000	0.000000	15.000000
0.370000	53.610000	70.360000	1002.000000	0.000000	179.000000	52.000000	0.000000	9.000000
0.380000	53.610000	70.420000	1005.000000	0.000000	179.000000	51.000000	0.000000	6.000000
0.390000	53.560000	70.420000	1006.000000	0.000000	179.000000	51.000000	-5.000000	0.000000
0.400000	53.560000	70.420000	1006.000000	0.000000	179.000000	51.000000	0.000000	0.000000
0.410000	53.560000	70.420000	1008.000000	0.000000	179.000000	50.000000	0.000000	0.000000
0.420000	53.560000	70.420000	1005.000000	0.000000	179.000000	50.000000	0.000000	0.000000
0.430000	53.560000	70.420000	1002.000000	0.000000	179.000000	50.000000	0.000000	0.000000
0.440000	53.560000	70.420000	1000.000000	0.000000	179.000000	50.000000	0.000000	0.000000
0.450000	53.560000	70.420000	1002.000000	0.000000	179.000000	49.000000	0.000000	0.000000
0.460000	53.560000	70.420000	1002.000000	0.000000	179.000000	49.000000	0.000000	0.000000
0.470000	53.560000	70.420000	1000.000000	0.000000	179.000000	49.000000	0.000000	0.000000
0.480000	53.560000	70.420000	999.000000	0.000000	179.000000	49.000000	0.000000	0.000000
0.490000	53.560000	70.420000	1000.000000	0.000000	179.000000	49.000000	0.000000	0.000000
0.500000	53.560000	70.420000	999.000000	0.000000	179.000000	49.000000	0.000000	0.000000
0.510000	53.560000	70.420000	997.000000	0.000000	179.000000	49.000000	0.000000	0.000000
0.520000	53.560000	70.420000	997.000000	0.000000	179.000000	49.000000	0.000000	0.000000
0.530000	53.560000	70.420000	997.000000	0.000000	179.000000	49.000000	0.000000	0.000000
0.540000	53.560000	70.320000	997.000000	0.000000	179.000000	49.000000	0.000000	-10.000000
0.550000	53.560000	70.170000	999.000000	0.000000	180.000000	50.000000	0.000000	-15.000000
0.560000	53.630000	69.950000	999.000000	0.000000	180.000000	50.000000	7.000000	-22.000000
0.570000	53.630000	69.780000	997.000000	0.000000	180.000000	50.000000	0.000000	-17.000000
0.580000	53.630000	69.660000	997.000000	0.000000	180.000000	50.000000	0.000000	-12.000000
0.590000	53.700000	69.450000	999.000000	0.000000	180.000000	50.000000	7.000000	-21.000000
0.600000	53.700000	69.300000	997.000000	0.000000	180.000000	50.000000	0.000000	-15.000000
0.610000	53.790000	69.190000	999.000000	0.000000	180.000000	50.000000	9.000000	-11.000000
0.620000	53.790000	69.040000	999.000000	0.000000	180.000000	50.000000	0.000000	-15.000000
0.630000	53.840000	69.040000	999.000000	0.000000	180.000000	50.000000	5.000000	0.000000
0.640000	53.840000	69.040000	999.000000	0.000000	180.000000	50.000000	0.000000	0.000000
0.650000	53.840000	69.040000	1000.000000	0.000000	180.000000	50.000000	0.000000	0.000000
0.660000	53.840000	69.040000	1000.000000	0.000000	180.000000	50.000000	0.000000	0.000000
0.670000	53.840000	69.040000	1003.000000	0.000000	180.000000	51.000000	0.000000	0.000000
0.680000	53.840000	69.040000	1000.000000	0.000000	180.000000	51.000000	0.000000	0.000000
0.690000	53.840000	69.040000	1000.000000	0.000000	180.000000	51.000000	0.000000	0.000000
0.700000	53.840000	69.040000	999.000000	0.000000	180.000000	51.000000	0.000000	0.000000
0.710000	53.840000	69.040000	1000.000000	0.000000	180.000000	51.000000	0.000000	0.000000
0.720000	53.840000	69.040000	999.000000	0.000000	180.000000	51.000000	0.000000	0.000000
0.730000	53.840000	69.040000	997.000000	0.000000	180.000000	51.000000	0.000000	0.000000
0.740000	53.840000	69.040000	999.000000	0.000000	180.000000	51.000000	0.000000	0.000000
0.750000	53.840000	69.040000	999.000000	0.000000	180.000000	51.000000	0.000000	0.000000
0.760000	53.840000	69.040000	1000.000000	0.000000	180.000000	51.000000	0.000000	0.000000
0.770000	53.840000	69.040000	999.000000	0.000000	180.000000	51.000000	0.000000	0.000000
0.780000	53.840000	69.040000	999.000000	0.000000	180.000000	51.000000	0.000000	0.000000
0.790000	53.840000	69.040000	1000.000000	0.000000	180.000000	51.000000	0.000000	0.000000
0.800000	53.840000	68.990000	999.000000	0.000000	180.000000	51.000000	0.000000	-5.000000
0.810000	53.840000	68.990000	997.000000	0.000000	180.000000	51.000000	0.000000	0.000000
0.820000	53.840000	68.990000	999.000000	0.000000	180.000000	51.000000	0.000000	0.000000
0.830000	53.840000	68.990000	999.000000	0.000000	180.000000	51.000000	0.000000	0.000000
0.840000	53.840000	68.870000	1000.000000	0.000000	180.000000	51.000000	0.000000	-12.000000
0.850000	53.840000	68.680000	1000.000000	0.000000	180.000000	51.000000	0.000000	-19.000000
0.860000	53.960000	68.430000	1002.000000	0.000000	180.000000	51.000000	12.000000	-25.000000
0.870000	54.060000	68.150000	1005.000000	0.000000	180.000000	52.000000	10.000000	-28.000000
0.880000	54.130000	67.850000	1005.000000	0.000000	180.000000	52.000000	7.000000	-30.000000
0.890000	54.180000	67.490000	1008.000000	0.000000	180.000000	52.000000	5.000000	-36.000000
0.900000	54.180000	67.100000	1006.000000	0.000000	180.000000	53.000000	0.000000	-39.000000
0.910000	54.180000	66.580000	1008.000000	0.000000	180.000000	53.000000	0.000000	-52.000000
0.920000	54.130000	66.020000	1012.000000	0.000000	180.000000	54.000000	-5.000000	-56.000000
0.930000	54.080000	65.370000	1018.000000	0.000000	180.000000	54.000000	-5.000000	-65.000000
0.940000	54.080000	64.660000	1023.000000	0.000000	180.000000	54.000000	0.000000	-71.000000
0.950000	53.990000	63.890000	1023.000000	0.000000	180.000000	54.000000	-9.000000	-77.000000
0.960000	53.990000	63.160000	1023.000000	0.000000	180.000000	54.000000	0.000000	-73.000000
0.970000	53.880000	62.460000	1023.000000	0.000000	180.000000	54.000000	-11.000000	-70.000000
0.980000	53.790000	61.910000	1023.000000	0.000000	180.000000	54.000000	-9.000000	-55.000000
0.990000	53.680000	61.370000	1023.000000	0.000000	179.000000	54.000000	-11.000000	-54.000000
1.000000	53.600000	60.850000	1023.000000	0.000000	179.000000	55.000000	-8.000000	-52.000000
1.010000	53.600000	60.420000	1023.000000	0.000000	179.000000	55.000000	0.000000	-43.000000
1.020000	53.660000	59.990000	1023.000000	0.000000	177.000000	55.000000	6.000000	-43.000000
1.030000	53.750000	59.550000	1023.000000	0.000000	177.000000	56.000000	9.000000	-44.000000
1.040000	53.840000	59.160000	1023.000000	0.000000	177.000000	56.000000	9.000000	-39.000000
1.050000	53.890000	58.790000	1023.000000	0.000000	177.000000	57.000000	5.000000	-37.000000
1.060000	53.890000	58.470000	1023.000000	0.000000	177.000000	58.000000	0.000000	-32.000000
1.070000	53.950000	58.150000	1023.000000	0.000000	175.000000	58.000000	6.000000	-32.000000
1.080000	53.950000	57.980000	1023.000000	0.000000	175.000000	59.000000	0.000000	-17.000000
1.090000	53.950000	57.910000	1023.000000	0.000000	175.000000	59.000000	0.000000	-7.000000
1.100000	53.950000	57.840000	1023.000000	0.000000	175.000000	60.000000	0.000000	-7.000000
1.110000	53.950000	57.840000	1023.000000	0.000000	173.000000	60.000000	0.000000	0.000000
1.120000	53.950000	57.840000	1023.000000	0.000000	173.000000	60.000000	0.000000	0.000000
1.130000	53.950000	57.780000	1023.000000	0.000000	173.000000	60.000000	0.000000	-6.000000
1.140000	53.950000	57.780000	1023.000000	0.000000	173.000000	60.000000	0.000000	0.000000
1.150000	53.950000	57.780000	1023.000000	0.000000	173.000000	61.000000	0.000000	0.000000
1.160000	53.950000	57.780000	1023.000000	0.000000	173.000000	61.000000	0.000000	0.000000
1.170000	53.950000	57.780000	1023.000000	0.000000	173.000000	61.000000	0.000000	0.000000
1.180000	53.950000	57.780000	1023.000000	0.000000	173.000000	61.000000	0.000000	0.000000
1.190000	53.950000	57.780000	1023.000000	0.000000	173.000000	61.000000	0.000000	0.000000
1.200000	53.950000	57.780000	1023.000000	0.000000	173.000000	61.000000	0.000000	0.000000
1.210000	53.950000	57.780000	1023.000000	0.000000	173.000000	61.000000	0.000000	0.000000
1.220000	53.950000	57.920000	1023.000000	0.000000	173.000000	61.000000	0.000000	14.000000
1.230000	53.950000	58.220000	1023.000000	0.000000	173.000000	61.000000	0.000000	30.000000
1.240000	53.950000	58.630000	1023.000000	0.000000	173.000000	61.000000	0.000000	41.000000
1.250000	53.950000	59.280000	1023.000000	0.000000	173.000000	60.000000	0.000000	65.000000
1.260000	53.880000	59.800000	1023.000000	0.000000	173.000000	60.000000	-7.000000	52.000000
1.270000	53.880000	60.230000	988.000000	0.000000	173.000000	59.000000	0.000000	43.000000
1.280000	53.770000	60.700000	983.000000	0.000000	173.000000	59.000000	-11.000000	47.000000
1.290000	53.680000	61.110000	983.000000	0.000000	174.000000	58.000000	-9.000000	41.000000
1.300000	53.580000	61.350000	983.000000	0.000000	174.000000	58.000000	-10.000000	24.000000
1.310000	53.460000	61.500000	979.000000	0.000000	174.000000	57.000000	-12.000000	15.000000
1.320000	53.220000	61.730000	974.000000	0.000000	174.000000	57.000000	-24.000000	23.000000
1.330000	52.900000	61.960000	959.000000	0.000000	174.000000	56.000000	-32.000000	23.000000
1.340000	52.610000	62.160000	933.000000	0.000000	174.000000	56.000000	-29.000000	20.000000
1.350000	52.280000	62.390000	932.000000	0.000000	174.000000	56.000000	-33.000000	23.000000
1.360000	51.910000	62.600000	920.000000	0.000000	174.000000	55.000000	-37.000000	21.000000
1.370000	51.510000	62.790000	915.000000	0.000000	174.000000	55.000000	-40.000000	19.000000
1.380000	51.120000	62.910000	912.000000	0.000000	174.000000	55.000000	-39.000000	12.000000
1.390000	50.780000	62.970000	917.000000	0.000000	173.000000	54.000000	-34.000000	6.000000
1.400000	50.470000	62.970000	923.000000	0.000000	173.000000	54.000000	-31.000000	0.000000
1.410000	50.240000	62.970000	927.000000	0.000000	173.000000	54.000000	-23.000000	0.000000
1.420000	50.080000	62.900000	929.000000	0.000000	172.000000	54.000000	-16.000000	-7.000000
1.430000	50.010000	62.790000	930.000000	0.000000	172.000000	54.000000	-7.000000	-11.000000
1.440000	50.010000	62.680000	930.000000	0.000000	172.000000	54.000000	0.000000	-11.000000
1.450000	50.010000	62.580000	935.000000	0.000000	170.000000	54.000000	0.000000	-10.000000
1.460000	50.010000	62.460000	933.000000	0.000000	170.000000	54.000000	0.000000	-12.000000
1.470000	50.070000	62.330000	932.000000	0.000000	169.000000	53.000000	6.000000	-13.000000
1.480000	50.140000	62.200000	933.000000	0.000000	169.000000	54.000000	7.000000	-13.000000
1.490000	50.420000	62.080000	933.000000	0.000000	169.000000	54.000000	28.000000	-12.000000
1.500000	50.830000	62.000000	932.000000	0.000000	167.000000	54.000000	41.000000	-8.000000
1.510000	51.400000	62.000000	930.000000	0.000000	167.000000	54.000000	57.000000	0.000000
1.520000	52.410000	62.080000	924.000000	0.000000	169.000000	54.000000	101.000000	8.000000
1.530000	53.710000	62.330000	933.000000	0.000000	169.000000	54.000000	130.000000	25.000000
1.540000	55.370000	62.670000	948.000000	0.000000	169.000000	54.000000	166.000000	34.000000
1.550000	57.260000	63.170000	947.000000	0.000000	170.000000	55.000000	189.000000	50.000000
1.560000	59.310000	63.700000	962.000000	0.000000	170.000000	55.000000	205.000000	53.000000
1.570000	61.090000	64.260000	986.000000	0.000000	171.000000	55.000000	178.000000	56.000000
1.580000	62.370000	64.630000	988.000000	0.000000	173.000000	55.000000	128.000000	37.000000
1.590000	63.310000	64.770000	996.000000	0.000000	175.000000	54.000000	94.000000	14.000000
1.600000	63.450000	64.770000	997.000000	0.000000	175.000000	54.000000	14.000000	0.000000
1.610000	63.510000	64.690000	996.000000	0.000000	176.000000	54.000000	6.000000	-8.000000
1.620000	63.510000	64.600000	994.000000	0.000000	176.000000	54.000000	0.000000	-9.000000
1.630000	63.510000	64.480000	1005.000000	0.000000	177.000000	54.000000	0.000000	-12.000000
1.640000	63.320000	64.300000	1012.000000	0.000000	177.000000	54.000000	-19.000000	-18.000000
1.650000	63.060000	64.160000	1014.000000	0.000000	177.000000	54.000000	-26.000000	-14.000000
1.660000	62.950000	64.050000	1015.000000	0.000000	179.000000	54.000000	-11.000000	-11.000000
1.670000	62.870000	64.050000	1018.000000	0.000000	179.000000	54.000000	-8.000000	0.000000
1.680000	62.870000	64.050000	1009.000000	0.000000	179.000000	54.000000	0.000000	0.000000
1.690000	62.870000	64.050000	971.000000	0.000000	179.000000	54.000000	0.000000	0.000000
1.700000	62.870000	64.050000	852.000000	0.000000	179.000000	54.000000	0.000000	0.000000
1.710000	62.870000	64.050000	216.000000	0.000000	179.000000	54.000000	0.000000	0.000000
1.720000	62.870000	64.050000	0.000000	1.000000	179.000000	54.000000	0.000000	0.000000
1.730000	62.790000	64.180000	0.000000	0.000000	179.000000	54.000000	-8.000000	13.000000
1.740000	62.570000	64.330000	0.000000	0.000000	179.000000	54.000000	-22.000000	15.000000
1.750000	62.450000	63.860000	0.000000	0.000000	179.000000	54.000000	-12.000000	-47.000000
1.760000	62.590000	64.140000	0.000000	0.000000	179.000000	54.000000	14.000000	28.000000
1.770000	62.910000	64.930000	0.000000	0.000000	180.000000	54.000000	32.000000	79.000000
1.780000	63.600000	64.540000	0.000000	0.000000	180.000000	53.000000	69.000000	-39.000000
1.790000	64.230000	64.600000	0.000000	0.000000	180.000000	53.000000	63.000000	6.000000
1.800000	64.830000	64.960000	0.000000	0.000000	181.000000	51.000000	60.000000	36.000000
1.810000	65.310000	65.030000	0.000000	0.000000	183.000000	49.000000	48.000000	7.000000
1.820000	65.670000	65.030000	0.000000	0.000000	185.000000	47.000000	36.000000	0.000000
1.830000	65.950000	65.030000	0.000000	0.000000	187.000000	45.000000	28.000000	0.000000
1.840000	66.130000	64.690000	0.000000	0.000000	188.000000	44.000000	18.000000	-34.000000
1.850000	66.070000	64.240000	0.000000	0.000000	188.000000	44.000000	-6.000000	-45.000000
1.860000	65.860000	63.540000	0.000000	0.000000	188.000000	43.000000	-21.000000	-70.000000
1.870000	65.400000	63.350000	0.000000	0.000000	188.000000	43.000000	-46.000000	-19.000000
1.880000	64.930000	63.490000	0.000000	0.000000	189.000000	43.000000	-47.000000	14.000000
1.890000	64.270000	63.300000	0.000000	0.000000	190.000000	44.000000	-66.000000	-19.000000
1.900000	63.470000	63.100000	0.000000	0.000000	189.000000	46.000000	-80.000000	-20.000000
1.910000	62.830000	62.870000	0.000000	0.000000	189.000000	48.000000	-64.000000	-23.000000
1.920000	62.480000	62.610000	0.000000	0.000000	187.000000	50.000000	-35.000000	-26.000000
1.930000	62.330000	62.360000	0.000000	0.000000	186.000000	52.000000	-15.000000	-25.000000
1.940000	62.330000	62.360000	0.000000	0.000000	184.000000	53.000000	0.000000	0.000000
1.950000	62.130000	62.080000	0.000000	0.000000	183.000000	55.000000	-20.000000	-28.000000
1.960000	62.010000	62.080000	0.000000	0.000000	181.000000	56.000000	-12.000000	0.000000
1.970000	61.940000	62.140000	0.000000	0.000000	181.000000	56.000000	-7.000000	6.000000
1.980000	61.890000	62.240000	0.000000	0.000000	182.000000	57.000000	-5.000000	10.000000
1.990000	61.810000	62.390000	0.000000	0.000000	180.000000	57.000000	-8.000000	15.000000
2.000000	61.730000	62.390000	0.000000	0.000000	180.000000	57.000000	-8.000000	0.000000
2.010000	61.650000	62.250000	0.000000	0.000000	180.000000	57.000000	-8.000000	-14.000000
2.020000	61.490000	62.980000	0.000000	0.000000	180.000000	57.000000	-16.000000	73.000000
2.030000	61.270000	63.380000	0.000000	0.000000	180.000000	57.000000	-22.000000	40.000000
2.040000	61.060000	63.560000	0.000000	0.000000	180.000000	56.000000	-21.000000	18.000000
2.050000	60.840000	63.950000	0.000000	0.000000	180.000000	56.000000	-22.000000	39.000000
2.060000	60.610000	64.440000	0.000000	0.000000	180.000000	56.000000	-23.000000	49.000000
2.070000	60.510000	64.990000	0.000000	0.000000	180.000000	56.000000	-10.000000	55.000000
2.080000	60.510000	64.990000	12.000000	0.000000	180.000000	55.000000	0.000000	0.000000
2.090000	60.510000	64.990000	369.000000	1.000000	180.000000	56.000000	0.000000	0.000000
2.100000	60.520000	65.410000	475.000000	0.000000	180.000000	56.000000	1.000000	42.000000
2.110000	60.610000	65.290000	563.000000	0.000000	180.000000	56.000000	9.000000	-12.000000
2.120000	60.690000	64.860000	667.000000	0.000000	180.000000	56.000000	8.000000	-43.000000
2.130000	60.780000	64.220000	720.000000	0.000000	180.000000	56.000000	9.000000	-64.000000
2.140000	60.870000	63.530000	777.000000	0.000000	180.000000	56.000000	9.000000	-69.000000
2.150000	60.970000	62.780000	783.000000	0.000000	180.000000	57.000000	10.000000	-75.000000
2.160000	61.080000	62.100000	791.000000	0.000000	178.000000	57.000000	11.000000	-68.000000
2.170000	61.080000	61.500000	797.000000	0.000000	178.000000	57.000000	0.000000	-60.000000
2.180000	61.210000	61.050000	796.000000	0.000000	177.000000	57.000000	13.000000	-45.000000
2.190000	61.350000	60.780000	791.000000	0.000000	175.000000	57.000000	14.000000	-27.000000
2.200000	61.470000	60.620000	788.000000	0.000000	175.000000	58.000000	12.000000	-16.000000
2.210000	61.470000	60.620000	787.000000	0.000000	174.000000	58.000000	0.000000	0.000000
