t	x	y	pressure	penup	azimuth	inclination	v_x	v_y
0.000000	83.480000	64.000000	34.000000	1.000000	152.000000	62.000000	0.000000	0.000000
0.010000	83.590000	63.720000	68.000000	0.000000	152.000000	62.000000	11.000000	-28.000000
0.020000	83.730000	64.050000	78.000000	0.000000	154.000000	63.000000	14.000000	33.000000
0.030000	83.870000	63.800000	103.000000	0.000000	154.000000	63.000000	14.000000	-25.000000
0.040000	84.020000	63.500000	100.000000	0.000000	154.000000	63.000000	15.000000	-30.000000
0.050000	84.140000	63.100000	107.000000	0.000000	154.000000	63.000000	12.000000	-40.000000
0.060000	84.250000	62.640000	105.000000	0.000000	154.000000	63.000000	11.000000	-46.000000
0.070000	84.250000	62.280000	115.000000	0.000000	154.000000	63.000000	0.000000	-36.000000
0.080000	84.250000	62.070000	120.000000	0.000000	154.000000	63.000000	0.000000	-21.000000
0.090000	84.180000	61.950000	142.000000	0.000000	155.000000	63.000000	-7.000000	-12.000000
0.100000	84.110000	61.950000	148.000000	0.000000	155.000000	63.000000	-7.000000	0.000000
0.110000	83.970000	62.000000	168.000000	0.000000	155.000000	63.000000	-14.000000	5.000000
0.120000	83.770000	62.130000	175.000000	0.000000	154.000000	64.000000	-20.000000	13.000000
0.130000	83.590000	62.410000	193.000000	0.000000	154.000000	64.000000	-18.000000	28.000000
0.140000	83.500000	62.770000	191.000000	0.000000	154.000000	64.000000	-9.000000	36.000000
0.150000	83.500000	63.190000	203.000000	0.000000	154.000000	64.000000	0.000000	42.000000
0.160000	83.550000	63.590000	202.000000	0.000000	154.000000	64.000000	5.000000	40.000000
0.170000	83.810000	63.990000	200.000000	0.000000	154.000000	64.000000	26.000000	40.000000
0.180000	84.120000	64.210000	212.000000	0.000000	154.000000	64.000000	31.000000	22.000000
0.190000	84.510000	64.310000	215.000000	0.000000	153.000000	63.000000	39.000000	10.000000
0.200000	84.920000	64.240000	206.000000	0.000000	153.000000	63.000000	41.000000	-7.000000
0.210000	85.290000	63.940000	214.000000	0.000000	153.000000	63.000000	37.000000	-30.000000
0.220000	85.510000	63.480000	216.000000	0.000000	153.000000	63.000000	22.000000	-46.000000
0.230000	85.640000	63.030000	207.000000	0.000000	151.000000	63.000000	13.000000	-45.000000
0.240000	85.520000	62.640000	198.000000	0.000000	153.000000	63.000000	-12.000000	-39.000000
0.250000	85.210000	62.300000	172.000000	0.000000	153.000000	63.000000	-31.000000	-34.000000
0.260000	84.770000	62.030000	139.000000	0.000000	153.000000	63.000000	-44.000000	-27.000000
0.270000	84.370000	61.880000	32.000000	0.000000	154.000000	64.000000	-40.000000	-15.000000
0.280000	84.370000	61.880000	0.000000	1.000000	154.000000	64.000000	0.000000	0.000000
0.290000	84.100000	61.810000	0.000000	0.000000	154.000000	64.000000	-27.000000	-7.000000
0.300000	84.150000	61.860000	0.000000	0.000000	154.000000	64.000000	5.000000	5.000000
0.310000	84.270000	61.940000	0.000000	0.000000	154.000000	64.000000	12.000000	8.000000
0.320000	84.510000	62.020000	0.000000	0.000000	154.000000	64.000000	24.000000	8.000000
0.330000	84.870000	62.120000	0.000000	0.000000	154.000000	64.000000	36.000000	10.000000
0.340000	85.300000	62.230000	0.000000	0.000000	154.000000	64.000000	43.000000	11.000000
0.350000	85.730000	62.320000	0.000000	0.000000	154.000000	64.000000	43.000000	9.000000
0.360000	86.130000	62.430000	0.000000	0.000000	154.000000	64.000000	40.000000	11.000000
0.370000	86.430000	62.540000	0.000000	0.000000	154.000000	64.000000	30.000000	11.000000
0.380000	86.670000	62.660000	0.000000	0.000000	154.000000	64.000000	24.000000	12.000000
0.390000	86.670000	62.660000	13.000000	0.000000	154.000000	64.000000	0.000000	0.000000
0.400000	86.670000	62.660000	60.000000	1.000000	154.000000	64.000000	0.000000	0.000000
0.410000	86.480000	62.920000	100.000000	0.000000	154.000000	64.000000	-19.000000	26.000000
0.420000	86.180000	62.920000	156.000000	0.000000	154.000000	64.000000	-30.000000	0.000000
0.430000	85.870000	62.860000	205.000000	0.000000	154.000000	64.000000	-31.000000	-6.000000
0.440000	85.540000	62.750000	211.000000	0.000000	154.000000	64.000000	-33.000000	-11.000000
0.450000	85.410000	62.630000	212.000000	0.000000	154.000000	64.000000	-13.000000	-12.000000
0.460000	85.320000	62.480000	223.000000	0.000000	154.000000	64.000000	-9.000000	-15.000000
0.470000	85.320000	62.340000	223.000000	0.000000	154.000000	64.000000	0.000000	-14.000000
0.480000	85.400000	62.200000	226.000000	0.000000	154.000000	64.000000	8.000000	-14.000000
0.490000	85.510000	62.150000	239.000000	0.000000	154.000000	64.000000	11.000000	-5.000000
0.500000	85.660000	62.150000	244.000000	0.000000	154.000000	64.000000	15.000000	0.000000
0.510000	85.860000	62.260000	246.000000	0.000000	154.000000	64.000000	20.000000	11.000000
0.520000	86.070000	62.390000	254.000000	0.000000	154.000000	64.000000	21.000000	13.000000
0.530000	86.270000	62.550000	257.000000	0.000000	154.000000	64.000000	20.000000	16.000000
0.540000	86.490000	62.660000	265.000000	0.000000	154.000000	64.000000	22.000000	11.000000
0.550000	86.690000	62.740000	265.000000	0.000000	154.000000	64.000000	20.000000	8.000000
0.560000	86.850000	62.740000	255.000000	0.000000	154.000000	64.000000	16.000000	0.000000
0.570000	86.980000	62.680000	212.000000	0.000000	154.000000	64.000000	13.000000	-6.000000
0.580000	87.080000	62.590000	110.000000	0.000000	156.000000	64.000000	10.000000	-9.000000
0.590000	87.080000	62.590000	0.000000	1.000000	156.000000	64.000000	0.000000	0.000000
0.600000	87.250000	62.420000	0.000000	0.000000	156.000000	64.000000	17.000000	-17.000000
0.610000	87.250000	62.330000	0.000000	0.000000	156.000000	64.000000	0.000000	-9.000000
0.620000	87.360000	62.330000	0.000000	0.000000	156.000000	64.000000	11.000000	0.000000
0.630000	87.440000	62.390000	0.000000	0.000000	158.000000	64.000000	8.000000	6.000000
0.640000	87.530000	62.470000	0.000000	0.000000	157.000000	65.000000	9.000000	8.000000
0.650000	87.620000	62.560000	0.000000	0.000000	157.000000	65.000000	9.000000	9.000000
0.660000	87.720000	62.660000	0.000000	0.000000	157.000000	65.000000	10.000000	10.000000
0.670000	87.840000	62.820000	0.000000	0.000000	157.000000	65.000000	12.000000	16.000000
0.680000	87.930000	62.970000	0.000000	0.000000	157.000000	65.000000	9.000000	15.000000
0.690000	87.990000	63.100000	0.000000	0.000000	157.000000	65.000000	6.000000	13.000000
0.700000	87.990000	63.100000	63.000000	1.000000	157.000000	65.000000	0.000000	0.000000
0.710000	87.990000	63.100000	137.000000	0.000000	157.000000	65.000000	0.000000	0.000000
0.720000	87.990000	63.100000	210.000000	0.000000	157.000000	65.000000	0.000000	0.000000
0.730000	87.990000	63.100000	246.000000	0.000000	157.000000	65.000000	0.000000	0.000000
0.740000	87.990000	63.100000	275.000000	0.000000	157.000000	65.000000	0.000000	0.000000
0.750000	87.990000	63.100000	282.000000	0.000000	157.000000	65.000000	0.000000	0.000000
0.760000	88.180000	62.740000	302.000000	0.000000	160.000000	66.000000	19.000000	-36.000000
0.770000	88.290000	62.570000	306.000000	0.000000	160.000000	66.000000	11.000000	-17.000000
0.780000	88.400000	62.480000	311.000000	0.000000	160.000000	66.000000	11.000000	-9.000000
0.790000	88.540000	62.430000	312.000000	0.000000	160.000000	66.000000	14.000000	-5.000000
0.800000	88.710000	62.430000	329.000000	0.000000	160.000000	66.000000	17.000000	0.000000
0.810000	88.890000	62.530000	345.000000	0.000000	160.000000	66.000000	18.000000	10.000000
0.820000	89.000000	62.710000	341.000000	0.000000	162.000000	66.000000	11.000000	18.000000
0.830000	89.070000	62.920000	353.000000	0.000000	162.000000	66.000000	7.000000	21.000000
0.840000	89.070000	63.120000	349.000000	0.000000	162.000000	66.000000	0.000000	20.000000
0.850000	89.070000	63.290000	336.000000	0.000000	162.000000	66.000000	0.000000	17.000000
0.860000	89.070000	63.410000	289.000000	0.000000	162.000000	66.000000	0.000000	12.000000
0.870000	89.070000	63.480000	146.000000	0.000000	164.000000	66.000000	0.000000	7.000000
0.880000	89.070000	63.480000	0.000000	1.000000	164.000000	66.000000	0.000000	0.000000
0.890000	88.960000	63.480000	0.000000	0.000000	164.000000	66.000000	-11.000000	0.000000
0.900000	88.960000	63.390000	0.000000	0.000000	164.000000	66.000000	0.000000	-9.000000
0.910000	88.960000	63.280000	0.000000	0.000000	164.000000	66.000000	0.000000	-11.000000
0.920000	89.130000	63.160000	0.000000	0.000000	162.000000	66.000000	17.000000	-12.000000
0.930000	89.430000	63.080000	0.000000	0.000000	162.000000	66.000000	30.000000	-8.000000
0.940000	89.590000	63.020000	0.000000	0.000000	160.000000	66.000000	16.000000	-6.000000
0.950000	89.590000	63.020000	0.000000	0.000000	157.000000	65.000000	0.000000	0.000000
0.960000	89.950000	63.020000	0.000000	0.000000	157.000000	65.000000	36.000000	0.000000
0.970000	90.090000	63.020000	0.000000	0.000000	155.000000	65.000000	14.000000	0.000000
0.980000	90.090000	63.020000	96.000000	1.000000	153.000000	65.000000	0.000000	0.000000
0.990000	90.090000	63.020000	168.000000	0.000000	153.000000	65.000000	0.000000	0.000000
1.000000	90.090000	63.020000	259.000000	0.000000	153.000000	65.000000	0.000000	0.000000
1.010000	90.090000	63.020000	305.000000	0.000000	153.000000	65.000000	0.000000	0.000000
1.020000	90.090000	63.020000	325.000000	0.000000	153.000000	65.000000	0.000000	0.000000
1.030000	90.090000	63.020000	334.000000	0.000000	153.000000	65.000000	0.000000	0.000000
1.040000	90.090000	63.020000	345.000000	0.000000	153.000000	65.000000	0.000000	0.000000
1.050000	90.080000	62.650000	309.000000	0.000000	155.000000	65.000000	-1.000000	-37.000000
1.060000	90.020000	62.520000	210.000000	0.000000	155.000000	65.000000	-6.000000	-13.000000
1.070000	90.020000	62.430000	88.000000	0.000000	155.000000	65.000000	0.000000	-9.000000
1.080000	90.020000	62.430000	0.000000	1.000000	155.000000	65.000000	0.000000	0.000000
1.090000	90.270000	62.380000	0.000000	0.000000	155.000000	65.000000	25.000000	-5.000000
1.100000	90.480000	62.380000	0.000000	0.000000	155.000000	65.000000	21.000000	0.000000
1.110000	90.780000	62.380000	0.000000	0.000000	155.000000	65.000000	30.000000	0.000000
1.120000	91.140000	62.510000	0.000000	0.000000	153.000000	65.000000	36.000000	13.000000
1.130000	91.430000	62.640000	0.000000	0.000000	153.000000	65.000000	29.000000	13.000000
1.140000	91.680000	62.780000	0.000000	0.000000	153.000000	65.000000	25.000000	14.000000
1.150000	91.900000	62.960000	0.000000	0.000000	153.000000	65.000000	22.000000	18.000000
1.160000	91.900000	63.170000	0.000000	0.000000	153.000000	65.000000	0.000000	21.000000
1.170000	91.900000	63.170000	48.000000	1.000000	153.000000	65.000000	0.000000	0.000000
1.180000	91.560000	63.410000	71.000000	0.000000	153.000000	65.000000	-34.000000	24.000000
1.190000	91.310000	63.410000	105.000000	0.000000	153.000000	65.000000	-25.000000	0.000000
1.200000	91.030000	63.260000	131.000000	0.000000	153.000000	65.000000	-28.000000	-15.000000
1.210000	90.760000	63.050000	149.000000	0.000000	153.000000	65.000000	-27.000000	-21.000000
1.220000	90.650000	62.830000	158.000000	0.000000	153.000000	65.000000	-11.000000	-22.000000
1.230000	90.650000	62.680000	170.000000	0.000000	155.000000	65.000000	0.000000	-15.000000
1.240000	90.780000	62.580000	182.000000	0.000000	155.000000	65.000000	13.000000	-10.000000
1.250000	90.970000	62.490000	170.000000	0.000000	155.000000	65.000000	19.000000	-9.000000
1.260000	91.250000	62.490000	216.000000	0.000000	155.000000	65.000000	28.000000	0.000000
1.270000	91.480000	62.550000	250.000000	0.000000	155.000000	65.000000	23.000000	6.000000
1.280000	91.660000	62.690000	311.000000	0.000000	155.000000	65.000000	18.000000	14.000000
1.290000	91.810000	62.930000	345.000000	0.000000	153.000000	65.000000	15.000000	24.000000
1.300000	91.880000	63.240000	349.000000	0.000000	155.000000	65.000000	7.000000	31.000000
1.310000	91.880000	63.600000	358.000000	0.000000	155.000000	65.000000	0.000000	36.000000
1.320000	91.820000	64.200000	341.000000	0.000000	155.000000	65.000000	-6.000000	60.000000
1.330000	91.740000	64.970000	339.000000	0.000000	155.000000	65.000000	-8.000000	77.000000
1.340000	91.670000	65.740000	338.000000	0.000000	157.000000	65.000000	-7.000000	77.000000
1.350000	91.670000	66.170000	348.000000	0.000000	156.000000	66.000000	0.000000	43.000000
1.360000	91.670000	66.370000	366.000000	0.000000	156.000000	66.000000	0.000000	20.000000
1.370000	91.670000	66.320000	391.000000	0.000000	156.000000	66.000000	0.000000	-5.000000
1.380000	91.670000	66.210000	405.000000	0.000000	156.000000	66.000000	0.000000	-11.000000
1.390000	91.670000	65.830000	425.000000	0.000000	159.000000	67.000000	0.000000	-38.000000
1.400000	91.670000	65.300000	425.000000	0.000000	159.000000	67.000000	0.000000	-53.000000
1.410000	91.670000	64.630000	387.000000	0.000000	159.000000	67.000000	0.000000	-67.000000
1.420000	91.670000	63.950000	304.000000	0.000000	159.000000	67.000000	0.000000	-68.000000
1.430000	91.670000	63.370000	91.000000	0.000000	159.000000	67.000000	0.000000	-58.000000
1.440000	91.670000	63.370000	0.000000	1.000000	157.000000	65.000000	0.000000	0.000000
1.450000	91.850000	62.470000	0.000000	0.000000	157.000000	65.000000	18.000000	-90.000000
1.460000	91.990000	62.250000	0.000000	0.000000	157.000000	65.000000	14.000000	-22.000000
1.470000	92.220000	62.150000	0.000000	0.000000	155.000000	65.000000	23.000000	-10.000000
1.480000	92.500000	62.150000	0.000000	0.000000	155.000000	65.000000	28.000000	0.000000
1.490000	92.790000	62.100000	0.000000	0.000000	153.000000	65.000000	29.000000	-5.000000
1.500000	93.090000	62.100000	0.000000	0.000000	153.000000	65.000000	30.000000	0.000000
1.510000	93.410000	62.100000	0.000000	0.000000	153.000000	65.000000	32.000000	0.000000
1.520000	93.840000	62.040000	0.000000	0.000000	151.000000	64.000000	43.000000	-6.000000
1.530000	94.250000	62.090000	0.000000	0.000000	151.000000	64.000000	41.000000	5.000000
1.540000	94.640000	62.200000	0.000000	0.000000	151.000000	64.000000	39.000000	11.000000
1.550000	95.010000	62.310000	0.000000	0.000000	150.000000	65.000000	37.000000	11.000000
1.560000	95.230000	62.470000	0.000000	0.000000	148.000000	65.000000	22.000000	16.000000
1.570000	95.360000	62.670000	0.000000	0.000000	148.000000	65.000000	13.000000	20.000000
1.580000	95.280000	62.870000	0.000000	0.000000	148.000000	65.000000	-8.000000	20.000000
1.590000	95.280000	62.870000	25.000000	1.000000	148.000000	65.000000	0.000000	0.000000
1.600000	94.890000	63.340000	91.000000	0.000000	148.000000	65.000000	-39.000000	47.000000
1.610000	94.680000	63.400000	124.000000	0.000000	150.000000	65.000000	-21.000000	6.000000
1.620000	94.460000	63.400000	141.000000	0.000000	150.000000	65.000000	-22.000000	0.000000
1.630000	94.270000	63.210000	141.000000	0.000000	150.000000	65.000000	-19.000000	-19.000000
1.640000	94.130000	63.020000	149.000000	0.000000	150.000000	65.000000	-14.000000	-19.000000
1.650000	94.130000	62.780000	160.000000	0.000000	150.000000	65.000000	0.000000	-24.000000
1.660000	94.130000	62.620000	179.000000	0.000000	151.000000	64.000000	0.000000	-16.000000
1.670000	94.260000	62.510000	185.000000	0.000000	151.000000	64.000000	13.000000	-11.000000
1.680000	94.440000	62.510000	207.000000	0.000000	150.000000	65.000000	18.000000	0.000000
1.690000	94.660000	62.510000	249.000000	0.000000	150.000000	65.000000	22.000000	0.000000
1.700000	94.870000	62.690000	304.000000	0.000000	150.000000	65.000000	21.000000	18.000000
1.710000	95.050000	62.930000	340.000000	0.000000	150.000000	65.000000	18.000000	24.000000
1.720000	95.210000	63.280000	339.000000	0.000000	150.000000	65.000000	16.000000	35.000000
1.730000	95.340000	63.700000	336.000000	0.000000	150.000000	65.000000	13.000000	42.000000
1.740000	95.340000	64.420000	319.000000	0.000000	150.000000	65.000000	0.000000	72.000000
1.750000	95.340000	65.170000	325.000000	0.000000	150.000000	65.000000	0.000000	75.000000
1.760000	95.260000	65.940000	327.000000	0.000000	152.000000	65.000000	-8.000000	77.000000
1.770000	95.170000	66.410000	329.000000	0.000000	152.000000	65.000000	-9.000000	47.000000
1.780000	95.100000	66.670000	343.000000	0.000000	152.000000	65.000000	-7.000000	26.000000
1.790000	95.100000	66.780000	351.000000	0.000000	152.000000	65.000000	0.000000	11.000000
1.800000	95.100000	66.780000	348.000000	0.000000	152.000000	65.000000	0.000000	0.000000
1.810000	95.100000	66.680000	351.000000	0.000000	154.000000	66.000000	0.000000	-10.000000
1.820000	95.100000	66.290000	344.000000	0.000000	154.000000	66.000000	0.000000	-39.000000
1.830000	95.010000	65.710000	327.000000	0.000000	154.000000	66.000000	-9.000000	-58.000000
1.840000	94.920000	64.960000	285.000000	0.000000	154.000000	66.000000	-9.000000	-75.000000
1.850000	94.920000	64.210000	173.000000	0.000000	154.000000	66.000000	0.000000	-75.000000
1.860000	94.920000	63.590000	98.000000	0.000000	154.000000	66.000000	0.000000	-62.000000
1.870000	95.090000	63.070000	58.000000	0.000000	154.000000	66.000000	17.000000	-52.000000
1.880000	95.270000	62.810000	44.000000	0.000000	154.000000	66.000000	18.000000	-26.000000
1.890000	95.490000	62.640000	15.000000	0.000000	152.000000	65.000000	22.000000	-17.000000
1.900000	95.730000	62.520000	8.000000	1.000000	153.000000	65.000000	0.000000	0.000000
1.910000	95.730000	62.520000	0.000000	0.000000	152.000000	65.000000	0.000000	0.000000
1.920000	96.160000	62.590000	0.000000	0.000000	150.000000	65.000000	43.000000	7.000000
1.930000	96.400000	62.740000	0.000000	0.000000	150.000000	65.000000	24.000000	15.000000
1.940000	96.650000	62.910000	0.000000	0.000000	150.000000	65.000000	25.000000	17.000000
1.950000	96.900000	63.130000	0.000000	0.000000	150.000000	65.000000	25.000000	22.000000
1.960000	96.900000	63.130000	8.000000	0.000000	150.000000	65.000000	0.000000	0.000000
1.970000	97.160000	63.530000	68.000000	1.000000	150.000000	65.000000	0.000000	0.000000
1.980000	97.160000	63.660000	101.000000	0.000000	152.000000	65.000000	0.000000	13.000000
1.990000	97.010000	63.750000	187.000000	0.000000	152.000000	65.000000	-15.000000	9.000000
2.000000	96.800000	63.750000	249.000000	0.000000	152.000000	65.000000	-21.000000	0.000000
2.010000	96.570000	63.750000	284.000000	0.000000	152.000000	65.000000	-23.000000	0.000000
2.020000	96.370000	63.620000	302.000000	0.000000	152.000000	65.000000	-20.000000	-13.000000
2.030000	96.230000	63.460000	305.000000	0.000000	152.000000	65.000000	-14.000000	-16.000000
2.040000	96.160000	63.250000	317.000000	0.000000	152.000000	65.000000	-7.000000	-21.000000
2.050000	96.160000	63.030000	325.000000	0.000000	152.000000	65.000000	0.000000	-22.000000
2.060000	96.220000	62.850000	325.000000	0.000000	152.000000	65.000000	6.000000	-18.000000
2.070000	96.330000	62.690000	307.000000	0.000000	152.000000	65.000000	11.000000	-16.000000
2.080000	96.500000	62.630000	255.000000	0.000000	152.000000	65.000000	17.000000	-6.000000
2.090000	96.690000	62.630000	137.000000	0.000000	152.000000	65.000000	19.000000	0.000000
2.100000	96.880000	62.630000	1.000000	1.000000	152.000000	65.000000	0.000000	0.000000
2.110000	96.880000	62.630000	0.000000	0.000000	152.000000	65.000000	0.000000	0.000000
2.120000	97.240000	62.630000	0.000000	0.000000	152.000000	65.000000	36.000000	0.000000
2.130000	97.400000	62.630000	0.000000	0.000000	152.000000	65.000000	16.000000	0.000000
2.140000	97.500000	62.630000	0.000000	0.000000	152.000000	65.000000	10.000000	0.000000
2.150000	97.570000	62.630000	0.000000	0.000000	152.000000	65.000000	7.000000	0.000000
2.160000	97.630000	62.630000	0.000000	0.000000	152.000000	65.000000	6.000000	0.000000
2.170000	97.630000	62.630000	0.000000	0.000000	152.000000	65.000000	0.000000	0.000000
2.180000	97.630000	62.630000	0.000000	0.000000	152.000000	65.000000	0.000000	0.000000
2.190000	97.630000	62.630000	0.000000	0.000000	152.000000	65.000000	0.000000	0.000000
2.200000	97.560000	62.630000	0.000000	0.000000	152.000000	65.000000	-7.000000	0.000000
2.210000	97.560000	62.630000	0.000000	0.000000	152.000000	65.000000	0.000000	0.000000
2.220000	97.490000	62.630000	0.000000	0.000000	152.000000	65.000000	-7.000000	0.000000
2.230000	97.430000	62.630000	0.000000	0.000000	152.000000	65.000000	-6.000000	0.000000
