t	x	y	pressure	penup	azimuth	inclination	v_x	v_y
0.000000	47.550000	76.500000	134.000000	1.000000	128.000000	52.000000	0.000000	0.000000
0.010000	47.430000	75.840000	301.000000	0.000000	129.000000	52.000000	-12.000000	-66.000000
0.020000	47.370000	75.970000	422.000000	0.000000	129.000000	52.000000	-6.000000	13.000000
0.030000	47.300000	76.140000	494.000000	0.000000	129.000000	52.000000	-7.000000	17.000000
0.040000	47.250000	76.200000	586.000000	0.000000	130.000000	53.000000	-5.000000	6.000000
0.050000	47.200000	76.550000	619.000000	0.000000	130.000000	53.000000	-5.000000	35.000000
0.060000	47.200000	77.050000	666.000000	0.000000	131.000000	54.000000	0.000000	50.000000
0.070000	47.200000	77.660000	720.000000	0.000000	131.000000	54.000000	0.000000	61.000000
0.080000	47.270000	78.440000	742.000000	0.000000	130.000000	54.000000	7.000000	78.000000
0.090000	47.430000	79.560000	750.000000	0.000000	131.000000	55.000000	16.000000	112.000000
0.100000	47.680000	80.920000	771.000000	0.000000	131.000000	55.000000	25.000000	136.000000
0.110000	48.170000	82.320000	796.000000	0.000000	132.000000	55.000000	49.000000	140.000000
0.120000	48.810000	83.670000	800.000000	0.000000	132.000000	55.000000	64.000000	135.000000
0.130000	49.680000	84.550000	808.000000	0.000000	134.000000	56.000000	87.000000	88.000000
0.140000	50.250000	85.130000	818.000000	0.000000	134.000000	56.000000	57.000000	58.000000
0.150000	50.630000	85.350000	814.000000	0.000000	135.000000	57.000000	38.000000	22.000000
0.160000	51.130000	85.350000	814.000000	0.000000	135.000000	57.000000	50.000000	0.000000
0.170000	51.630000	85.240000	787.000000	0.000000	135.000000	57.000000	50.000000	-11.000000
0.180000	51.990000	84.740000	784.000000	0.000000	138.000000	57.000000	36.000000	-50.000000
0.190000	52.240000	83.880000	750.000000	0.000000	138.000000	57.000000	25.000000	-86.000000
0.200000	52.130000	82.780000	730.000000	0.000000	138.000000	57.000000	-11.000000	-110.000000
0.210000	51.790000	81.610000	724.000000	0.000000	139.000000	56.000000	-34.000000	-117.000000
0.220000	51.300000	80.690000	730.000000	0.000000	140.000000	56.000000	-49.000000	-92.000000
0.230000	50.920000	79.940000	728.000000	0.000000	140.000000	56.000000	-38.000000	-75.000000
0.240000	50.550000	79.400000	727.000000	0.000000	141.000000	56.000000	-37.000000	-54.000000
0.250000	50.210000	79.110000	730.000000	0.000000	141.000000	56.000000	-34.000000	-29.000000
0.260000	49.900000	78.980000	750.000000	0.000000	141.000000	56.000000	-31.000000	-13.000000
0.270000	49.660000	79.040000	771.000000	0.000000	141.000000	56.000000	-24.000000	6.000000
0.280000	49.490000	79.230000	814.000000	0.000000	141.000000	56.000000	-17.000000	19.000000
0.290000	49.390000	79.500000	829.000000	0.000000	141.000000	56.000000	-10.000000	27.000000
0.300000	49.390000	79.900000	839.000000	0.000000	141.000000	56.000000	0.000000	40.000000
0.310000	49.450000	80.160000	852.000000	0.000000	141.000000	56.000000	6.000000	26.000000
0.320000	49.600000	80.320000	870.000000	0.000000	141.000000	56.000000	15.000000	16.000000
0.330000	49.800000	80.480000	893.000000	0.000000	141.000000	56.000000	20.000000	16.000000
0.340000	50.230000	80.610000	923.000000	0.000000	141.000000	56.000000	43.000000	13.000000
0.350000	50.770000	80.480000	935.000000	0.000000	141.000000	56.000000	54.000000	-13.000000
0.360000	51.390000	80.190000	956.000000	0.000000	141.000000	56.000000	62.000000	-29.000000
0.370000	52.030000	79.730000	956.000000	0.000000	141.000000	56.000000	64.000000	-46.000000
0.380000	52.500000	79.270000	947.000000	0.000000	140.000000	56.000000	47.000000	-46.000000
0.390000	52.850000	78.810000	943.000000	0.000000	142.000000	57.000000	35.000000	-46.000000
0.400000	53.100000	78.440000	943.000000	0.000000	142.000000	57.000000	25.000000	-37.000000
0.410000	53.260000	78.110000	936.000000	0.000000	142.000000	57.000000	16.000000	-33.000000
0.420000	53.370000	77.970000	903.000000	0.000000	142.000000	57.000000	11.000000	-14.000000
0.430000	53.370000	77.900000	863.000000	0.000000	142.000000	57.000000	0.000000	-7.000000
0.440000	53.370000	77.900000	811.000000	0.000000	142.000000	57.000000	0.000000	0.000000
0.450000	53.370000	77.900000	665.000000	0.000000	142.000000	57.000000	0.000000	0.000000
0.460000	53.370000	77.970000	208.000000	0.000000	140.000000	58.000000	0.000000	7.000000
0.470000	53.370000	77.970000	0.000000	1.000000	140.000000	58.000000	0.000000	0.000000
0.480000	53.150000	78.320000	0.000000	0.000000	140.000000	58.000000	-22.000000	35.000000
0.490000	53.150000	78.590000	0.000000	0.000000	140.000000	58.000000	0.000000	27.000000
0.500000	53.360000	78.900000	0.000000	0.000000	140.000000	58.000000	21.000000	31.000000
0.510000	53.650000	79.230000	0.000000	0.000000	140.000000	58.000000	29.000000	33.000000
0.520000	54.100000	79.560000	0.000000	0.000000	140.000000	58.000000	45.000000	33.000000
0.530000	54.600000	79.880000	0.000000	0.000000	140.000000	58.000000	50.000000	32.000000
0.540000	55.200000	80.130000	0.000000	0.000000	140.000000	58.000000	60.000000	25.000000
0.550000	55.840000	80.310000	0.000000	0.000000	140.000000	58.000000	64.000000	18.000000
0.560000	56.260000	80.360000	0.000000	0.000000	139.000000	57.000000	42.000000	5.000000
0.570000	56.470000	80.360000	0.000000	0.000000	139.000000	57.000000	21.000000	0.000000
0.580000	56.540000	80.290000	0.000000	0.000000	139.000000	57.000000	7.000000	-7.000000
0.590000	56.540000	80.210000	0.000000	0.000000	139.000000	57.000000	0.000000	-8.000000
0.600000	56.540000	80.130000	0.000000	0.000000	139.000000	57.000000	0.000000	-8.000000
0.610000	56.400000	80.030000	0.000000	0.000000	139.000000	57.000000	-14.000000	-10.000000
0.620000	56.400000	80.030000	358.000000	1.000000	139.000000	57.000000	0.000000	0.000000
0.630000	56.400000	80.030000	574.000000	0.000000	139.000000	57.000000	0.000000	0.000000
0.640000	55.970000	79.830000	700.000000	0.000000	139.000000	57.000000	-43.000000	-20.000000
0.650000	55.860000	79.930000	800.000000	0.000000	139.000000	57.000000	-11.000000	10.000000
0.660000	55.770000	79.930000	836.000000	0.000000	138.000000	58.000000	-9.000000	0.000000
0.670000	55.770000	79.930000	849.000000	0.000000	139.000000	58.000000	0.000000	0.000000
0.680000	55.720000	79.930000	851.000000	0.000000	139.000000	58.000000	-5.000000	0.000000
0.690000	55.720000	79.930000	846.000000	0.000000	139.000000	58.000000	0.000000	0.000000
0.700000	55.720000	79.860000	837.000000	0.000000	140.000000	58.000000	0.000000	-7.000000
0.710000	55.720000	79.860000	827.000000	0.000000	140.000000	58.000000	0.000000	0.000000
0.720000	55.780000	79.750000	824.000000	0.000000	140.000000	58.000000	6.000000	-11.000000
0.730000	55.780000	79.750000	828.000000	0.000000	140.000000	58.000000	0.000000	0.000000
0.740000	55.780000	79.750000	836.000000	0.000000	140.000000	58.000000	0.000000	0.000000
0.750000	55.780000	79.750000	837.000000	0.000000	140.000000	58.000000	0.000000	0.000000
0.760000	55.780000	79.810000	817.000000	0.000000	140.000000	58.000000	0.000000	6.000000
0.770000	55.780000	79.870000	774.000000	0.000000	140.000000	58.000000	0.000000	6.000000
0.780000	55.780000	79.950000	662.000000	0.000000	142.000000	57.000000	0.000000	8.000000
0.790000	55.780000	79.950000	413.000000	0.000000	142.000000	57.000000	0.000000	0.000000
0.800000	55.780000	79.950000	0.000000	1.000000	140.000000	58.000000	0.000000	0.000000
0.810000	55.780000	80.200000	0.000000	0.000000	140.000000	58.000000	0.000000	25.000000
0.820000	55.780000	80.350000	0.000000	0.000000	140.000000	58.000000	0.000000	15.000000
0.830000	55.780000	80.400000	0.000000	0.000000	140.000000	58.000000	0.000000	5.000000
0.840000	55.880000	80.450000	0.000000	0.000000	140.000000	58.000000	10.000000	5.000000
0.850000	56.030000	80.500000	0.000000	0.000000	140.000000	58.000000	15.000000	5.000000
0.860000	56.290000	80.630000	0.000000	0.000000	140.000000	58.000000	26.000000	13.000000
0.870000	56.500000	80.810000	0.000000	0.000000	142.000000	58.000000	21.000000	18.000000
0.880000	56.680000	81.070000	0.000000	0.000000	142.000000	58.000000	18.000000	26.000000
0.890000	56.810000	81.430000	0.000000	0.000000	142.000000	58.000000	13.000000	36.000000
0.900000	56.920000	81.850000	0.000000	0.000000	142.000000	58.000000	11.000000	42.000000
0.910000	57.020000	82.300000	0.000000	0.000000	142.000000	58.000000	10.000000	45.000000
0.920000	57.100000	82.730000	0.000000	0.000000	142.000000	58.000000	8.000000	43.000000
0.930000	57.180000	83.140000	0.000000	0.000000	142.000000	58.000000	8.000000	41.000000
0.940000	57.260000	83.560000	0.000000	0.000000	142.000000	58.000000	8.000000	42.000000
0.950000	57.340000	83.980000	0.000000	0.000000	142.000000	58.000000	8.000000	42.000000
0.960000	57.450000	84.470000	0.000000	0.000000	142.000000	58.000000	11.000000	49.000000
0.970000	57.570000	85.010000	0.000000	0.000000	143.000000	57.000000	12.000000	54.000000
0.980000	57.720000	85.490000	0.000000	0.000000	143.000000	57.000000	15.000000	48.000000
0.990000	57.870000	85.910000	0.000000	0.000000	144.000000	58.000000	15.000000	42.000000
1.000000	57.870000	85.910000	254.000000	1.000000	144.000000	58.000000	0.000000	0.000000
1.010000	58.010000	86.500000	389.000000	0.000000	144.000000	58.000000	14.000000	59.000000
1.020000	57.850000	86.730000	541.000000	0.000000	146.000000	57.000000	-16.000000	23.000000
1.030000	57.800000	86.800000	611.000000	0.000000	146.000000	57.000000	-5.000000	7.000000
1.040000	57.800000	86.800000	630.000000	0.000000	146.000000	57.000000	0.000000	0.000000
1.050000	57.750000	86.580000	725.000000	0.000000	146.000000	57.000000	-5.000000	-22.000000
1.060000	57.670000	85.960000	748.000000	0.000000	146.000000	57.000000	-8.000000	-62.000000
1.070000	57.530000	85.060000	773.000000	0.000000	147.000000	56.000000	-14.000000	-90.000000
1.080000	57.460000	83.610000	751.000000	0.000000	147.000000	56.000000	-7.000000	-145.000000
1.090000	57.390000	82.140000	763.000000	0.000000	147.000000	56.000000	-7.000000	-147.000000
1.100000	57.530000	81.060000	749.000000	0.000000	147.000000	56.000000	14.000000	-108.000000
1.110000	57.810000	80.250000	743.000000	0.000000	147.000000	56.000000	28.000000	-81.000000
1.120000	58.180000	79.830000	740.000000	0.000000	145.000000	56.000000	37.000000	-42.000000
1.130000	58.560000	79.630000	749.000000	0.000000	144.000000	57.000000	38.000000	-20.000000
1.140000	58.880000	79.580000	760.000000	0.000000	144.000000	57.000000	32.000000	-5.000000
1.150000	59.170000	79.810000	765.000000	0.000000	144.000000	57.000000	29.000000	23.000000
1.160000	59.560000	80.260000	785.000000	0.000000	144.000000	57.000000	39.000000	45.000000
1.170000	59.950000	80.870000	797.000000	0.000000	144.000000	57.000000	39.000000	61.000000
1.180000	60.290000	81.540000	800.000000	0.000000	144.000000	57.000000	34.000000	67.000000
1.190000	60.590000	82.350000	811.000000	0.000000	144.000000	57.000000	30.000000	81.000000
1.200000	60.960000	83.260000	803.000000	0.000000	144.000000	57.000000	37.000000	91.000000
1.210000	60.960000	84.220000	814.000000	0.000000	144.000000	57.000000	0.000000	96.000000
1.220000	60.760000	84.830000	828.000000	0.000000	144.000000	57.000000	-20.000000	61.000000
1.230000	60.690000	85.210000	839.000000	0.000000	144.000000	57.000000	-7.000000	38.000000
1.240000	60.630000	85.320000	831.000000	0.000000	144.000000	57.000000	-6.000000	11.000000
1.250000	60.630000	85.320000	828.000000	0.000000	146.000000	57.000000	0.000000	0.000000
1.260000	60.630000	85.130000	819.000000	0.000000	146.000000	57.000000	0.000000	-19.000000
1.270000	60.630000	84.610000	819.000000	0.000000	146.000000	57.000000	0.000000	-52.000000
1.280000	60.700000	83.750000	812.000000	0.000000	146.000000	57.000000	7.000000	-86.000000
1.290000	60.700000	82.670000	790.000000	0.000000	146.000000	57.000000	0.000000	-108.000000
1.300000	60.590000	81.860000	784.000000	0.000000	146.000000	57.000000	-11.000000	-81.000000
1.310000	60.770000	81.320000	793.000000	0.000000	146.000000	57.000000	18.000000	-54.000000
1.320000	60.990000	80.960000	790.000000	0.000000	146.000000	57.000000	22.000000	-36.000000
1.330000	61.190000	80.710000	791.000000	0.000000	146.000000	57.000000	20.000000	-25.000000
1.340000	61.360000	80.610000	793.000000	0.000000	146.000000	57.000000	17.000000	-10.000000
1.350000	61.560000	80.610000	788.000000	0.000000	146.000000	57.000000	20.000000	0.000000
1.360000	61.710000	80.680000	791.000000	0.000000	146.000000	57.000000	15.000000	7.000000
1.370000	61.830000	80.870000	799.000000	0.000000	146.000000	57.000000	12.000000	19.000000
1.380000	61.970000	81.130000	802.000000	0.000000	146.000000	57.000000	14.000000	26.000000
1.390000	62.110000	81.460000	808.000000	0.000000	146.000000	57.000000	14.000000	33.000000
1.400000	62.250000	81.820000	808.000000	0.000000	146.000000	57.000000	14.000000	36.000000
1.410000	62.310000	82.210000	817.000000	0.000000	144.000000	57.000000	6.000000	39.000000
1.420000	62.370000	82.480000	830.000000	0.000000	144.000000	57.000000	6.000000	27.000000
1.430000	62.370000	82.700000	819.000000	0.000000	144.000000	57.000000	0.000000	22.000000
1.440000	62.420000	82.820000	829.000000	0.000000	144.000000	57.000000	5.000000	12.000000
1.450000	62.420000	82.820000	821.000000	0.000000	144.000000	57.000000	0.000000	0.000000
1.460000	62.420000	82.820000	790.000000	0.000000	144.000000	57.000000	0.000000	0.000000
1.470000	62.420000	82.820000	793.000000	0.000000	144.000000	57.000000	0.000000	0.000000
1.480000	62.420000	82.730000	790.000000	0.000000	144.000000	57.000000	0.000000	-9.000000
1.490000	62.480000	82.530000	791.000000	0.000000	144.000000	57.000000	6.000000	-20.000000
1.500000	62.560000	82.260000	787.000000	0.000000	144.000000	57.000000	8.000000	-27.000000
1.510000	62.680000	82.080000	790.000000	0.000000	144.000000	57.000000	12.000000	-18.000000
1.520000	62.870000	81.900000	793.000000	0.000000	143.000000	57.000000	19.000000	-18.000000
1.530000	63.070000	81.780000	794.000000	0.000000	143.000000	57.000000	20.000000	-12.000000
1.540000	63.310000	81.710000	787.000000	0.000000	144.000000	58.000000	24.000000	-7.000000
1.550000	63.590000	81.710000	787.000000	0.000000	144.000000	58.000000	28.000000	0.000000
1.560000	63.900000	81.710000	782.000000	0.000000	144.000000	58.000000	31.000000	0.000000
1.570000	64.230000	81.850000	785.000000	0.000000	144.000000	58.000000	33.000000	14.000000
1.580000	64.480000	81.950000	785.000000	0.000000	144.000000	58.000000	25.000000	10.000000
1.590000	64.680000	82.150000	793.000000	0.000000	144.000000	58.000000	20.000000	20.000000
1.600000	64.900000	82.430000	787.000000	0.000000	144.000000	58.000000	22.000000	28.000000
1.610000	65.030000	82.710000	800.000000	0.000000	144.000000	58.000000	13.000000	28.000000
1.620000	65.100000	82.920000	808.000000	0.000000	144.000000	58.000000	7.000000	21.000000
1.630000	65.170000	83.140000	821.000000	0.000000	144.000000	58.000000	7.000000	22.000000
1.640000	65.230000	83.390000	817.000000	0.000000	144.000000	58.000000	6.000000	25.000000
1.650000	65.230000	83.660000	821.000000	0.000000	144.000000	58.000000	0.000000	27.000000
1.660000	65.350000	83.880000	817.000000	0.000000	144.000000	58.000000	12.000000	22.000000
1.670000	65.440000	84.030000	818.000000	0.000000	144.000000	58.000000	9.000000	15.000000
1.680000	65.530000	84.140000	815.000000	0.000000	144.000000	58.000000	9.000000	11.000000
1.690000	65.600000	84.140000	808.000000	0.000000	144.000000	58.000000	7.000000	0.000000
1.700000	65.690000	84.140000	797.000000	0.000000	144.000000	58.000000	9.000000	0.000000
1.710000	65.780000	84.030000	794.000000	0.000000	144.000000	58.000000	9.000000	-11.000000
1.720000	65.900000	83.910000	794.000000	0.000000	144.000000	58.000000	12.000000	-12.000000
1.730000	66.040000	83.760000	796.000000	0.000000	144.000000	58.000000	14.000000	-15.000000
1.740000	66.210000	83.600000	791.000000	0.000000	144.000000	58.000000	17.000000	-16.000000
1.750000	66.440000	83.450000	791.000000	0.000000	144.000000	58.000000	23.000000	-15.000000
1.760000	66.730000	83.340000	788.000000	0.000000	144.000000	58.000000	29.000000	-11.000000
1.770000	67.010000	83.270000	787.000000	0.000000	144.000000	58.000000	28.000000	-7.000000
1.780000	67.280000	83.270000	788.000000	0.000000	144.000000	58.000000	27.000000	0.000000
1.790000	67.500000	83.270000	788.000000	0.000000	144.000000	58.000000	22.000000	0.000000
1.800000	67.670000	83.270000	797.000000	0.000000	144.000000	58.000000	17.000000	0.000000
1.810000	67.670000	83.340000	811.000000	0.000000	144.000000	58.000000	0.000000	7.000000
1.820000	67.760000	83.400000	827.000000	0.000000	144.000000	58.000000	9.000000	6.000000
1.830000	67.810000	83.470000	825.000000	0.000000	144.000000	58.000000	5.000000	7.000000
1.840000	67.810000	83.530000	836.000000	0.000000	144.000000	58.000000	0.000000	6.000000
1.850000	67.870000	83.590000	852.000000	0.000000	144.000000	58.000000	6.000000	6.000000
1.860000	67.870000	83.590000	857.000000	0.000000	144.000000	58.000000	0.000000	0.000000
1.870000	67.870000	83.590000	857.000000	0.000000	144.000000	58.000000	0.000000	0.000000
1.880000	67.870000	83.590000	843.000000	0.000000	144.000000	58.000000	0.000000	0.000000
1.890000	67.870000	83.590000	830.000000	0.000000	144.000000	58.000000	0.000000	0.000000
1.900000	67.920000	83.590000	829.000000	0.000000	144.000000	58.000000	5.000000	0.000000
1.910000	67.920000	83.470000	827.000000	0.000000	144.000000	58.000000	0.000000	-12.000000
1.920000	68.180000	83.370000	829.000000	0.000000	146.000000	58.000000	26.000000	-10.000000
1.930000	68.510000	83.250000	829.000000	0.000000	145.000000	59.000000	33.000000	-12.000000
1.940000	68.820000	83.140000	817.000000	0.000000	145.000000	59.000000	31.000000	-11.000000
1.950000	69.060000	83.090000	812.000000	0.000000	145.000000	59.000000	24.000000	-5.000000
1.960000	69.260000	83.090000	799.000000	0.000000	145.000000	59.000000	20.000000	0.000000
1.970000	69.550000	83.090000	787.000000	0.000000	145.000000	59.000000	29.000000	0.000000
1.980000	69.720000	83.170000	797.000000	0.000000	145.000000	59.000000	17.000000	8.000000
1.990000	69.810000	83.250000	791.000000	0.000000	145.000000	59.000000	9.000000	8.000000
2.000000	69.870000	83.450000	803.000000	0.000000	145.000000	59.000000	6.000000	20.000000
2.010000	69.920000	83.760000	811.000000	0.000000	145.000000	59.000000	5.000000	31.000000
2.020000	69.970000	84.140000	815.000000	0.000000	145.000000	59.000000	5.000000	38.000000
2.030000	69.970000	84.620000	812.000000	0.000000	146.000000	60.000000	0.000000	48.000000
2.040000	69.970000	85.270000	820.000000	0.000000	146.000000	60.000000	0.000000	65.000000
2.050000	69.970000	86.030000	830.000000	0.000000	146.000000	60.000000	0.000000	76.000000
2.060000	69.970000	86.570000	824.000000	0.000000	146.000000	60.000000	0.000000	54.000000
2.070000	70.030000	87.100000	828.000000	0.000000	146.000000	60.000000	6.000000	53.000000
2.080000	70.160000	87.480000	827.000000	0.000000	146.000000	60.000000	13.000000	38.000000
2.090000	70.330000	87.770000	827.000000	0.000000	146.000000	60.000000	17.000000	29.000000
2.100000	70.700000	88.020000	831.000000	0.000000	146.000000	60.000000	37.000000	25.000000
2.110000	71.180000	88.150000	834.000000	0.000000	146.000000	60.000000	48.000000	13.000000
2.120000	71.710000	88.200000	845.000000	0.000000	146.000000	60.000000	53.000000	5.000000
2.130000	72.190000	88.110000	848.000000	0.000000	146.000000	60.000000	48.000000	-9.000000
2.140000	72.630000	87.880000	851.000000	0.000000	146.000000	60.000000	44.000000	-23.000000
2.150000	73.040000	87.550000	849.000000	0.000000	146.000000	60.000000	41.000000	-33.000000
2.160000	73.350000	87.120000	851.000000	0.000000	146.000000	60.000000	31.000000	-43.000000
2.170000	73.590000	86.640000	849.000000	0.000000	146.000000	60.000000	24.000000	-48.000000
2.180000	73.670000	86.210000	851.000000	0.000000	146.000000	60.000000	8.000000	-43.000000
2.190000	73.670000	85.820000	846.000000	0.000000	146.000000	60.000000	0.000000	-39.000000
2.200000	73.540000	85.460000	848.000000	0.000000	146.000000	60.000000	-13.000000	-36.000000
2.210000	73.330000	85.080000	842.000000	0.000000	146.000000	60.000000	-21.000000	-38.000000
2.220000	73.180000	84.860000	842.000000	0.000000	146.000000	60.000000	-15.000000	-22.000000
