t	x	y	pressure	penup	azimuth	inclination	v_x	v_y
0.000000	90.280000	83.260000	311.000000	1.000000	173.000000	60.000000	0.000000	0.000000
0.010000	90.660000	83.070000	463.000000	0.000000	173.000000	59.000000	38.000000	-19.000000
0.020000	90.710000	82.930000	569.000000	0.000000	173.000000	59.000000	5.000000	-14.000000
0.030000	90.810000	82.720000	663.000000	0.000000	173.000000	59.000000	10.000000	-21.000000
0.040000	91.020000	82.430000	724.000000	0.000000	172.000000	59.000000	21.000000	-29.000000
0.050000	91.300000	82.130000	763.000000	0.000000	172.000000	59.000000	28.000000	-30.000000
0.060000	91.580000	81.800000	794.000000	0.000000	170.000000	60.000000	28.000000	-33.000000
0.070000	91.850000	81.510000	790.000000	0.000000	170.000000	60.000000	27.000000	-29.000000
0.080000	92.120000	81.230000	794.000000	0.000000	168.000000	59.000000	27.000000	-28.000000
0.090000	92.390000	81.030000	745.000000	0.000000	168.000000	60.000000	27.000000	-20.000000
0.100000	92.660000	80.890000	656.000000	0.000000	168.000000	60.000000	27.000000	-14.000000
0.110000	92.930000	80.780000	361.000000	0.000000	168.000000	60.000000	27.000000	-11.000000
0.120000	92.930000	80.780000	0.000000	1.000000	169.000000	61.000000	0.000000	0.000000
0.130000	93.270000	81.000000	0.000000	0.000000	169.000000	62.000000	34.000000	22.000000
0.140000	93.090000	81.310000	0.000000	0.000000	171.000000	62.000000	-18.000000	31.000000
0.150000	92.730000	81.590000	0.000000	0.000000	171.000000	62.000000	-36.000000	28.000000
0.160000	92.330000	81.850000	0.000000	0.000000	173.000000	62.000000	-40.000000	26.000000
0.170000	91.950000	82.040000	0.000000	0.000000	173.000000	62.000000	-38.000000	19.000000
0.180000	91.600000	82.140000	0.000000	0.000000	173.000000	61.000000	-35.000000	10.000000
0.190000	91.290000	82.140000	0.000000	0.000000	173.000000	61.000000	-31.000000	0.000000
0.200000	91.120000	82.140000	0.000000	0.000000	173.000000	61.000000	-17.000000	0.000000
0.210000	91.040000	82.140000	0.000000	0.000000	173.000000	61.000000	-8.000000	0.000000
0.220000	91.110000	82.050000	0.000000	0.000000	173.000000	61.000000	7.000000	-9.000000
0.230000	91.200000	81.930000	0.000000	0.000000	173.000000	60.000000	9.000000	-12.000000
0.240000	91.310000	81.820000	0.000000	0.000000	173.000000	60.000000	11.000000	-11.000000
0.250000	91.440000	81.700000	0.000000	0.000000	173.000000	60.000000	13.000000	-12.000000
0.260000	91.520000	81.610000	0.000000	0.000000	173.000000	60.000000	8.000000	-9.000000
0.270000	91.570000	81.510000	0.000000	0.000000	173.000000	60.000000	5.000000	-10.000000
0.280000	91.570000	81.510000	15.000000	1.000000	173.000000	60.000000	0.000000	0.000000
0.290000	91.570000	81.510000	117.000000	0.000000	173.000000	61.000000	0.000000	0.000000
0.300000	91.630000	81.220000	249.000000	0.000000	173.000000	61.000000	6.000000	-29.000000
0.310000	91.630000	81.130000	362.000000	0.000000	173.000000	61.000000	0.000000	-9.000000
0.320000	91.680000	81.080000	478.000000	0.000000	173.000000	61.000000	5.000000	-5.000000
0.330000	91.680000	81.080000	577.000000	0.000000	173.000000	61.000000	0.000000	0.000000
0.340000	91.730000	81.080000	662.000000	0.000000	173.000000	61.000000	5.000000	0.000000
0.350000	91.730000	81.080000	727.000000	0.000000	173.000000	62.000000	0.000000	0.000000
0.360000	91.850000	81.140000	782.000000	0.000000	171.000000	62.000000	12.000000	6.000000
0.370000	91.960000	81.300000	823.000000	0.000000	171.000000	62.000000	11.000000	16.000000
0.380000	92.130000	81.440000	819.000000	0.000000	169.000000	62.000000	17.000000	14.000000
0.390000	92.360000	81.700000	830.000000	0.000000	169.000000	62.000000	23.000000	26.000000
0.400000	92.700000	82.060000	843.000000	0.000000	169.000000	61.000000	34.000000	36.000000
0.410000	93.020000	82.420000	845.000000	0.000000	168.000000	60.000000	32.000000	36.000000
0.420000	93.310000	82.880000	851.000000	0.000000	168.000000	60.000000	29.000000	46.000000
0.430000	93.570000	83.420000	852.000000	0.000000	169.000000	61.000000	26.000000	54.000000
0.440000	93.690000	83.960000	855.000000	0.000000	169.000000	61.000000	12.000000	54.000000
0.450000	93.690000	84.460000	860.000000	0.000000	170.000000	60.000000	0.000000	50.000000
0.460000	93.610000	84.920000	855.000000	0.000000	170.000000	60.000000	-8.000000	46.000000
0.470000	93.400000	85.240000	855.000000	0.000000	170.000000	60.000000	-21.000000	32.000000
0.480000	93.130000	85.460000	854.000000	0.000000	170.000000	60.000000	-27.000000	22.000000
0.490000	92.780000	85.520000	855.000000	0.000000	170.000000	60.000000	-35.000000	6.000000
0.500000	92.430000	85.520000	860.000000	0.000000	170.000000	60.000000	-35.000000	0.000000
0.510000	91.990000	85.400000	861.000000	0.000000	170.000000	59.000000	-44.000000	-12.000000
0.520000	91.490000	85.100000	853.000000	0.000000	170.000000	59.000000	-50.000000	-30.000000
0.530000	90.940000	84.690000	858.000000	0.000000	170.000000	59.000000	-55.000000	-41.000000
0.540000	90.360000	84.160000	854.000000	0.000000	168.000000	58.000000	-58.000000	-53.000000
0.550000	89.760000	83.510000	853.000000	0.000000	168.000000	58.000000	-60.000000	-65.000000
0.560000	89.260000	82.770000	863.000000	0.000000	168.000000	58.000000	-50.000000	-74.000000
0.570000	89.020000	81.900000	866.000000	0.000000	167.000000	58.000000	-24.000000	-87.000000
0.580000	88.950000	80.980000	866.000000	0.000000	166.000000	59.000000	-7.000000	-92.000000
0.590000	89.070000	80.010000	866.000000	0.000000	166.000000	59.000000	12.000000	-97.000000
0.600000	89.330000	79.060000	869.000000	0.000000	165.000000	59.000000	26.000000	-95.000000
0.610000	89.680000	78.380000	858.000000	0.000000	164.000000	60.000000	35.000000	-68.000000
0.620000	90.020000	77.880000	873.000000	0.000000	162.000000	61.000000	34.000000	-50.000000
0.630000	90.400000	77.530000	896.000000	0.000000	162.000000	61.000000	38.000000	-35.000000
0.640000	90.800000	77.290000	917.000000	0.000000	159.000000	61.000000	40.000000	-24.000000
0.650000	91.190000	77.130000	938.000000	0.000000	158.000000	62.000000	39.000000	-16.000000
0.660000	91.660000	77.080000	967.000000	0.000000	158.000000	62.000000	47.000000	-5.000000
0.670000	92.120000	77.230000	992.000000	0.000000	155.000000	63.000000	46.000000	15.000000
0.680000	92.590000	77.520000	983.000000	0.000000	155.000000	63.000000	47.000000	29.000000
0.690000	93.060000	78.070000	968.000000	0.000000	157.000000	63.000000	47.000000	55.000000
0.700000	93.400000	78.610000	935.000000	0.000000	157.000000	63.000000	34.000000	54.000000
0.710000	93.600000	79.150000	866.000000	0.000000	159.000000	64.000000	20.000000	54.000000
0.720000	93.700000	79.250000	673.000000	0.000000	162.000000	63.000000	10.000000	10.000000
0.730000	93.870000	79.320000	207.000000	0.000000	164.000000	63.000000	17.000000	7.000000
0.740000	93.870000	79.320000	0.000000	1.000000	166.000000	62.000000	0.000000	0.000000
0.750000	94.030000	78.980000	0.000000	0.000000	169.000000	62.000000	16.000000	-34.000000
0.760000	93.890000	78.850000	0.000000	0.000000	169.000000	62.000000	-14.000000	-13.000000
0.770000	93.680000	78.780000	0.000000	0.000000	171.000000	62.000000	-21.000000	-7.000000
0.780000	93.450000	78.780000	0.000000	0.000000	173.000000	61.000000	-23.000000	0.000000
0.790000	93.210000	78.780000	0.000000	0.000000	173.000000	61.000000	-24.000000	0.000000
0.800000	93.070000	78.830000	0.000000	0.000000	173.000000	61.000000	-14.000000	5.000000
0.810000	92.970000	78.970000	0.000000	0.000000	173.000000	61.000000	-10.000000	14.000000
0.820000	92.970000	79.110000	0.000000	0.000000	173.000000	60.000000	0.000000	14.000000
0.830000	92.970000	79.300000	0.000000	0.000000	173.000000	60.000000	0.000000	19.000000
0.840000	93.130000	79.530000	0.000000	0.000000	171.000000	60.000000	16.000000	23.000000
0.850000	93.350000	79.830000	0.000000	0.000000	171.000000	60.000000	22.000000	30.000000
0.860000	93.610000	80.100000	0.000000	0.000000	169.000000	61.000000	26.000000	27.000000
0.870000	93.880000	80.300000	0.000000	0.000000	169.000000	62.000000	27.000000	20.000000
0.880000	94.150000	80.420000	0.000000	0.000000	168.000000	63.000000	27.000000	12.000000
0.890000	94.450000	80.480000	0.000000	0.000000	166.000000	62.000000	30.000000	6.000000
0.900000	94.660000	80.480000	0.000000	0.000000	166.000000	63.000000	21.000000	0.000000
0.910000	94.800000	80.480000	0.000000	0.000000	165.000000	64.000000	14.000000	0.000000
0.920000	94.870000	80.400000	0.000000	0.000000	165.000000	65.000000	7.000000	-8.000000
0.930000	94.960000	80.400000	0.000000	0.000000	165.000000	65.000000	9.000000	0.000000
0.940000	95.110000	80.340000	0.000000	0.000000	165.000000	65.000000	15.000000	-6.000000
0.950000	95.260000	80.340000	0.000000	0.000000	165.000000	65.000000	15.000000	0.000000
0.960000	95.420000	80.290000	0.000000	0.000000	165.000000	65.000000	16.000000	-5.000000
0.970000	95.530000	80.290000	0.000000	0.000000	165.000000	65.000000	11.000000	0.000000
0.980000	95.610000	80.230000	0.000000	0.000000	165.000000	65.000000	8.000000	-6.000000
0.990000	95.710000	80.230000	0.000000	0.000000	165.000000	65.000000	10.000000	0.000000
1.000000	95.830000	80.230000	0.000000	0.000000	165.000000	65.000000	12.000000	0.000000
1.010000	95.970000	80.230000	0.000000	0.000000	167.000000	65.000000	14.000000	0.000000
1.020000	96.160000	80.230000	0.000000	0.000000	166.000000	66.000000	19.000000	0.000000
1.030000	96.390000	80.230000	0.000000	0.000000	166.000000	66.000000	23.000000	0.000000
1.040000	96.590000	80.150000	0.000000	0.000000	166.000000	66.000000	20.000000	-8.000000
1.050000	96.760000	80.010000	0.000000	0.000000	166.000000	66.000000	17.000000	-14.000000
1.060000	96.760000	79.830000	0.000000	0.000000	168.000000	67.000000	0.000000	-18.000000
1.070000	96.760000	79.590000	0.000000	0.000000	168.000000	67.000000	0.000000	-24.000000
1.080000	96.760000	79.330000	0.000000	0.000000	168.000000	67.000000	0.000000	-26.000000
1.090000	96.650000	79.030000	0.000000	0.000000	171.000000	66.000000	-11.000000	-30.000000
1.100000	96.550000	78.680000	0.000000	0.000000	171.000000	65.000000	-10.000000	-35.000000
1.110000	96.440000	78.330000	0.000000	0.000000	174.000000	64.000000	-11.000000	-35.000000
1.120000	96.350000	77.870000	0.000000	0.000000	174.000000	62.000000	-9.000000	-46.000000
1.130000	96.200000	77.350000	0.000000	0.000000	175.000000	61.000000	-15.000000	-52.000000
1.140000	96.020000	76.810000	0.000000	0.000000	175.000000	60.000000	-18.000000	-54.000000
1.150000	95.840000	76.330000	0.000000	0.000000	175.000000	59.000000	-18.000000	-48.000000
1.160000	95.690000	76.020000	0.000000	0.000000	175.000000	59.000000	-15.000000	-31.000000
1.170000	95.690000	75.810000	0.000000	0.000000	175.000000	59.000000	0.000000	-21.000000
1.180000	95.810000	75.760000	0.000000	0.000000	175.000000	59.000000	12.000000	-5.000000
1.190000	95.810000	75.760000	0.000000	0.000000	175.000000	59.000000	0.000000	0.000000
1.200000	95.880000	75.760000	0.000000	0.000000	175.000000	60.000000	7.000000	0.000000
1.210000	95.880000	75.760000	0.000000	0.000000	173.000000	60.000000	0.000000	0.000000
1.220000	95.880000	75.760000	0.000000	0.000000	173.000000	60.000000	0.000000	0.000000
1.230000	95.880000	75.690000	0.000000	0.000000	173.000000	60.000000	0.000000	-7.000000
1.240000	95.880000	75.610000	0.000000	0.000000	173.000000	60.000000	0.000000	-8.000000
1.250000	95.930000	75.500000	0.000000	0.000000	173.000000	61.000000	5.000000	-11.000000
1.260000	95.930000	75.370000	0.000000	0.000000	173.000000	61.000000	0.000000	-13.000000
1.270000	95.930000	75.240000	0.000000	0.000000	173.000000	61.000000	0.000000	-13.000000
1.280000	95.930000	75.080000	0.000000	0.000000	173.000000	61.000000	0.000000	-16.000000
1.290000	96.000000	74.860000	0.000000	0.000000	173.000000	62.000000	7.000000	-22.000000
1.300000	96.060000	74.550000	0.000000	0.000000	173.000000	62.000000	6.000000	-31.000000
1.310000	96.060000	74.550000	394.000000	1.000000	173.000000	62.000000	0.000000	0.000000
1.320000	96.310000	74.000000	527.000000	0.000000	170.000000	63.000000	25.000000	-55.000000
1.330000	96.310000	73.950000	631.000000	0.000000	170.000000	63.000000	0.000000	-5.000000
1.340000	96.310000	73.950000	759.000000	0.000000	168.000000	63.000000	0.000000	0.000000
1.350000	96.370000	73.950000	860.000000	0.000000	168.000000	63.000000	6.000000	0.000000
1.360000	96.370000	73.950000	912.000000	0.000000	166.000000	63.000000	0.000000	0.000000
1.370000	96.460000	73.950000	958.000000	0.000000	166.000000	63.000000	9.000000	0.000000
1.380000	96.600000	74.040000	982.000000	0.000000	163.000000	64.000000	14.000000	9.000000
1.390000	96.900000	74.200000	1023.000000	0.000000	163.000000	64.000000	30.000000	16.000000
1.400000	97.270000	74.510000	1023.000000	0.000000	163.000000	64.000000	37.000000	31.000000
1.410000	97.750000	74.920000	1023.000000	0.000000	161.000000	64.000000	48.000000	41.000000
1.420000	98.320000	75.500000	1023.000000	0.000000	161.000000	64.000000	57.000000	58.000000
1.430000	98.950000	76.210000	1023.000000	0.000000	161.000000	64.000000	63.000000	71.000000
1.440000	99.600000	77.020000	1023.000000	0.000000	161.000000	64.000000	65.000000	81.000000
1.450000	100.280000	78.040000	1015.000000	0.000000	161.000000	64.000000	68.000000	102.000000
1.460000	100.750000	79.170000	996.000000	0.000000	161.000000	64.000000	47.000000	113.000000
1.470000	101.090000	80.370000	992.000000	0.000000	162.000000	63.000000	34.000000	120.000000
1.480000	101.300000	81.590000	934.000000	0.000000	160.000000	63.000000	21.000000	122.000000
1.490000	101.360000	82.780000	917.000000	0.000000	160.000000	63.000000	6.000000	119.000000
1.500000	101.360000	83.900000	899.000000	0.000000	160.000000	63.000000	0.000000	112.000000
1.510000	101.290000	84.700000	894.000000	0.000000	161.000000	62.000000	-7.000000	80.000000
1.520000	101.230000	85.290000	893.000000	0.000000	161.000000	62.000000	-6.000000	59.000000
1.530000	101.160000	85.480000	900.000000	0.000000	161.000000	62.000000	-7.000000	19.000000
1.540000	101.160000	85.480000	888.000000	0.000000	162.000000	61.000000	0.000000	0.000000
1.550000	101.160000	85.270000	891.000000	0.000000	162.000000	61.000000	0.000000	-21.000000
1.560000	101.030000	84.620000	891.000000	0.000000	162.000000	61.000000	-13.000000	-65.000000
1.570000	100.880000	83.650000	897.000000	0.000000	162.000000	60.000000	-15.000000	-97.000000
1.580000	100.720000	82.460000	902.000000	0.000000	162.000000	60.000000	-16.000000	-119.000000
1.590000	100.620000	81.070000	896.000000	0.000000	162.000000	61.000000	-10.000000	-139.000000
1.600000	100.530000	79.700000	890.000000	0.000000	162.000000	61.000000	-9.000000	-137.000000
1.610000	100.420000	78.380000	887.000000	0.000000	160.000000	60.000000	-11.000000	-132.000000
1.620000	100.570000	77.600000	902.000000	0.000000	159.000000	61.000000	15.000000	-78.000000
1.630000	100.890000	77.150000	908.000000	0.000000	159.000000	61.000000	32.000000	-45.000000
1.640000	101.330000	76.920000	939.000000	0.000000	158.000000	62.000000	44.000000	-23.000000
1.650000	101.770000	76.920000	940.000000	0.000000	156.000000	62.000000	44.000000	0.000000
1.660000	102.310000	76.990000	944.000000	0.000000	155.000000	63.000000	54.000000	7.000000
1.670000	102.920000	77.360000	947.000000	0.000000	157.000000	63.000000	61.000000	37.000000
1.680000	103.410000	77.990000	938.000000	0.000000	157.000000	63.000000	49.000000	63.000000
1.690000	103.770000	78.790000	942.000000	0.000000	157.000000	63.000000	36.000000	80.000000
1.700000	104.050000	79.880000	903.000000	0.000000	159.000000	64.000000	28.000000	109.000000
1.710000	104.180000	80.870000	903.000000	0.000000	159.000000	64.000000	13.000000	99.000000
1.720000	104.180000	81.800000	902.000000	0.000000	162.000000	63.000000	0.000000	93.000000
1.730000	104.100000	81.950000	870.000000	0.000000	164.000000	63.000000	-8.000000	15.000000
1.740000	104.100000	81.700000	866.000000	0.000000	164.000000	63.000000	0.000000	-25.000000
1.750000	104.050000	81.190000	869.000000	0.000000	164.000000	63.000000	-5.000000	-51.000000
1.760000	103.980000	80.360000	867.000000	0.000000	165.000000	62.000000	-7.000000	-83.000000
1.770000	103.980000	79.530000	860.000000	0.000000	165.000000	62.000000	0.000000	-83.000000
1.780000	103.880000	78.730000	860.000000	0.000000	165.000000	62.000000	-10.000000	-80.000000
1.790000	103.750000	78.270000	866.000000	0.000000	164.000000	63.000000	-13.000000	-46.000000
1.800000	103.910000	78.010000	876.000000	0.000000	164.000000	63.000000	16.000000	-26.000000
1.810000	104.080000	77.900000	888.000000	0.000000	164.000000	63.000000	17.000000	-11.000000
1.820000	104.250000	77.970000	905.000000	0.000000	164.000000	63.000000	17.000000	7.000000
1.830000	104.620000	78.150000	890.000000	0.000000	162.000000	63.000000	37.000000	18.000000
1.840000	105.070000	78.570000	863.000000	0.000000	164.000000	63.000000	45.000000	42.000000
1.850000	105.570000	79.130000	861.000000	0.000000	164.000000	63.000000	50.000000	56.000000
1.860000	105.720000	79.790000	842.000000	0.000000	164.000000	63.000000	15.000000	66.000000
1.870000	105.870000	80.120000	837.000000	0.000000	166.000000	63.000000	15.000000	33.000000
1.880000	105.930000	80.120000	831.000000	0.000000	166.000000	63.000000	6.000000	0.000000
1.890000	105.930000	79.910000	839.000000	0.000000	168.000000	63.000000	0.000000	-21.000000
1.900000	106.070000	79.460000	852.000000	0.000000	170.000000	64.000000	14.000000	-45.000000
1.910000	106.200000	78.920000	860.000000	0.000000	169.000000	65.000000	13.000000	-54.000000
1.920000	106.330000	78.330000	863.000000	0.000000	169.000000	65.000000	13.000000	-59.000000
1.930000	106.400000	77.800000	869.000000	0.000000	169.000000	65.000000	7.000000	-53.000000
1.940000	106.400000	77.460000	864.000000	0.000000	169.000000	65.000000	0.000000	-34.000000
1.950000	106.660000	77.260000	891.000000	0.000000	169.000000	65.000000	26.000000	-20.000000
1.960000	106.940000	77.180000	896.000000	0.000000	167.000000	64.000000	28.000000	-8.000000
1.970000	107.500000	77.320000	900.000000	0.000000	167.000000	64.000000	56.000000	14.000000
1.980000	108.230000	77.610000	908.000000	0.000000	167.000000	64.000000	73.000000	29.000000
1.990000	109.030000	78.050000	906.000000	0.000000	169.000000	65.000000	80.000000	44.000000
2.000000	109.880000	78.670000	899.000000	0.000000	169.000000	65.000000	85.000000	62.000000
2.010000	110.710000	79.420000	906.000000	0.000000	169.000000	65.000000	83.000000	75.000000
2.020000	111.520000	80.390000	887.000000	0.000000	169.000000	65.000000	81.000000	97.000000
2.030000	112.020000	81.360000	878.000000	0.000000	169.000000	65.000000	50.000000	97.000000
2.040000	112.300000	82.180000	860.000000	0.000000	169.000000	65.000000	28.000000	82.000000
2.050000	112.420000	82.890000	861.000000	0.000000	170.000000	64.000000	12.000000	71.000000
2.060000	112.270000	83.360000	854.000000	0.000000	170.000000	64.000000	-15.000000	47.000000
2.070000	111.990000	83.610000	830.000000	0.000000	170.000000	64.000000	-28.000000	25.000000
2.080000	111.620000	83.710000	791.000000	0.000000	170.000000	63.000000	-37.000000	10.000000
2.090000	111.090000	83.640000	779.000000	0.000000	170.000000	63.000000	-53.000000	-7.000000
2.100000	110.570000	83.430000	763.000000	0.000000	170.000000	63.000000	-52.000000	-21.000000
2.110000	110.100000	83.140000	731.000000	0.000000	171.000000	62.000000	-47.000000	-29.000000
2.120000	109.680000	82.780000	699.000000	0.000000	173.000000	62.000000	-42.000000	-36.000000
2.130000	109.420000	82.390000	673.000000	0.000000	173.000000	62.000000	-26.000000	-39.000000
2.140000	109.250000	81.920000	659.000000	0.000000	173.000000	62.000000	-17.000000	-47.000000
2.150000	109.160000	81.400000	650.000000	0.000000	174.000000	62.000000	-9.000000	-52.000000
2.160000	109.210000	80.880000	644.000000	0.000000	174.000000	63.000000	5.000000	-52.000000
2.170000	109.350000	80.360000	646.000000	0.000000	174.000000	63.000000	14.000000	-52.000000
2.180000	109.460000	79.930000	662.000000	0.000000	174.000000	63.000000	11.000000	-43.000000
2.190000	109.670000	79.570000	666.000000	0.000000	174.000000	64.000000	21.000000	-36.000000
2.200000	109.940000	79.210000	676.000000	0.000000	174.000000	64.000000	27.000000	-36.000000
