t	x	y	pressure	penup	azimuth	inclination	v_x	v_y
0.000000	60.890000	33.180000	61.000000	1.000000	96.000000	52.000000	0.000000	0.000000
0.010000	60.780000	33.500000	80.000000	0.000000	96.000000	52.000000	-11.000000	32.000000
0.020000	60.670000	33.660000	122.000000	0.000000	95.000000	52.000000	-11.000000	16.000000
0.030000	60.670000	33.660000	168.000000	0.000000	95.000000	52.000000	0.000000	0.000000
0.040000	60.570000	34.020000	217.000000	0.000000	95.000000	52.000000	-10.000000	36.000000
0.050000	60.570000	34.100000	249.000000	0.000000	95.000000	52.000000	0.000000	8.000000
0.060000	60.520000	34.100000	273.000000	0.000000	95.000000	52.000000	-5.000000	0.000000
0.070000	60.520000	34.170000	299.000000	0.000000	94.000000	52.000000	0.000000	7.000000
0.080000	60.520000	34.170000	332.000000	0.000000	94.000000	52.000000	0.000000	0.000000
0.090000	60.570000	34.170000	348.000000	0.000000	94.000000	52.000000	5.000000	0.000000
0.100000	60.570000	34.170000	368.000000	0.000000	94.000000	52.000000	0.000000	0.000000
0.110000	60.570000	34.170000	366.000000	0.000000	94.000000	52.000000	0.000000	0.000000
0.120000	60.570000	34.110000	384.000000	0.000000	94.000000	52.000000	0.000000	-6.000000
0.130000	60.650000	33.830000	402.000000	0.000000	94.000000	52.000000	8.000000	-28.000000
0.140000	60.730000	33.380000	420.000000	0.000000	94.000000	52.000000	8.000000	-45.000000
0.150000	60.830000	32.590000	449.000000	0.000000	94.000000	52.000000	10.000000	-79.000000
0.160000	60.950000	31.500000	460.000000	0.000000	95.000000	52.000000	12.000000	-109.000000
0.170000	61.130000	30.210000	472.000000	0.000000	95.000000	52.000000	18.000000	-129.000000
0.180000	61.370000	28.780000	485.000000	0.000000	95.000000	52.000000	24.000000	-143.000000
0.190000	61.650000	27.300000	489.000000	0.000000	95.000000	53.000000	28.000000	-148.000000
0.200000	61.980000	26.260000	510.000000	0.000000	94.000000	53.000000	33.000000	-104.000000
0.210000	62.350000	25.530000	512.000000	0.000000	94.000000	53.000000	37.000000	-73.000000
0.220000	62.770000	25.030000	516.000000	0.000000	93.000000	53.000000	42.000000	-50.000000
0.230000	63.140000	24.870000	527.000000	0.000000	91.000000	54.000000	37.000000	-16.000000
0.240000	63.450000	24.940000	542.000000	0.000000	90.000000	54.000000	31.000000	7.000000
0.250000	63.900000	25.370000	553.000000	0.000000	90.000000	54.000000	45.000000	43.000000
0.260000	64.390000	26.310000	556.000000	0.000000	90.000000	55.000000	49.000000	94.000000
0.270000	64.940000	27.590000	556.000000	0.000000	90.000000	55.000000	55.000000	128.000000
0.280000	65.360000	28.860000	561.000000	0.000000	90.000000	55.000000	42.000000	127.000000
0.290000	65.710000	30.200000	561.000000	0.000000	90.000000	55.000000	35.000000	134.000000
0.300000	65.940000	31.600000	557.000000	0.000000	91.000000	55.000000	23.000000	140.000000
0.310000	66.100000	33.150000	559.000000	0.000000	93.000000	55.000000	16.000000	155.000000
0.320000	66.210000	34.380000	564.000000	0.000000	94.000000	55.000000	11.000000	123.000000
0.330000	66.210000	35.400000	570.000000	0.000000	96.000000	55.000000	0.000000	102.000000
0.340000	66.060000	35.960000	567.000000	0.000000	97.000000	55.000000	-15.000000	56.000000
0.350000	65.870000	36.270000	589.000000	0.000000	97.000000	55.000000	-19.000000	31.000000
0.360000	65.710000	36.420000	588.000000	0.000000	97.000000	55.000000	-16.000000	15.000000
0.370000	65.580000	36.470000	589.000000	0.000000	99.000000	55.000000	-13.000000	5.000000
0.380000	65.500000	36.470000	583.000000	0.000000	99.000000	55.000000	-8.000000	0.000000
0.390000	65.500000	36.470000	569.000000	0.000000	99.000000	55.000000	0.000000	0.000000
0.400000	65.450000	36.470000	560.000000	0.000000	100.000000	55.000000	-5.000000	0.000000
0.410000	65.450000	36.350000	556.000000	0.000000	100.000000	54.000000	0.000000	-12.000000
0.420000	65.350000	35.810000	545.000000	0.000000	100.000000	54.000000	-10.000000	-54.000000
0.430000	65.250000	34.980000	546.000000	0.000000	100.000000	54.000000	-10.000000	-83.000000
0.440000	65.180000	33.850000	536.000000	0.000000	100.000000	54.000000	-7.000000	-113.000000
0.450000	65.180000	32.390000	546.000000	0.000000	98.000000	54.000000	0.000000	-146.000000
0.460000	65.180000	30.710000	561.000000	0.000000	98.000000	54.000000	0.000000	-168.000000
0.470000	65.180000	29.350000	564.000000	0.000000	99.000000	55.000000	0.000000	-136.000000
0.480000	65.320000	28.240000	570.000000	0.000000	97.000000	55.000000	14.000000	-111.000000
0.490000	65.560000	27.290000	563.000000	0.000000	97.000000	55.000000	24.000000	-95.000000
0.500000	65.900000	26.710000	563.000000	0.000000	97.000000	55.000000	34.000000	-58.000000
0.510000	66.330000	26.450000	569.000000	0.000000	96.000000	55.000000	43.000000	-26.000000
0.520000	66.820000	26.450000	578.000000	0.000000	94.000000	55.000000	49.000000	0.000000
0.530000	67.360000	26.750000	577.000000	0.000000	94.000000	56.000000	54.000000	30.000000
0.540000	68.000000	27.300000	580.000000	0.000000	93.000000	56.000000	64.000000	55.000000
0.550000	68.710000	28.000000	577.000000	0.000000	93.000000	56.000000	71.000000	70.000000
0.560000	69.320000	28.670000	577.000000	0.000000	94.000000	56.000000	61.000000	67.000000
0.570000	69.860000	29.310000	577.000000	0.000000	94.000000	56.000000	54.000000	64.000000
0.580000	70.360000	29.870000	577.000000	0.000000	96.000000	56.000000	50.000000	56.000000
0.590000	70.750000	30.430000	578.000000	0.000000	96.000000	56.000000	39.000000	56.000000
0.600000	70.990000	31.000000	578.000000	0.000000	97.000000	56.000000	24.000000	57.000000
0.610000	71.120000	31.590000	570.000000	0.000000	99.000000	56.000000	13.000000	59.000000
0.620000	71.200000	32.330000	561.000000	0.000000	99.000000	56.000000	8.000000	74.000000
0.630000	71.200000	33.180000	554.000000	0.000000	99.000000	56.000000	0.000000	85.000000
0.640000	71.250000	34.090000	546.000000	0.000000	99.000000	56.000000	5.000000	91.000000
0.650000	71.310000	35.010000	535.000000	0.000000	99.000000	56.000000	6.000000	92.000000
0.660000	71.360000	35.930000	541.000000	0.000000	99.000000	56.000000	5.000000	92.000000
0.670000	71.290000	36.450000	542.000000	0.000000	99.000000	56.000000	-7.000000	52.000000
0.680000	71.140000	36.740000	569.000000	0.000000	100.000000	56.000000	-15.000000	29.000000
0.690000	70.910000	36.890000	572.000000	0.000000	100.000000	56.000000	-23.000000	15.000000
0.700000	70.560000	36.890000	581.000000	0.000000	100.000000	56.000000	-35.000000	0.000000
0.710000	70.120000	36.820000	584.000000	0.000000	102.000000	55.000000	-44.000000	-7.000000
0.720000	69.540000	36.600000	595.000000	0.000000	102.000000	55.000000	-58.000000	-22.000000
0.730000	68.800000	36.270000	602.000000	0.000000	103.000000	55.000000	-74.000000	-33.000000
0.740000	67.960000	35.750000	614.000000	0.000000	103.000000	55.000000	-84.000000	-52.000000
0.750000	67.030000	35.100000	636.000000	0.000000	103.000000	54.000000	-93.000000	-65.000000
0.760000	66.540000	34.410000	637.000000	0.000000	103.000000	54.000000	-49.000000	-69.000000
0.770000	66.340000	33.840000	636.000000	0.000000	101.000000	54.000000	-20.000000	-57.000000
0.780000	66.520000	33.350000	643.000000	0.000000	101.000000	54.000000	18.000000	-49.000000
0.790000	66.760000	32.880000	647.000000	0.000000	100.000000	56.000000	24.000000	-47.000000
0.800000	67.300000	32.530000	662.000000	0.000000	100.000000	56.000000	54.000000	-35.000000
0.810000	68.010000	32.250000	664.000000	0.000000	100.000000	56.000000	71.000000	-28.000000
0.820000	68.930000	32.200000	678.000000	0.000000	100.000000	56.000000	92.000000	-5.000000
0.830000	69.890000	32.570000	678.000000	0.000000	101.000000	57.000000	96.000000	37.000000
0.840000	70.940000	33.210000	682.000000	0.000000	101.000000	57.000000	105.000000	64.000000
0.850000	71.980000	33.970000	684.000000	0.000000	101.000000	57.000000	104.000000	76.000000
0.860000	73.000000	34.720000	682.000000	0.000000	102.000000	56.000000	102.000000	75.000000
0.870000	73.710000	35.460000	687.000000	0.000000	102.000000	56.000000	71.000000	74.000000
0.880000	74.070000	36.070000	694.000000	0.000000	102.000000	56.000000	36.000000	61.000000
0.890000	74.190000	36.590000	711.000000	0.000000	103.000000	57.000000	12.000000	52.000000
0.900000	74.070000	37.010000	731.000000	0.000000	103.000000	57.000000	-12.000000	42.000000
0.910000	73.760000	37.390000	737.000000	0.000000	104.000000	57.000000	-31.000000	38.000000
0.920000	73.320000	37.660000	746.000000	0.000000	104.000000	57.000000	-44.000000	27.000000
0.930000	72.630000	37.860000	745.000000	0.000000	106.000000	58.000000	-69.000000	20.000000
0.940000	71.820000	37.860000	728.000000	0.000000	108.000000	58.000000	-81.000000	0.000000
0.950000	70.920000	37.730000	710.000000	0.000000	109.000000	57.000000	-90.000000	-13.000000
0.960000	70.060000	37.500000	700.000000	0.000000	109.000000	57.000000	-86.000000	-23.000000
0.970000	69.200000	37.130000	700.000000	0.000000	111.000000	57.000000	-86.000000	-37.000000
0.980000	68.290000	36.660000	700.000000	0.000000	110.000000	56.000000	-91.000000	-47.000000
0.990000	67.350000	36.100000	697.000000	0.000000	109.000000	57.000000	-94.000000	-56.000000
1.000000	66.630000	35.510000	716.000000	0.000000	109.000000	57.000000	-72.000000	-59.000000
1.010000	66.120000	34.860000	707.000000	0.000000	107.000000	56.000000	-51.000000	-65.000000
1.020000	65.760000	34.230000	702.000000	0.000000	107.000000	56.000000	-36.000000	-63.000000
1.030000	65.650000	33.620000	696.000000	0.000000	105.000000	56.000000	-11.000000	-61.000000
1.040000	65.840000	32.990000	696.000000	0.000000	104.000000	56.000000	19.000000	-63.000000
1.050000	66.220000	32.530000	699.000000	0.000000	104.000000	56.000000	38.000000	-46.000000
1.060000	67.080000	32.320000	708.000000	0.000000	104.000000	56.000000	86.000000	-21.000000
1.070000	68.140000	32.270000	714.000000	0.000000	104.000000	56.000000	106.000000	-5.000000
1.080000	69.320000	32.480000	719.000000	0.000000	104.000000	56.000000	118.000000	21.000000
1.090000	70.430000	32.990000	717.000000	0.000000	104.000000	56.000000	111.000000	51.000000
1.100000	71.550000	33.710000	714.000000	0.000000	104.000000	56.000000	112.000000	72.000000
1.110000	72.570000	34.460000	700.000000	0.000000	104.000000	56.000000	102.000000	75.000000
1.120000	73.530000	35.240000	690.000000	0.000000	104.000000	56.000000	96.000000	78.000000
1.130000	74.100000	36.040000	688.000000	0.000000	104.000000	57.000000	57.000000	80.000000
1.140000	74.260000	36.690000	691.000000	0.000000	104.000000	57.000000	16.000000	65.000000
1.150000	74.140000	37.350000	688.000000	0.000000	104.000000	57.000000	-12.000000	66.000000
1.160000	73.650000	38.010000	685.000000	0.000000	106.000000	58.000000	-49.000000	66.000000
1.170000	72.750000	38.670000	687.000000	0.000000	106.000000	58.000000	-90.000000	66.000000
1.180000	71.570000	39.240000	679.000000	0.000000	108.000000	58.000000	-118.000000	57.000000
1.190000	70.100000	39.520000	666.000000	0.000000	109.000000	57.000000	-147.000000	28.000000
1.200000	68.180000	39.610000	684.000000	0.000000	111.000000	57.000000	-192.000000	9.000000
1.210000	65.960000	39.330000	702.000000	0.000000	113.000000	57.000000	-222.000000	-28.000000
1.220000	63.580000	38.510000	699.000000	0.000000	114.000000	57.000000	-238.000000	-82.000000
1.230000	60.980000	37.340000	702.000000	0.000000	114.000000	57.000000	-260.000000	-117.000000
1.240000	58.240000	35.700000	697.000000	0.000000	114.000000	57.000000	-274.000000	-164.000000
1.250000	55.340000	33.760000	730.000000	0.000000	112.000000	56.000000	-290.000000	-194.000000
1.260000	53.030000	31.610000	720.000000	0.000000	110.000000	56.000000	-231.000000	-215.000000
1.270000	51.100000	29.800000	736.000000	0.000000	108.000000	56.000000	-193.000000	-181.000000
1.280000	50.160000	28.490000	728.000000	0.000000	106.000000	55.000000	-94.000000	-131.000000
1.290000	50.040000	27.520000	728.000000	0.000000	106.000000	55.000000	-12.000000	-97.000000
1.300000	50.470000	26.790000	728.000000	0.000000	103.000000	55.000000	43.000000	-73.000000
1.310000	51.610000	26.340000	721.000000	0.000000	102.000000	55.000000	114.000000	-45.000000
1.320000	53.410000	26.080000	733.000000	0.000000	102.000000	55.000000	180.000000	-26.000000
1.330000	55.660000	26.570000	754.000000	0.000000	100.000000	56.000000	225.000000	49.000000
1.340000	58.510000	27.590000	768.000000	0.000000	99.000000	56.000000	285.000000	102.000000
1.350000	61.450000	28.970000	777.000000	0.000000	99.000000	57.000000	294.000000	138.000000
1.360000	64.450000	30.310000	780.000000	0.000000	99.000000	57.000000	300.000000	134.000000
1.370000	67.390000	31.580000	794.000000	0.000000	101.000000	57.000000	294.000000	127.000000
1.380000	70.010000	32.800000	776.000000	0.000000	101.000000	58.000000	262.000000	122.000000
1.390000	72.420000	34.010000	777.000000	0.000000	103.000000	57.000000	241.000000	121.000000
1.400000	74.310000	34.860000	779.000000	0.000000	105.000000	58.000000	189.000000	85.000000
1.410000	75.480000	35.470000	776.000000	0.000000	106.000000	58.000000	117.000000	61.000000
1.420000	76.180000	35.920000	784.000000	0.000000	106.000000	58.000000	70.000000	45.000000
1.430000	76.310000	36.130000	783.000000	0.000000	107.000000	59.000000	13.000000	21.000000
1.440000	76.110000	36.350000	782.000000	0.000000	109.000000	59.000000	-20.000000	22.000000
1.450000	75.690000	36.590000	762.000000	0.000000	109.000000	59.000000	-42.000000	24.000000
1.460000	74.840000	36.730000	748.000000	0.000000	109.000000	59.000000	-85.000000	14.000000
1.470000	73.470000	36.730000	699.000000	0.000000	109.000000	59.000000	-137.000000	0.000000
1.480000	71.760000	36.730000	676.000000	0.000000	109.000000	59.000000	-171.000000	0.000000
1.490000	69.800000	36.620000	668.000000	0.000000	110.000000	58.000000	-196.000000	-11.000000
1.500000	67.370000	36.270000	666.000000	0.000000	110.000000	58.000000	-243.000000	-35.000000
1.510000	64.630000	35.770000	676.000000	0.000000	109.000000	57.000000	-274.000000	-50.000000
1.520000	61.510000	34.900000	714.000000	0.000000	109.000000	57.000000	-312.000000	-87.000000
1.530000	58.540000	33.700000	734.000000	0.000000	109.000000	57.000000	-297.000000	-120.000000
1.540000	55.660000	32.280000	763.000000	0.000000	109.000000	57.000000	-288.000000	-142.000000
1.550000	53.490000	30.900000	780.000000	0.000000	109.000000	57.000000	-217.000000	-138.000000
1.560000	52.260000	29.840000	787.000000	0.000000	109.000000	57.000000	-123.000000	-106.000000
1.570000	51.650000	28.990000	768.000000	0.000000	107.000000	57.000000	-61.000000	-85.000000
1.580000	52.000000	28.440000	771.000000	0.000000	107.000000	57.000000	35.000000	-55.000000
1.590000	53.200000	27.770000	774.000000	0.000000	107.000000	57.000000	120.000000	-67.000000
1.600000	54.970000	27.010000	782.000000	0.000000	107.000000	57.000000	177.000000	-76.000000
1.610000	57.640000	26.950000	785.000000	0.000000	107.000000	57.000000	267.000000	-6.000000
1.620000	60.730000	27.600000	797.000000	0.000000	108.000000	58.000000	309.000000	65.000000
1.630000	64.090000	28.730000	805.000000	0.000000	106.000000	58.000000	336.000000	113.000000
1.640000	67.350000	30.200000	796.000000	0.000000	106.000000	58.000000	326.000000	147.000000
1.650000	70.190000	31.680000	722.000000	0.000000	107.000000	59.000000	284.000000	148.000000
1.660000	72.750000	33.180000	591.000000	0.000000	107.000000	59.000000	256.000000	150.000000
1.670000	74.490000	34.410000	144.000000	0.000000	107.000000	59.000000	174.000000	123.000000
1.680000	74.490000	34.410000	0.000000	1.000000	107.000000	59.000000	0.000000	0.000000
1.690000	75.560000	36.390000	0.000000	0.000000	108.000000	60.000000	107.000000	198.000000
1.700000	74.550000	36.990000	0.000000	0.000000	109.000000	60.000000	-101.000000	60.000000
1.710000	72.860000	36.990000	0.000000	0.000000	111.000000	59.000000	-169.000000	0.000000
1.720000	70.710000	36.600000	0.000000	0.000000	111.000000	59.000000	-215.000000	-39.000000
1.730000	68.430000	36.010000	0.000000	0.000000	112.000000	58.000000	-228.000000	-59.000000
1.740000	66.250000	35.010000	0.000000	0.000000	113.000000	57.000000	-218.000000	-100.000000
1.750000	64.140000	33.770000	0.000000	0.000000	113.000000	56.000000	-211.000000	-124.000000
1.760000	61.790000	32.370000	0.000000	0.000000	111.000000	53.000000	-235.000000	-140.000000
1.770000	59.490000	31.180000	0.000000	0.000000	110.000000	51.000000	-230.000000	-119.000000
1.780000	57.210000	30.000000	0.000000	0.000000	107.000000	49.000000	-228.000000	-118.000000
1.790000	55.760000	28.830000	0.000000	0.000000	103.000000	47.000000	-145.000000	-117.000000
1.800000	54.770000	27.680000	0.000000	0.000000	101.000000	46.000000	-99.000000	-115.000000
1.810000	54.080000	26.820000	0.000000	0.000000	97.000000	46.000000	-69.000000	-86.000000
1.820000	53.060000	26.160000	0.000000	0.000000	95.000000	45.000000	-102.000000	-66.000000
1.830000	52.970000	25.780000	0.000000	0.000000	94.000000	45.000000	-9.000000	-38.000000
1.840000	53.490000	25.490000	0.000000	0.000000	94.000000	46.000000	52.000000	-29.000000
1.850000	53.490000	25.260000	0.000000	0.000000	93.000000	48.000000	0.000000	-23.000000
1.860000	53.080000	25.260000	0.000000	0.000000	93.000000	49.000000	-41.000000	0.000000
1.870000	52.470000	25.180000	0.000000	0.000000	94.000000	50.000000	-61.000000	-8.000000
1.880000	52.190000	25.130000	0.000000	0.000000	95.000000	51.000000	-28.000000	-5.000000
1.890000	51.900000	24.990000	0.000000	0.000000	95.000000	50.000000	-29.000000	-14.000000
1.900000	51.600000	24.880000	0.000000	0.000000	95.000000	49.000000	-30.000000	-11.000000
1.910000	51.600000	24.880000	0.000000	0.000000	93.000000	49.000000	0.000000	0.000000
1.920000	51.700000	24.930000	0.000000	0.000000	91.000000	49.000000	10.000000	5.000000
1.930000	51.900000	24.990000	0.000000	0.000000	90.000000	48.000000	20.000000	6.000000
1.940000	52.770000	25.050000	0.000000	0.000000	90.000000	48.000000	87.000000	6.000000
1.950000	52.770000	25.050000	0.000000	0.000000	90.000000	48.000000	0.000000	0.000000
1.960000	52.190000	25.150000	0.000000	0.000000	90.000000	49.000000	-58.000000	10.000000
1.970000	52.190000	25.150000	0.000000	0.000000	90.000000	49.000000	0.000000	0.000000
1.980000	52.250000	25.020000	0.000000	0.000000	90.000000	49.000000	6.000000	-13.000000
1.990000	52.350000	24.790000	0.000000	0.000000	90.000000	50.000000	10.000000	-23.000000
2.000000	52.510000	24.460000	0.000000	0.000000	90.000000	50.000000	16.000000	-33.000000
2.010000	52.710000	24.160000	0.000000	0.000000	90.000000	51.000000	20.000000	-30.000000
2.020000	52.710000	24.160000	73.000000	1.000000	89.000000	51.000000	0.000000	0.000000
2.030000	53.100000	23.810000	212.000000	0.000000	89.000000	51.000000	39.000000	-35.000000
2.040000	53.100000	23.810000	206.000000	0.000000	87.000000	52.000000	0.000000	0.000000
2.050000	53.050000	23.810000	259.000000	0.000000	86.000000	52.000000	-5.000000	0.000000
2.060000	53.050000	23.860000	337.000000	0.000000	86.000000	53.000000	0.000000	5.000000
2.070000	52.880000	23.860000	423.000000	0.000000	85.000000	53.000000	-17.000000	0.000000
2.080000	52.750000	23.860000	491.000000	0.000000	85.000000	54.000000	-13.000000	0.000000
2.090000	52.610000	23.860000	542.000000	0.000000	83.000000	54.000000	-14.000000	0.000000
2.100000	52.420000	23.860000	588.000000	0.000000	83.000000	54.000000	-19.000000	0.000000
2.110000	52.190000	23.920000	630.000000	0.000000	83.000000	54.000000	-23.000000	6.000000
2.120000	51.920000	24.000000	670.000000	0.000000	82.000000	54.000000	-27.000000	8.000000
2.130000	51.620000	24.130000	693.000000	0.000000	82.000000	54.000000	-30.000000	13.000000
2.140000	51.330000	24.470000	702.000000	0.000000	82.000000	54.000000	-29.000000	34.000000
2.150000	51.050000	24.940000	716.000000	0.000000	82.000000	54.000000	-28.000000	47.000000
2.160000	50.770000	25.580000	721.000000	0.000000	83.000000	53.000000	-28.000000	64.000000
2.170000	50.510000	26.500000	717.000000	0.000000	83.000000	53.000000	-26.000000	92.000000
2.180000	50.300000	27.610000	730.000000	0.000000	85.000000	53.000000	-21.000000	111.000000
2.190000	50.180000	28.640000	725.000000	0.000000	86.000000	53.000000	-12.000000	103.000000
2.200000	50.260000	29.590000	737.000000	0.000000	87.000000	52.000000	8.000000	95.000000
