t	x	y	pressure	penup	azimuth	inclination	v_x	v_y
0.000000	83.380000	56.950000	332.000000	1.000000	134.000000	55.000000	0.000000	0.000000
0.010000	83.850000	56.230000	443.000000	0.000000	131.000000	55.000000	47.000000	-72.000000
0.020000	83.310000	56.460000	553.000000	0.000000	130.000000	55.000000	-54.000000	23.000000
0.030000	83.230000	56.620000	639.000000	0.000000	129.000000	56.000000	-8.000000	16.000000
0.040000	83.150000	56.730000	668.000000	0.000000	127.000000	56.000000	-8.000000	11.000000
0.050000	83.070000	57.200000	702.000000	0.000000	127.000000	56.000000	-8.000000	47.000000
0.060000	82.980000	58.010000	722.000000	0.000000	128.000000	57.000000	-9.000000	81.000000
0.070000	82.980000	59.060000	745.000000	0.000000	128.000000	57.000000	0.000000	105.000000
0.080000	83.230000	60.380000	780.000000	0.000000	128.000000	57.000000	25.000000	132.000000
0.090000	83.590000	61.960000	799.000000	0.000000	130.000000	58.000000	36.000000	158.000000
0.100000	84.280000	63.710000	830.000000	0.000000	130.000000	58.000000	69.000000	175.000000
0.110000	85.020000	65.450000	834.000000	0.000000	130.000000	58.000000	74.000000	174.000000
0.120000	85.820000	66.490000	842.000000	0.000000	131.000000	58.000000	80.000000	104.000000
0.130000	86.480000	67.060000	852.000000	0.000000	131.000000	58.000000	66.000000	57.000000
0.140000	87.050000	67.300000	848.000000	0.000000	132.000000	58.000000	57.000000	24.000000
0.150000	87.570000	67.230000	836.000000	0.000000	134.000000	58.000000	52.000000	-7.000000
0.160000	88.090000	66.950000	830.000000	0.000000	134.000000	58.000000	52.000000	-28.000000
0.170000	88.330000	66.320000	814.000000	0.000000	135.000000	58.000000	24.000000	-63.000000
0.180000	88.380000	65.280000	796.000000	0.000000	135.000000	58.000000	5.000000	-104.000000
0.190000	88.040000	63.970000	779.000000	0.000000	136.000000	57.000000	-34.000000	-131.000000
0.200000	87.520000	62.840000	768.000000	0.000000	138.000000	57.000000	-52.000000	-113.000000
0.210000	86.880000	62.030000	763.000000	0.000000	138.000000	57.000000	-64.000000	-81.000000
0.220000	86.250000	61.440000	765.000000	0.000000	138.000000	57.000000	-63.000000	-59.000000
0.230000	85.670000	61.060000	779.000000	0.000000	139.000000	56.000000	-58.000000	-38.000000
0.240000	85.380000	60.900000	784.000000	0.000000	139.000000	56.000000	-29.000000	-16.000000
0.250000	85.270000	60.900000	818.000000	0.000000	139.000000	56.000000	-11.000000	0.000000
0.260000	85.270000	60.900000	822.000000	0.000000	139.000000	56.000000	0.000000	0.000000
0.270000	85.270000	60.900000	842.000000	0.000000	139.000000	56.000000	0.000000	0.000000
0.280000	85.370000	60.990000	855.000000	0.000000	139.000000	56.000000	10.000000	9.000000
0.290000	85.590000	61.110000	887.000000	0.000000	139.000000	56.000000	22.000000	12.000000
0.300000	85.960000	61.210000	899.000000	0.000000	139.000000	56.000000	37.000000	10.000000
0.310000	86.430000	61.280000	936.000000	0.000000	139.000000	56.000000	47.000000	7.000000
0.320000	86.960000	61.280000	940.000000	0.000000	139.000000	56.000000	53.000000	0.000000
0.330000	87.500000	61.200000	950.000000	0.000000	139.000000	56.000000	54.000000	-8.000000
0.340000	87.930000	61.040000	944.000000	0.000000	138.000000	55.000000	43.000000	-16.000000
0.350000	88.280000	60.940000	938.000000	0.000000	138.000000	55.000000	35.000000	-10.000000
0.360000	88.520000	60.840000	915.000000	0.000000	138.000000	55.000000	24.000000	-10.000000
0.370000	88.670000	60.740000	866.000000	0.000000	138.000000	55.000000	15.000000	-10.000000
0.380000	88.670000	60.740000	794.000000	0.000000	138.000000	55.000000	0.000000	0.000000
0.390000	88.670000	60.740000	641.000000	0.000000	138.000000	55.000000	0.000000	0.000000
0.400000	88.670000	60.740000	371.000000	0.000000	138.000000	55.000000	0.000000	0.000000
0.410000	88.670000	60.740000	0.000000	1.000000	136.000000	56.000000	0.000000	0.000000
0.420000	88.670000	60.740000	0.000000	0.000000	136.000000	56.000000	0.000000	0.000000
0.430000	88.940000	60.890000	0.000000	0.000000	136.000000	56.000000	27.000000	15.000000
0.440000	88.990000	61.050000	0.000000	0.000000	136.000000	56.000000	5.000000	16.000000
0.450000	89.220000	61.160000	0.000000	0.000000	136.000000	56.000000	23.000000	11.000000
0.460000	89.500000	61.250000	0.000000	0.000000	136.000000	56.000000	28.000000	9.000000
0.470000	89.850000	61.250000	0.000000	0.000000	136.000000	56.000000	35.000000	0.000000
0.480000	90.180000	61.250000	0.000000	0.000000	136.000000	56.000000	33.000000	0.000000
0.490000	90.460000	61.250000	0.000000	0.000000	136.000000	56.000000	28.000000	0.000000
0.500000	90.710000	61.250000	0.000000	0.000000	136.000000	56.000000	25.000000	0.000000
0.510000	90.920000	61.190000	0.000000	0.000000	136.000000	56.000000	21.000000	-6.000000
0.520000	90.920000	61.190000	449.000000	1.000000	138.000000	55.000000	0.000000	0.000000
0.530000	90.920000	61.190000	588.000000	0.000000	138.000000	55.000000	0.000000	0.000000
0.540000	90.920000	61.190000	760.000000	0.000000	139.000000	56.000000	0.000000	0.000000
0.550000	90.920000	61.190000	849.000000	0.000000	139.000000	56.000000	0.000000	0.000000
0.560000	90.920000	61.190000	881.000000	0.000000	139.000000	56.000000	0.000000	0.000000
0.570000	90.920000	61.190000	903.000000	0.000000	139.000000	56.000000	0.000000	0.000000
0.580000	90.920000	61.190000	899.000000	0.000000	140.000000	56.000000	0.000000	0.000000
0.590000	90.920000	61.190000	894.000000	0.000000	140.000000	56.000000	0.000000	0.000000
0.600000	90.920000	61.190000	866.000000	0.000000	140.000000	56.000000	0.000000	0.000000
0.610000	90.770000	60.910000	840.000000	0.000000	142.000000	57.000000	-15.000000	-28.000000
0.620000	90.700000	60.660000	815.000000	0.000000	142.000000	57.000000	-7.000000	-25.000000
0.630000	90.700000	60.540000	806.000000	0.000000	142.000000	57.000000	0.000000	-12.000000
0.640000	90.700000	60.540000	818.000000	0.000000	143.000000	57.000000	0.000000	0.000000
0.650000	90.700000	60.540000	828.000000	0.000000	143.000000	57.000000	0.000000	0.000000
0.660000	90.700000	60.590000	846.000000	0.000000	143.000000	57.000000	0.000000	5.000000
0.670000	90.700000	60.680000	851.000000	0.000000	143.000000	57.000000	0.000000	9.000000
0.680000	90.700000	60.800000	819.000000	0.000000	143.000000	57.000000	0.000000	12.000000
0.690000	90.750000	60.950000	790.000000	0.000000	143.000000	57.000000	5.000000	15.000000
0.700000	90.810000	61.090000	662.000000	0.000000	143.000000	57.000000	6.000000	14.000000
0.710000	90.870000	61.220000	433.000000	0.000000	143.000000	57.000000	6.000000	13.000000
0.720000	90.920000	61.220000	101.000000	0.000000	143.000000	57.000000	5.000000	0.000000
0.730000	90.920000	61.220000	0.000000	1.000000	143.000000	57.000000	0.000000	0.000000
0.740000	91.120000	61.160000	0.000000	0.000000	143.000000	57.000000	20.000000	-6.000000
0.750000	91.180000	61.040000	0.000000	0.000000	143.000000	57.000000	6.000000	-12.000000
0.760000	91.180000	60.920000	0.000000	0.000000	143.000000	57.000000	0.000000	-12.000000
0.770000	91.240000	60.650000	0.000000	0.000000	143.000000	57.000000	6.000000	-27.000000
0.780000	91.330000	60.290000	0.000000	0.000000	143.000000	57.000000	9.000000	-36.000000
0.790000	91.480000	60.000000	0.000000	0.000000	143.000000	57.000000	15.000000	-29.000000
0.800000	91.620000	59.650000	0.000000	0.000000	142.000000	57.000000	14.000000	-35.000000
0.810000	91.690000	59.270000	0.000000	0.000000	140.000000	58.000000	7.000000	-38.000000
0.820000	91.690000	58.900000	0.000000	0.000000	140.000000	58.000000	0.000000	-37.000000
0.830000	91.810000	58.600000	0.000000	0.000000	139.000000	57.000000	12.000000	-30.000000
0.840000	91.920000	58.390000	0.000000	0.000000	139.000000	57.000000	11.000000	-21.000000
0.850000	92.090000	58.270000	0.000000	0.000000	138.000000	57.000000	17.000000	-12.000000
0.860000	92.320000	58.350000	0.000000	0.000000	138.000000	57.000000	23.000000	8.000000
0.870000	92.500000	58.540000	0.000000	0.000000	138.000000	55.000000	18.000000	19.000000
0.880000	92.590000	58.810000	0.000000	0.000000	138.000000	55.000000	9.000000	27.000000
0.890000	92.640000	59.140000	0.000000	0.000000	138.000000	55.000000	5.000000	33.000000
0.900000	92.580000	59.540000	0.000000	0.000000	136.000000	55.000000	-6.000000	40.000000
0.910000	92.520000	59.980000	0.000000	0.000000	135.000000	55.000000	-6.000000	44.000000
0.920000	92.520000	60.440000	0.000000	0.000000	135.000000	55.000000	0.000000	46.000000
0.930000	92.440000	60.970000	0.000000	0.000000	135.000000	55.000000	-8.000000	53.000000
0.940000	92.440000	61.550000	0.000000	0.000000	135.000000	55.000000	0.000000	58.000000
0.950000	92.590000	62.110000	0.000000	0.000000	136.000000	55.000000	15.000000	56.000000
0.960000	92.700000	62.630000	0.000000	0.000000	136.000000	55.000000	11.000000	52.000000
0.970000	92.800000	63.070000	0.000000	0.000000	136.000000	55.000000	10.000000	44.000000
0.980000	92.950000	63.470000	0.000000	0.000000	138.000000	55.000000	15.000000	40.000000
0.990000	93.100000	63.840000	0.000000	0.000000	138.000000	55.000000	15.000000	37.000000
1.000000	93.260000	64.200000	0.000000	0.000000	138.000000	55.000000	16.000000	36.000000
1.010000	93.260000	64.200000	215.000000	1.000000	139.000000	56.000000	0.000000	0.000000
1.020000	93.430000	64.840000	341.000000	0.000000	139.000000	56.000000	17.000000	64.000000
1.030000	93.430000	65.080000	499.000000	0.000000	139.000000	56.000000	0.000000	24.000000
1.040000	93.340000	65.160000	591.000000	0.000000	140.000000	56.000000	-9.000000	8.000000
1.050000	93.260000	65.160000	625.000000	0.000000	140.000000	56.000000	-8.000000	0.000000
1.060000	93.190000	65.060000	673.000000	0.000000	140.000000	56.000000	-7.000000	-10.000000
1.070000	93.080000	64.610000	691.000000	0.000000	143.000000	56.000000	-11.000000	-45.000000
1.080000	92.950000	63.900000	733.000000	0.000000	143.000000	56.000000	-13.000000	-71.000000
1.090000	92.810000	62.870000	731.000000	0.000000	143.000000	56.000000	-14.000000	-103.000000
1.100000	92.700000	61.560000	731.000000	0.000000	143.000000	56.000000	-11.000000	-131.000000
1.110000	92.640000	60.070000	730.000000	0.000000	144.000000	57.000000	-6.000000	-149.000000
1.120000	92.790000	58.850000	720.000000	0.000000	144.000000	57.000000	15.000000	-122.000000
1.130000	93.070000	58.120000	727.000000	0.000000	143.000000	57.000000	28.000000	-73.000000
1.140000	93.440000	57.710000	742.000000	0.000000	143.000000	57.000000	37.000000	-41.000000
1.150000	93.770000	57.600000	762.000000	0.000000	143.000000	57.000000	33.000000	-11.000000
1.160000	94.090000	57.690000	799.000000	0.000000	142.000000	58.000000	32.000000	9.000000
1.170000	94.480000	57.910000	818.000000	0.000000	142.000000	58.000000	39.000000	22.000000
1.180000	94.910000	58.490000	837.000000	0.000000	142.000000	58.000000	43.000000	58.000000
1.190000	95.330000	59.260000	851.000000	0.000000	139.000000	58.000000	42.000000	77.000000
1.200000	95.640000	60.150000	852.000000	0.000000	139.000000	58.000000	31.000000	89.000000
1.210000	95.900000	61.220000	833.000000	0.000000	139.000000	58.000000	26.000000	107.000000
1.220000	96.140000	62.430000	836.000000	0.000000	139.000000	58.000000	24.000000	121.000000
1.230000	96.190000	63.730000	848.000000	0.000000	139.000000	58.000000	5.000000	130.000000
1.240000	96.110000	64.580000	888.000000	0.000000	139.000000	58.000000	-8.000000	85.000000
1.250000	96.110000	64.980000	894.000000	0.000000	139.000000	58.000000	0.000000	40.000000
1.260000	96.040000	65.090000	893.000000	0.000000	139.000000	58.000000	-7.000000	11.000000
1.270000	95.950000	65.090000	878.000000	0.000000	139.000000	58.000000	-9.000000	0.000000
1.280000	95.950000	64.680000	870.000000	0.000000	141.000000	59.000000	0.000000	-41.000000
1.290000	95.800000	64.080000	855.000000	0.000000	141.000000	59.000000	-15.000000	-60.000000
1.300000	95.630000	63.050000	866.000000	0.000000	142.000000	58.000000	-17.000000	-103.000000
1.310000	95.550000	61.890000	852.000000	0.000000	142.000000	58.000000	-8.000000	-116.000000
1.320000	95.600000	60.640000	846.000000	0.000000	143.000000	59.000000	5.000000	-125.000000
1.330000	95.740000	59.730000	848.000000	0.000000	144.000000	58.000000	14.000000	-91.000000
1.340000	95.960000	59.090000	854.000000	0.000000	144.000000	58.000000	22.000000	-64.000000
1.350000	96.180000	58.620000	858.000000	0.000000	144.000000	58.000000	22.000000	-47.000000
1.360000	96.380000	58.380000	863.000000	0.000000	144.000000	58.000000	20.000000	-24.000000
1.370000	96.550000	58.260000	864.000000	0.000000	144.000000	58.000000	17.000000	-12.000000
1.380000	96.760000	58.260000	875.000000	0.000000	143.000000	57.000000	21.000000	0.000000
1.390000	97.050000	58.340000	873.000000	0.000000	142.000000	58.000000	29.000000	8.000000
1.400000	97.350000	58.570000	884.000000	0.000000	142.000000	58.000000	30.000000	23.000000
1.410000	97.650000	58.870000	879.000000	0.000000	142.000000	58.000000	30.000000	30.000000
1.420000	97.950000	59.100000	890.000000	0.000000	141.000000	59.000000	30.000000	23.000000
1.430000	98.190000	59.350000	884.000000	0.000000	141.000000	59.000000	24.000000	25.000000
1.440000	98.400000	59.640000	890.000000	0.000000	141.000000	59.000000	21.000000	29.000000
1.450000	98.490000	59.950000	884.000000	0.000000	141.000000	59.000000	9.000000	31.000000
1.460000	98.580000	60.340000	885.000000	0.000000	141.000000	59.000000	9.000000	39.000000
1.470000	98.670000	60.790000	875.000000	0.000000	141.000000	59.000000	9.000000	45.000000
1.480000	98.760000	61.270000	867.000000	0.000000	141.000000	59.000000	9.000000	48.000000
1.490000	98.880000	61.840000	863.000000	0.000000	141.000000	59.000000	12.000000	57.000000
1.500000	98.950000	62.380000	869.000000	0.000000	141.000000	59.000000	7.000000	54.000000
1.510000	98.950000	62.830000	869.000000	0.000000	141.000000	59.000000	0.000000	45.000000
1.520000	98.950000	63.240000	879.000000	0.000000	141.000000	59.000000	0.000000	41.000000
1.530000	98.950000	63.570000	873.000000	0.000000	142.000000	59.000000	0.000000	33.000000
1.540000	98.950000	63.860000	893.000000	0.000000	142.000000	59.000000	0.000000	29.000000
1.550000	98.950000	64.030000	885.000000	0.000000	142.000000	59.000000	0.000000	17.000000
1.560000	98.950000	64.120000	894.000000	0.000000	143.000000	59.000000	0.000000	9.000000
1.570000	98.950000	64.120000	884.000000	0.000000	143.000000	59.000000	0.000000	0.000000
1.580000	98.950000	64.120000	885.000000	0.000000	143.000000	59.000000	0.000000	0.000000
1.590000	98.950000	64.120000	876.000000	0.000000	144.000000	58.000000	0.000000	0.000000
1.600000	98.950000	64.120000	878.000000	0.000000	144.000000	58.000000	0.000000	0.000000
1.610000	98.950000	64.120000	872.000000	0.000000	144.000000	58.000000	0.000000	0.000000
1.620000	99.000000	64.010000	885.000000	0.000000	144.000000	58.000000	5.000000	-11.000000
1.630000	99.000000	63.750000	879.000000	0.000000	144.000000	58.000000	0.000000	-26.000000
1.640000	99.050000	63.380000	893.000000	0.000000	144.000000	58.000000	5.000000	-37.000000
1.650000	99.050000	62.820000	887.000000	0.000000	144.000000	58.000000	0.000000	-56.000000
1.660000	99.050000	62.280000	890.000000	0.000000	144.000000	58.000000	0.000000	-54.000000
1.670000	99.210000	61.750000	876.000000	0.000000	144.000000	58.000000	16.000000	-53.000000
1.680000	99.460000	61.360000	878.000000	0.000000	144.000000	58.000000	25.000000	-39.000000
1.690000	99.700000	61.090000	857.000000	0.000000	144.000000	58.000000	24.000000	-27.000000
1.700000	99.910000	60.900000	867.000000	0.000000	144.000000	58.000000	21.000000	-19.000000
1.710000	100.090000	60.820000	858.000000	0.000000	146.000000	58.000000	18.000000	-8.000000
1.720000	100.300000	60.870000	866.000000	0.000000	146.000000	58.000000	21.000000	5.000000
1.730000	100.520000	61.000000	866.000000	0.000000	146.000000	58.000000	22.000000	13.000000
1.740000	100.750000	61.260000	873.000000	0.000000	146.000000	58.000000	23.000000	26.000000
1.750000	100.910000	61.640000	866.000000	0.000000	145.000000	59.000000	16.000000	38.000000
1.760000	101.030000	62.110000	875.000000	0.000000	146.000000	60.000000	12.000000	47.000000
1.770000	101.090000	62.560000	893.000000	0.000000	146.000000	60.000000	6.000000	45.000000
1.780000	101.090000	62.930000	908.000000	0.000000	146.000000	60.000000	0.000000	37.000000
1.790000	101.010000	63.180000	909.000000	0.000000	148.000000	60.000000	-8.000000	25.000000
1.800000	101.010000	63.410000	909.000000	0.000000	148.000000	60.000000	0.000000	23.000000
1.810000	101.010000	63.480000	885.000000	0.000000	148.000000	60.000000	0.000000	7.000000
1.820000	101.010000	63.480000	879.000000	0.000000	148.000000	60.000000	0.000000	0.000000
1.830000	101.010000	63.280000	876.000000	0.000000	148.000000	60.000000	0.000000	-20.000000
1.840000	101.010000	62.870000	878.000000	0.000000	148.000000	60.000000	0.000000	-41.000000
1.850000	101.010000	62.300000	872.000000	0.000000	148.000000	60.000000	0.000000	-57.000000
1.860000	101.080000	61.820000	863.000000	0.000000	150.000000	60.000000	7.000000	-48.000000
1.870000	101.190000	61.500000	853.000000	0.000000	150.000000	60.000000	11.000000	-32.000000
1.880000	101.380000	61.290000	853.000000	0.000000	150.000000	60.000000	19.000000	-21.000000
1.890000	101.630000	61.160000	864.000000	0.000000	150.000000	60.000000	25.000000	-13.000000
1.900000	101.940000	61.160000	869.000000	0.000000	150.000000	60.000000	31.000000	0.000000
1.910000	102.290000	61.160000	869.000000	0.000000	150.000000	60.000000	35.000000	0.000000
1.920000	102.610000	61.360000	863.000000	0.000000	150.000000	60.000000	32.000000	20.000000
1.930000	102.820000	61.580000	872.000000	0.000000	150.000000	60.000000	21.000000	22.000000
1.940000	102.960000	61.840000	891.000000	0.000000	150.000000	60.000000	14.000000	26.000000
1.950000	103.120000	62.180000	902.000000	0.000000	150.000000	60.000000	16.000000	34.000000
1.960000	103.190000	62.520000	903.000000	0.000000	150.000000	60.000000	7.000000	34.000000
1.970000	103.190000	62.850000	903.000000	0.000000	150.000000	60.000000	0.000000	33.000000
1.980000	103.190000	62.960000	908.000000	0.000000	148.000000	60.000000	0.000000	11.000000
1.990000	103.190000	63.020000	893.000000	0.000000	148.000000	60.000000	0.000000	6.000000
2.000000	103.190000	63.020000	902.000000	0.000000	148.000000	60.000000	0.000000	0.000000
2.010000	103.190000	62.930000	896.000000	0.000000	148.000000	60.000000	0.000000	-9.000000
2.020000	103.240000	62.790000	893.000000	0.000000	148.000000	60.000000	5.000000	-14.000000
2.030000	103.240000	62.610000	887.000000	0.000000	148.000000	60.000000	0.000000	-18.000000
2.040000	103.350000	62.440000	896.000000	0.000000	148.000000	60.000000	11.000000	-17.000000
2.050000	103.540000	62.320000	894.000000	0.000000	148.000000	60.000000	19.000000	-12.000000
2.060000	103.840000	62.210000	891.000000	0.000000	150.000000	60.000000	30.000000	-11.000000
2.070000	104.200000	62.210000	888.000000	0.000000	150.000000	60.000000	36.000000	0.000000
2.080000	104.780000	62.330000	884.000000	0.000000	150.000000	60.000000	58.000000	12.000000
2.090000	105.500000	62.610000	887.000000	0.000000	150.000000	60.000000	72.000000	28.000000
2.100000	106.210000	62.970000	891.000000	0.000000	150.000000	60.000000	71.000000	36.000000
2.110000	106.770000	63.380000	905.000000	0.000000	148.000000	60.000000	56.000000	41.000000
2.120000	107.220000	63.960000	908.000000	0.000000	148.000000	60.000000	45.000000	58.000000
2.130000	107.480000	64.670000	893.000000	0.000000	148.000000	60.000000	26.000000	71.000000
2.140000	107.580000	65.470000	892.000000	0.000000	148.000000	60.000000	10.000000	80.000000
2.150000	107.580000	66.230000	924.000000	0.000000	148.000000	60.000000	0.000000	76.000000
2.160000	107.330000	66.800000	932.000000	0.000000	148.000000	60.000000	-25.000000	57.000000
2.170000	106.990000	67.240000	921.000000	0.000000	148.000000	60.000000	-34.000000	44.000000
2.180000	106.590000	67.550000	923.000000	0.000000	148.000000	60.000000	-40.000000	31.000000
2.190000	105.990000	67.660000	911.000000	0.000000	148.000000	60.000000	-60.000000	11.000000
2.200000	105.240000	67.660000	908.000000	0.000000	148.000000	60.000000	-75.000000	0.000000
2.210000	104.400000	67.330000	906.000000	0.000000	150.000000	60.000000	-84.000000	-33.000000
