t	x	y	pressure	penup	azimuth	inclination	v_x	v_y
0.000000	30.390000	65.790000	225.000000	1.000000	147.000000	59.000000	0.000000	0.000000
0.010000	30.520000	66.140000	436.000000	0.000000	148.000000	60.000000	13.000000	35.000000
0.020000	30.310000	66.400000	578.000000	0.000000	148.000000	60.000000	-21.000000	26.000000
0.030000	30.000000	66.730000	694.000000	0.000000	148.000000	61.000000	-31.000000	33.000000
0.040000	29.640000	67.120000	796.000000	0.000000	148.000000	61.000000	-36.000000	39.000000
0.050000	29.160000	67.560000	902.000000	0.000000	148.000000	61.000000	-48.000000	44.000000
0.060000	28.550000	67.800000	968.000000	0.000000	150.000000	62.000000	-61.000000	24.000000
0.070000	27.850000	68.000000	1023.000000	0.000000	150.000000	62.000000	-70.000000	20.000000
0.080000	26.720000	67.870000	1023.000000	0.000000	150.000000	62.000000	-113.000000	-13.000000
0.090000	25.330000	67.540000	1023.000000	0.000000	150.000000	62.000000	-139.000000	-33.000000
0.100000	23.770000	66.690000	1023.000000	0.000000	150.000000	62.000000	-156.000000	-85.000000
0.110000	22.370000	65.780000	1023.000000	0.000000	150.000000	62.000000	-140.000000	-91.000000
0.120000	21.270000	64.650000	1023.000000	0.000000	150.000000	62.000000	-110.000000	-113.000000
0.130000	20.380000	63.390000	1023.000000	0.000000	150.000000	62.000000	-89.000000	-126.000000
0.140000	19.990000	62.350000	1023.000000	0.000000	148.000000	61.000000	-39.000000	-104.000000
0.150000	19.990000	61.490000	1023.000000	0.000000	148.000000	61.000000	0.000000	-86.000000
0.160000	20.250000	60.750000	1023.000000	0.000000	147.000000	61.000000	26.000000	-74.000000
0.170000	21.090000	60.230000	1023.000000	0.000000	147.000000	61.000000	84.000000	-52.000000
0.180000	22.170000	59.900000	1023.000000	0.000000	147.000000	61.000000	108.000000	-33.000000
0.190000	23.400000	59.690000	1023.000000	0.000000	144.000000	61.000000	123.000000	-21.000000
0.200000	24.710000	59.850000	1023.000000	0.000000	144.000000	61.000000	131.000000	16.000000
0.210000	25.960000	60.110000	1023.000000	0.000000	146.000000	62.000000	125.000000	26.000000
0.220000	27.170000	60.440000	1023.000000	0.000000	146.000000	62.000000	121.000000	33.000000
0.230000	27.790000	60.690000	1023.000000	0.000000	146.000000	62.000000	62.000000	25.000000
0.240000	27.980000	60.770000	1023.000000	0.000000	146.000000	62.000000	19.000000	8.000000
0.250000	27.870000	60.770000	1023.000000	0.000000	146.000000	62.000000	-11.000000	0.000000
0.260000	27.870000	60.710000	946.000000	0.000000	146.000000	62.000000	0.000000	-6.000000
0.270000	27.680000	60.650000	50.000000	0.000000	146.000000	62.000000	-19.000000	-6.000000
0.280000	27.680000	60.650000	0.000000	1.000000	144.000000	61.000000	0.000000	0.000000
0.290000	27.310000	60.680000	0.000000	0.000000	144.000000	61.000000	-37.000000	3.000000
0.300000	27.550000	61.010000	0.000000	0.000000	144.000000	61.000000	24.000000	33.000000
0.310000	28.030000	61.590000	0.000000	0.000000	144.000000	61.000000	48.000000	58.000000
0.320000	29.080000	62.120000	0.000000	0.000000	144.000000	61.000000	105.000000	53.000000
0.330000	30.190000	62.620000	0.000000	0.000000	144.000000	60.000000	111.000000	50.000000
0.340000	31.340000	63.130000	0.000000	0.000000	144.000000	60.000000	115.000000	51.000000
0.350000	32.230000	63.790000	0.000000	0.000000	145.000000	59.000000	89.000000	66.000000
0.360000	32.750000	64.560000	0.000000	0.000000	144.000000	58.000000	52.000000	77.000000
0.370000	33.010000	64.830000	0.000000	0.000000	146.000000	57.000000	26.000000	27.000000
0.380000	33.060000	65.060000	0.000000	0.000000	147.000000	56.000000	5.000000	23.000000
0.390000	33.060000	65.250000	0.000000	0.000000	148.000000	56.000000	0.000000	19.000000
0.400000	33.060000	65.420000	0.000000	0.000000	150.000000	55.000000	0.000000	17.000000
0.410000	33.060000	65.600000	0.000000	0.000000	151.000000	54.000000	0.000000	18.000000
0.420000	33.060000	65.750000	0.000000	0.000000	151.000000	54.000000	0.000000	15.000000
0.430000	33.220000	65.890000	0.000000	0.000000	153.000000	54.000000	16.000000	14.000000
0.440000	33.440000	66.070000	0.000000	0.000000	153.000000	54.000000	22.000000	18.000000
0.450000	33.380000	66.270000	0.000000	0.000000	153.000000	55.000000	-6.000000	20.000000
0.460000	33.470000	66.500000	0.000000	0.000000	153.000000	55.000000	9.000000	23.000000
0.470000	33.660000	66.710000	0.000000	0.000000	154.000000	55.000000	19.000000	21.000000
0.480000	33.790000	66.890000	0.000000	0.000000	153.000000	56.000000	13.000000	18.000000
0.490000	33.670000	67.030000	0.000000	0.000000	153.000000	56.000000	-12.000000	14.000000
0.500000	33.370000	67.140000	0.000000	0.000000	152.000000	57.000000	-30.000000	11.000000
0.510000	33.240000	67.140000	0.000000	0.000000	152.000000	57.000000	-13.000000	0.000000
0.520000	33.080000	67.020000	0.000000	0.000000	151.000000	58.000000	-16.000000	-12.000000
0.530000	33.080000	67.020000	544.000000	1.000000	150.000000	58.000000	0.000000	0.000000
0.540000	32.570000	66.470000	707.000000	0.000000	149.000000	58.000000	-51.000000	-55.000000
0.550000	32.260000	65.850000	887.000000	0.000000	147.000000	59.000000	-31.000000	-62.000000
0.560000	31.850000	65.020000	974.000000	0.000000	147.000000	59.000000	-41.000000	-83.000000
0.570000	31.360000	63.640000	1023.000000	0.000000	146.000000	60.000000	-49.000000	-138.000000
0.580000	30.650000	61.940000	1023.000000	0.000000	146.000000	60.000000	-71.000000	-170.000000
0.590000	29.970000	60.020000	1023.000000	0.000000	146.000000	60.000000	-68.000000	-192.000000
0.600000	29.320000	58.590000	1023.000000	0.000000	145.000000	60.000000	-65.000000	-143.000000
0.610000	29.150000	57.850000	1023.000000	0.000000	144.000000	61.000000	-17.000000	-74.000000
0.620000	29.150000	57.570000	1023.000000	0.000000	144.000000	61.000000	0.000000	-28.000000
0.630000	29.210000	57.650000	1023.000000	0.000000	143.000000	62.000000	6.000000	8.000000
0.640000	29.400000	58.250000	1023.000000	0.000000	143.000000	62.000000	19.000000	60.000000
0.650000	29.840000	59.200000	1023.000000	0.000000	141.000000	63.000000	44.000000	95.000000
0.660000	30.440000	60.620000	1023.000000	0.000000	141.000000	63.000000	60.000000	142.000000
0.670000	31.090000	62.350000	1023.000000	0.000000	141.000000	63.000000	65.000000	173.000000
0.680000	32.000000	64.290000	1023.000000	0.000000	141.000000	63.000000	91.000000	194.000000
0.690000	33.080000	65.970000	1023.000000	0.000000	144.000000	62.000000	108.000000	168.000000
0.700000	33.950000	66.970000	1023.000000	0.000000	146.000000	62.000000	87.000000	100.000000
0.710000	34.420000	67.530000	1023.000000	0.000000	146.000000	62.000000	47.000000	56.000000
0.720000	34.610000	67.640000	1023.000000	0.000000	148.000000	61.000000	19.000000	11.000000
0.730000	34.610000	67.450000	1023.000000	0.000000	148.000000	61.000000	0.000000	-19.000000
0.740000	34.390000	67.060000	1023.000000	0.000000	148.000000	61.000000	-22.000000	-39.000000
0.750000	34.080000	66.160000	1023.000000	0.000000	148.000000	61.000000	-31.000000	-90.000000
0.760000	33.440000	65.050000	1023.000000	0.000000	150.000000	62.000000	-64.000000	-111.000000
0.770000	32.860000	63.810000	1023.000000	0.000000	150.000000	62.000000	-58.000000	-124.000000
0.780000	32.330000	62.680000	1023.000000	0.000000	150.000000	62.000000	-53.000000	-113.000000
0.790000	32.080000	62.060000	1023.000000	0.000000	150.000000	62.000000	-25.000000	-62.000000
0.800000	32.080000	61.780000	1023.000000	0.000000	150.000000	62.000000	0.000000	-28.000000
0.810000	32.240000	61.780000	1023.000000	0.000000	148.000000	61.000000	16.000000	0.000000
0.820000	32.630000	62.220000	1023.000000	0.000000	148.000000	61.000000	39.000000	44.000000
0.830000	33.560000	62.870000	1023.000000	0.000000	148.000000	61.000000	93.000000	65.000000
0.840000	34.840000	63.850000	1023.000000	0.000000	150.000000	60.000000	128.000000	98.000000
0.850000	35.930000	64.920000	1023.000000	0.000000	150.000000	60.000000	109.000000	107.000000
0.860000	36.900000	66.060000	1023.000000	0.000000	150.000000	60.000000	97.000000	114.000000
0.870000	37.800000	66.850000	1023.000000	0.000000	150.000000	60.000000	90.000000	79.000000
0.880000	38.320000	67.310000	1023.000000	0.000000	150.000000	60.000000	52.000000	46.000000
0.890000	38.580000	67.560000	1023.000000	0.000000	150.000000	60.000000	26.000000	25.000000
0.900000	38.670000	67.730000	1023.000000	0.000000	150.000000	60.000000	9.000000	17.000000
0.910000	38.670000	67.730000	1023.000000	0.000000	148.000000	60.000000	0.000000	0.000000
0.920000	38.670000	67.730000	1023.000000	0.000000	148.000000	60.000000	0.000000	0.000000
0.930000	38.590000	67.540000	1023.000000	0.000000	146.000000	60.000000	-8.000000	-19.000000
0.940000	38.350000	66.940000	1023.000000	0.000000	146.000000	60.000000	-24.000000	-60.000000
0.950000	37.930000	66.050000	1023.000000	0.000000	146.000000	60.000000	-42.000000	-89.000000
0.960000	37.400000	65.120000	1023.000000	0.000000	146.000000	60.000000	-53.000000	-93.000000
0.970000	36.720000	64.170000	1023.000000	0.000000	146.000000	60.000000	-68.000000	-95.000000
0.980000	36.600000	63.640000	1023.000000	0.000000	148.000000	60.000000	-12.000000	-53.000000
0.990000	36.840000	63.400000	1023.000000	0.000000	148.000000	60.000000	24.000000	-24.000000
1.000000	37.040000	63.260000	1023.000000	0.000000	150.000000	60.000000	20.000000	-14.000000
1.010000	37.310000	63.380000	1023.000000	0.000000	151.000000	61.000000	27.000000	12.000000
1.020000	38.050000	63.670000	1023.000000	0.000000	151.000000	61.000000	74.000000	29.000000
1.030000	39.080000	64.430000	1023.000000	0.000000	151.000000	61.000000	103.000000	76.000000
1.040000	40.050000	65.170000	1023.000000	0.000000	152.000000	60.000000	97.000000	74.000000
1.050000	40.870000	65.910000	1023.000000	0.000000	151.000000	61.000000	82.000000	74.000000
1.060000	41.580000	66.250000	1023.000000	0.000000	150.000000	60.000000	71.000000	34.000000
1.070000	41.740000	66.350000	1023.000000	0.000000	150.000000	60.000000	16.000000	10.000000
1.080000	41.740000	66.290000	1023.000000	0.000000	150.000000	60.000000	0.000000	-6.000000
1.090000	41.610000	66.180000	1023.000000	0.000000	148.000000	60.000000	-13.000000	-11.000000
1.100000	41.330000	65.770000	1023.000000	0.000000	150.000000	60.000000	-28.000000	-41.000000
1.110000	40.820000	65.150000	1023.000000	0.000000	150.000000	60.000000	-51.000000	-62.000000
1.120000	40.150000	64.280000	1023.000000	0.000000	150.000000	60.000000	-67.000000	-87.000000
1.130000	39.380000	63.490000	1023.000000	0.000000	150.000000	60.000000	-77.000000	-79.000000
1.140000	38.990000	62.760000	1023.000000	0.000000	150.000000	60.000000	-39.000000	-73.000000
1.150000	38.850000	62.290000	1023.000000	0.000000	150.000000	60.000000	-14.000000	-47.000000
1.160000	38.850000	62.070000	1023.000000	0.000000	150.000000	60.000000	0.000000	-22.000000
1.170000	38.850000	62.010000	1023.000000	0.000000	150.000000	60.000000	0.000000	-6.000000
1.180000	38.910000	62.070000	1023.000000	0.000000	150.000000	60.000000	6.000000	6.000000
1.190000	38.970000	62.240000	699.000000	0.000000	150.000000	60.000000	6.000000	17.000000
1.200000	38.970000	62.240000	0.000000	1.000000	151.000000	61.000000	0.000000	0.000000
1.210000	38.880000	62.690000	0.000000	0.000000	151.000000	61.000000	-9.000000	45.000000
1.220000	38.400000	62.900000	0.000000	0.000000	151.000000	61.000000	-48.000000	21.000000
1.230000	37.810000	63.120000	0.000000	0.000000	152.000000	60.000000	-59.000000	22.000000
1.240000	37.140000	63.120000	0.000000	0.000000	154.000000	60.000000	-67.000000	0.000000
1.250000	36.190000	63.030000	0.000000	0.000000	154.000000	60.000000	-95.000000	-9.000000
1.260000	34.930000	62.750000	0.000000	0.000000	156.000000	61.000000	-126.000000	-28.000000
1.270000	33.450000	62.340000	0.000000	0.000000	157.000000	60.000000	-148.000000	-41.000000
1.280000	31.580000	61.850000	0.000000	0.000000	157.000000	60.000000	-187.000000	-49.000000
1.290000	29.410000	61.200000	0.000000	0.000000	156.000000	61.000000	-217.000000	-65.000000
1.300000	29.410000	61.200000	794.000000	1.000000	154.000000	60.000000	0.000000	0.000000
1.310000	24.690000	59.820000	794.000000	0.000000	154.000000	60.000000	-472.000000	-138.000000
1.320000	22.790000	59.500000	903.000000	0.000000	153.000000	61.000000	-190.000000	-32.000000
1.330000	21.180000	59.390000	1023.000000	0.000000	151.000000	61.000000	-161.000000	-11.000000
1.340000	20.460000	59.390000	1023.000000	0.000000	150.000000	62.000000	-72.000000	0.000000
1.350000	20.290000	59.390000	1023.000000	0.000000	148.000000	61.000000	-17.000000	0.000000
1.360000	20.480000	59.390000	1023.000000	0.000000	148.000000	61.000000	19.000000	0.000000
1.370000	20.580000	59.450000	1023.000000	0.000000	147.000000	61.000000	10.000000	6.000000
1.380000	20.720000	59.450000	1023.000000	0.000000	147.000000	61.000000	14.000000	0.000000
1.390000	21.170000	59.610000	1023.000000	0.000000	147.000000	61.000000	45.000000	16.000000
1.400000	21.820000	59.800000	1023.000000	0.000000	145.000000	60.000000	65.000000	19.000000
1.410000	23.080000	60.270000	1023.000000	0.000000	145.000000	60.000000	126.000000	47.000000
1.420000	25.410000	61.060000	1023.000000	0.000000	147.000000	61.000000	233.000000	79.000000
1.430000	28.460000	62.060000	1023.000000	0.000000	147.000000	61.000000	305.000000	100.000000
1.440000	32.750000	63.220000	1023.000000	0.000000	150.000000	60.000000	429.000000	116.000000
1.450000	37.460000	64.320000	1023.000000	0.000000	150.000000	60.000000	471.000000	110.000000
1.460000	42.440000	65.380000	1023.000000	0.000000	151.000000	61.000000	498.000000	106.000000
1.470000	46.110000	66.020000	1023.000000	0.000000	154.000000	60.000000	367.000000	64.000000
1.480000	48.300000	66.620000	1023.000000	0.000000	156.000000	61.000000	219.000000	60.000000
1.490000	49.490000	66.860000	1023.000000	0.000000	157.000000	61.000000	119.000000	24.000000
1.500000	49.490000	66.860000	1023.000000	0.000000	159.000000	61.000000	0.000000	0.000000
1.510000	49.120000	66.860000	1023.000000	0.000000	159.000000	61.000000	-37.000000	0.000000
1.520000	48.500000	66.860000	1023.000000	0.000000	161.000000	62.000000	-62.000000	0.000000
1.530000	47.160000	66.540000	1023.000000	0.000000	161.000000	62.000000	-134.000000	-32.000000
1.540000	46.330000	66.120000	1023.000000	0.000000	161.000000	62.000000	-83.000000	-42.000000
1.550000	45.850000	65.880000	244.000000	0.000000	161.000000	62.000000	-48.000000	-24.000000
