t	x	y	pressure	penup	azimuth	inclination	v_x	v_y
0.000000	15.750000	62.250000	39.000000	1.000000	165.000000	49.000000	0.000000	0.000000
0.010000	16.450000	62.540000	103.000000	0.000000	165.000000	49.000000	70.000000	29.000000
0.020000	16.840000	62.750000	190.000000	0.000000	165.000000	49.000000	39.000000	21.000000
0.030000	17.270000	63.000000	314.000000	0.000000	166.000000	49.000000	43.000000	25.000000
0.040000	17.640000	63.290000	417.000000	0.000000	166.000000	49.000000	37.000000	29.000000
0.050000	17.960000	63.540000	472.000000	0.000000	165.000000	50.000000	32.000000	25.000000
0.060000	18.250000	63.770000	522.000000	0.000000	167.000000	50.000000	29.000000	23.000000
0.070000	18.440000	63.950000	586.000000	0.000000	167.000000	50.000000	19.000000	18.000000
0.080000	18.550000	64.030000	634.000000	0.000000	167.000000	50.000000	11.000000	8.000000
0.090000	18.550000	64.030000	653.000000	0.000000	168.000000	50.000000	0.000000	0.000000
0.100000	18.500000	64.030000	655.000000	0.000000	168.000000	50.000000	-5.000000	0.000000
0.110000	18.450000	64.030000	656.000000	0.000000	168.000000	50.000000	-5.000000	0.000000
0.120000	18.010000	63.970000	649.000000	0.000000	169.000000	50.000000	-44.000000	-6.000000
0.130000	17.340000	63.790000	640.000000	0.000000	169.000000	50.000000	-67.000000	-18.000000
0.140000	16.510000	63.530000	634.000000	0.000000	169.000000	50.000000	-83.000000	-26.000000
0.150000	15.670000	63.230000	620.000000	0.000000	169.000000	50.000000	-84.000000	-30.000000
0.160000	14.830000	62.890000	603.000000	0.000000	169.000000	50.000000	-84.000000	-34.000000
0.170000	14.160000	62.510000	585.000000	0.000000	168.000000	50.000000	-67.000000	-38.000000
0.180000	13.600000	62.130000	563.000000	0.000000	167.000000	50.000000	-56.000000	-38.000000
0.190000	13.310000	61.840000	553.000000	0.000000	166.000000	49.000000	-29.000000	-29.000000
0.200000	13.260000	61.590000	542.000000	0.000000	165.000000	49.000000	-5.000000	-25.000000
0.210000	13.360000	61.310000	540.000000	0.000000	163.000000	50.000000	10.000000	-28.000000
0.220000	13.690000	61.020000	542.000000	0.000000	162.000000	50.000000	33.000000	-29.000000
0.230000	14.250000	60.700000	551.000000	0.000000	161.000000	49.000000	56.000000	-32.000000
0.240000	14.970000	60.320000	562.000000	0.000000	160.000000	50.000000	72.000000	-38.000000
0.250000	15.800000	59.870000	575.000000	0.000000	160.000000	50.000000	83.000000	-45.000000
0.260000	16.830000	59.350000	583.000000	0.000000	161.000000	50.000000	103.000000	-52.000000
0.270000	18.000000	58.750000	589.000000	0.000000	162.000000	52.000000	117.000000	-60.000000
0.280000	18.710000	58.170000	599.000000	0.000000	163.000000	52.000000	71.000000	-58.000000
0.290000	18.990000	57.620000	614.000000	0.000000	164.000000	53.000000	28.000000	-55.000000
0.300000	18.990000	57.110000	649.000000	0.000000	164.000000	54.000000	0.000000	-51.000000
0.310000	18.780000	56.650000	679.000000	0.000000	166.000000	54.000000	-21.000000	-46.000000
0.320000	18.250000	56.220000	696.000000	0.000000	167.000000	55.000000	-53.000000	-43.000000
0.330000	17.500000	55.830000	716.000000	0.000000	166.000000	56.000000	-75.000000	-39.000000
0.340000	16.720000	55.610000	717.000000	0.000000	166.000000	57.000000	-78.000000	-22.000000
0.350000	15.980000	55.500000	716.000000	0.000000	166.000000	57.000000	-74.000000	-11.000000
0.360000	15.300000	55.500000	714.000000	0.000000	164.000000	58.000000	-68.000000	0.000000
0.370000	14.850000	55.640000	707.000000	0.000000	164.000000	58.000000	-45.000000	14.000000
0.380000	14.540000	55.820000	703.000000	0.000000	161.000000	59.000000	-31.000000	18.000000
0.390000	14.540000	55.990000	708.000000	0.000000	160.000000	58.000000	0.000000	17.000000
0.400000	14.540000	56.190000	707.000000	0.000000	158.000000	58.000000	0.000000	20.000000
0.410000	14.770000	56.410000	702.000000	0.000000	158.000000	58.000000	23.000000	22.000000
0.420000	15.130000	56.660000	702.000000	0.000000	158.000000	58.000000	36.000000	25.000000
0.430000	15.660000	56.930000	707.000000	0.000000	157.000000	58.000000	53.000000	27.000000
0.440000	16.180000	57.210000	703.000000	0.000000	157.000000	58.000000	52.000000	28.000000
0.450000	16.710000	57.440000	700.000000	0.000000	157.000000	58.000000	53.000000	23.000000
0.460000	16.990000	57.600000	668.000000	0.000000	159.000000	57.000000	28.000000	16.000000
0.470000	17.100000	57.650000	562.000000	0.000000	159.000000	57.000000	11.000000	5.000000
0.480000	17.160000	57.650000	312.000000	0.000000	160.000000	56.000000	6.000000	0.000000
0.490000	17.160000	57.650000	0.000000	1.000000	161.000000	57.000000	0.000000	0.000000
0.500000	17.040000	57.520000	0.000000	0.000000	161.000000	57.000000	-12.000000	-13.000000
0.510000	16.820000	57.520000	0.000000	0.000000	162.000000	56.000000	-22.000000	0.000000
0.520000	16.590000	57.470000	0.000000	0.000000	162.000000	56.000000	-23.000000	-5.000000
0.530000	16.340000	57.470000	0.000000	0.000000	162.000000	56.000000	-25.000000	0.000000
0.540000	16.240000	57.470000	0.000000	0.000000	162.000000	56.000000	-10.000000	0.000000
0.550000	16.170000	57.470000	0.000000	0.000000	162.000000	56.000000	-7.000000	0.000000
0.560000	16.360000	57.520000	0.000000	0.000000	162.000000	56.000000	19.000000	5.000000
0.570000	16.700000	57.600000	0.000000	0.000000	163.000000	55.000000	34.000000	8.000000
0.580000	17.250000	57.720000	0.000000	0.000000	163.000000	55.000000	55.000000	12.000000
0.590000	17.780000	57.830000	0.000000	0.000000	163.000000	55.000000	53.000000	11.000000
0.600000	18.290000	57.930000	0.000000	0.000000	163.000000	54.000000	51.000000	10.000000
0.610000	18.750000	58.020000	0.000000	0.000000	163.000000	54.000000	46.000000	9.000000
0.620000	19.100000	58.120000	0.000000	0.000000	163.000000	54.000000	35.000000	10.000000
0.630000	19.380000	58.200000	0.000000	0.000000	164.000000	53.000000	28.000000	8.000000
0.640000	19.550000	58.250000	0.000000	0.000000	164.000000	53.000000	17.000000	5.000000
0.650000	19.620000	58.250000	0.000000	0.000000	164.000000	53.000000	7.000000	0.000000
0.660000	19.620000	58.250000	0.000000	0.000000	164.000000	53.000000	0.000000	0.000000
0.670000	19.620000	58.170000	0.000000	0.000000	164.000000	53.000000	0.000000	-8.000000
0.680000	19.570000	58.170000	0.000000	0.000000	164.000000	52.000000	-5.000000	0.000000
0.690000	19.520000	58.110000	0.000000	0.000000	164.000000	52.000000	-5.000000	-6.000000
0.700000	19.580000	58.110000	0.000000	0.000000	164.000000	52.000000	6.000000	0.000000
0.710000	19.480000	58.110000	0.000000	0.000000	164.000000	52.000000	-10.000000	0.000000
0.720000	19.430000	58.040000	0.000000	0.000000	164.000000	51.000000	-5.000000	-7.000000
0.730000	19.430000	57.830000	0.000000	0.000000	164.000000	51.000000	0.000000	-21.000000
0.740000	19.660000	57.530000	0.000000	0.000000	164.000000	51.000000	23.000000	-30.000000
0.750000	19.870000	57.080000	0.000000	0.000000	164.000000	51.000000	21.000000	-45.000000
0.760000	20.130000	56.620000	0.000000	0.000000	164.000000	51.000000	26.000000	-46.000000
0.770000	20.130000	56.620000	794.000000	1.000000	163.000000	52.000000	0.000000	0.000000
0.780000	20.440000	56.020000	982.000000	0.000000	162.000000	53.000000	31.000000	-60.000000
0.790000	20.510000	56.120000	1023.000000	0.000000	162.000000	54.000000	7.000000	10.000000
0.800000	20.510000	56.120000	1023.000000	0.000000	160.000000	55.000000	0.000000	0.000000
0.810000	20.510000	56.120000	1023.000000	0.000000	160.000000	56.000000	0.000000	0.000000
0.820000	20.510000	56.120000	1023.000000	0.000000	159.000000	57.000000	0.000000	0.000000
0.830000	20.510000	56.120000	1023.000000	0.000000	158.000000	58.000000	0.000000	0.000000
0.840000	20.510000	56.120000	1023.000000	0.000000	157.000000	59.000000	0.000000	0.000000
0.850000	20.510000	56.120000	1023.000000	0.000000	157.000000	59.000000	0.000000	0.000000
0.860000	20.510000	56.120000	1023.000000	0.000000	157.000000	59.000000	0.000000	0.000000
0.870000	20.510000	56.120000	595.000000	0.000000	157.000000	59.000000	0.000000	0.000000
0.880000	20.510000	56.120000	0.000000	1.000000	159.000000	59.000000	0.000000	0.000000
0.890000	20.510000	56.120000	0.000000	0.000000	159.000000	59.000000	0.000000	0.000000
0.900000	20.250000	56.320000	0.000000	0.000000	161.000000	60.000000	-26.000000	20.000000
0.910000	19.750000	56.650000	0.000000	0.000000	161.000000	60.000000	-50.000000	33.000000
0.920000	19.160000	57.060000	0.000000	0.000000	161.000000	59.000000	-59.000000	41.000000
0.930000	18.590000	57.440000	0.000000	0.000000	162.000000	58.000000	-57.000000	38.000000
0.940000	18.070000	57.800000	0.000000	0.000000	163.000000	57.000000	-52.000000	36.000000
0.950000	17.910000	58.250000	0.000000	0.000000	165.000000	55.000000	-16.000000	45.000000
0.960000	17.990000	58.690000	0.000000	0.000000	166.000000	52.000000	8.000000	44.000000
0.970000	18.180000	59.090000	0.000000	0.000000	167.000000	50.000000	19.000000	40.000000
0.980000	18.680000	59.420000	0.000000	0.000000	167.000000	47.000000	50.000000	33.000000
0.990000	19.380000	59.560000	0.000000	0.000000	166.000000	47.000000	70.000000	14.000000
1.000000	20.200000	59.560000	0.000000	0.000000	165.000000	47.000000	82.000000	0.000000
1.010000	21.020000	59.370000	0.000000	0.000000	164.000000	48.000000	82.000000	-19.000000
1.020000	21.600000	59.130000	0.000000	0.000000	162.000000	51.000000	58.000000	-24.000000
1.030000	22.010000	59.000000	0.000000	0.000000	163.000000	52.000000	41.000000	-13.000000
1.040000	22.150000	59.000000	0.000000	0.000000	162.000000	56.000000	14.000000	0.000000
1.050000	22.150000	59.070000	0.000000	0.000000	161.000000	59.000000	0.000000	7.000000
1.060000	22.150000	58.980000	0.000000	0.000000	163.000000	61.000000	0.000000	-9.000000
1.070000	22.280000	58.750000	0.000000	0.000000	165.000000	62.000000	13.000000	-23.000000
1.080000	22.500000	58.410000	0.000000	0.000000	167.000000	61.000000	22.000000	-34.000000
1.090000	22.760000	58.110000	0.000000	0.000000	168.000000	59.000000	26.000000	-30.000000
1.100000	22.760000	57.830000	0.000000	0.000000	169.000000	58.000000	0.000000	-28.000000
1.110000	22.700000	57.560000	0.000000	0.000000	169.000000	57.000000	-6.000000	-27.000000
1.120000	22.580000	57.280000	0.000000	0.000000	170.000000	56.000000	-12.000000	-28.000000
1.130000	22.520000	57.110000	0.000000	0.000000	170.000000	55.000000	-6.000000	-17.000000
1.140000	22.410000	57.030000	0.000000	0.000000	170.000000	55.000000	-11.000000	-8.000000
1.150000	22.260000	56.960000	0.000000	0.000000	168.000000	55.000000	-15.000000	-7.000000
1.160000	22.040000	56.870000	0.000000	0.000000	168.000000	56.000000	-22.000000	-9.000000
1.170000	21.840000	56.740000	0.000000	0.000000	168.000000	56.000000	-20.000000	-13.000000
1.180000	21.650000	56.570000	0.000000	0.000000	166.000000	56.000000	-19.000000	-17.000000
1.190000	21.470000	56.370000	0.000000	0.000000	166.000000	56.000000	-18.000000	-20.000000
1.200000	21.280000	56.090000	0.000000	0.000000	167.000000	55.000000	-19.000000	-28.000000
1.210000	21.160000	55.850000	0.000000	0.000000	167.000000	55.000000	-12.000000	-24.000000
1.220000	21.090000	55.650000	0.000000	0.000000	167.000000	55.000000	-7.000000	-20.000000
1.230000	21.090000	55.550000	0.000000	0.000000	167.000000	55.000000	0.000000	-10.000000
1.240000	21.090000	55.550000	0.000000	0.000000	166.000000	56.000000	0.000000	0.000000
1.250000	21.150000	55.550000	0.000000	0.000000	166.000000	56.000000	6.000000	0.000000
1.260000	21.150000	55.550000	0.000000	0.000000	166.000000	56.000000	0.000000	0.000000
1.270000	21.220000	55.550000	0.000000	0.000000	166.000000	56.000000	7.000000	0.000000
1.280000	21.220000	55.550000	0.000000	0.000000	166.000000	56.000000	0.000000	0.000000
1.290000	21.220000	55.460000	0.000000	0.000000	166.000000	56.000000	0.000000	-9.000000
1.300000	21.220000	55.460000	0.000000	0.000000	166.000000	56.000000	0.000000	0.000000
1.310000	21.220000	55.400000	0.000000	0.000000	166.000000	57.000000	0.000000	-6.000000
1.320000	21.220000	55.400000	0.000000	0.000000	164.000000	57.000000	0.000000	0.000000
1.330000	21.220000	55.400000	0.000000	0.000000	164.000000	57.000000	0.000000	0.000000
1.340000	21.220000	55.490000	0.000000	0.000000	164.000000	57.000000	0.000000	9.000000
1.350000	21.330000	55.560000	0.000000	0.000000	164.000000	57.000000	11.000000	7.000000
1.360000	21.430000	55.560000	0.000000	0.000000	164.000000	57.000000	10.000000	0.000000
1.370000	21.530000	55.560000	0.000000	0.000000	164.000000	57.000000	10.000000	0.000000
1.380000	21.620000	55.560000	0.000000	0.000000	164.000000	57.000000	9.000000	0.000000
1.390000	21.620000	55.560000	0.000000	0.000000	164.000000	58.000000	0.000000	0.000000
1.400000	21.570000	55.640000	0.000000	0.000000	164.000000	58.000000	-5.000000	8.000000
1.410000	21.480000	55.640000	0.000000	0.000000	162.000000	58.000000	-9.000000	0.000000
1.420000	21.320000	55.640000	0.000000	0.000000	162.000000	58.000000	-16.000000	0.000000
1.430000	21.190000	55.640000	0.000000	0.000000	162.000000	58.000000	-13.000000	0.000000
1.440000	21.070000	55.760000	0.000000	0.000000	162.000000	58.000000	-12.000000	12.000000
1.450000	20.950000	55.880000	0.000000	0.000000	164.000000	58.000000	-12.000000	12.000000
1.460000	20.860000	56.020000	0.000000	0.000000	164.000000	58.000000	-9.000000	14.000000
1.470000	20.860000	56.160000	0.000000	0.000000	164.000000	58.000000	0.000000	14.000000
1.480000	20.860000	56.290000	0.000000	0.000000	164.000000	58.000000	0.000000	13.000000
1.490000	20.790000	56.460000	0.000000	0.000000	164.000000	58.000000	-7.000000	17.000000
1.500000	20.670000	56.650000	0.000000	0.000000	164.000000	57.000000	-12.000000	19.000000
1.510000	20.520000	56.950000	0.000000	0.000000	164.000000	57.000000	-15.000000	30.000000
1.520000	20.440000	57.290000	0.000000	0.000000	164.000000	57.000000	-8.000000	34.000000
1.530000	20.350000	57.650000	0.000000	0.000000	164.000000	57.000000	-9.000000	36.000000
1.540000	20.240000	58.070000	0.000000	0.000000	164.000000	57.000000	-11.000000	42.000000
1.550000	20.110000	58.610000	0.000000	0.000000	164.000000	57.000000	-13.000000	54.000000
1.560000	20.010000	59.240000	0.000000	0.000000	164.000000	57.000000	-10.000000	63.000000
1.570000	19.900000	59.870000	0.000000	0.000000	164.000000	57.000000	-11.000000	63.000000
1.580000	19.730000	60.300000	0.000000	0.000000	163.000000	57.000000	-17.000000	43.000000
1.590000	19.520000	60.600000	0.000000	0.000000	164.000000	57.000000	-21.000000	30.000000
1.600000	19.520000	60.600000	242.000000	1.000000	164.000000	57.000000	0.000000	0.000000
1.610000	19.160000	61.330000	449.000000	0.000000	164.000000	57.000000	-36.000000	73.000000
1.620000	19.040000	61.330000	529.000000	0.000000	164.000000	57.000000	-12.000000	0.000000
1.630000	19.040000	61.330000	614.000000	0.000000	165.000000	56.000000	0.000000	0.000000
1.640000	19.040000	61.210000	663.000000	0.000000	163.000000	56.000000	0.000000	-12.000000
1.650000	19.040000	60.970000	728.000000	0.000000	163.000000	56.000000	0.000000	-24.000000
1.660000	19.140000	60.450000	752.000000	0.000000	164.000000	55.000000	10.000000	-52.000000
1.670000	19.290000	59.690000	759.000000	0.000000	164.000000	55.000000	15.000000	-76.000000
1.680000	19.610000	58.760000	770.000000	0.000000	163.000000	56.000000	32.000000	-93.000000
1.690000	20.030000	57.650000	768.000000	0.000000	163.000000	56.000000	42.000000	-111.000000
1.700000	20.500000	56.490000	753.000000	0.000000	161.000000	57.000000	47.000000	-116.000000
1.710000	20.970000	55.210000	751.000000	0.000000	161.000000	57.000000	47.000000	-128.000000
1.720000	21.420000	54.010000	754.000000	0.000000	160.000000	58.000000	45.000000	-120.000000
1.730000	21.580000	52.870000	751.000000	0.000000	159.000000	59.000000	16.000000	-114.000000
1.740000	21.580000	52.160000	754.000000	0.000000	158.000000	60.000000	0.000000	-71.000000
1.750000	21.490000	51.750000	755.000000	0.000000	158.000000	60.000000	-9.000000	-41.000000
1.760000	21.360000	51.540000	756.000000	0.000000	157.000000	61.000000	-13.000000	-21.000000
1.770000	21.180000	51.540000	750.000000	0.000000	157.000000	61.000000	-18.000000	0.000000
1.780000	20.850000	51.740000	737.000000	0.000000	156.000000	62.000000	-33.000000	20.000000
1.790000	20.510000	52.050000	730.000000	0.000000	156.000000	62.000000	-34.000000	31.000000
1.800000	20.170000	52.540000	688.000000	0.000000	156.000000	62.000000	-34.000000	49.000000
1.810000	20.010000	53.290000	659.000000	0.000000	156.000000	62.000000	-16.000000	75.000000
1.820000	20.010000	54.220000	652.000000	0.000000	155.000000	62.000000	0.000000	93.000000
1.830000	20.060000	55.030000	671.000000	0.000000	155.000000	62.000000	5.000000	81.000000
1.840000	20.340000	55.570000	682.000000	0.000000	155.000000	62.000000	28.000000	54.000000
1.850000	20.670000	55.930000	703.000000	0.000000	155.000000	62.000000	33.000000	36.000000
1.860000	21.110000	56.240000	713.000000	0.000000	156.000000	61.000000	44.000000	31.000000
1.870000	21.600000	56.550000	710.000000	0.000000	157.000000	61.000000	49.000000	31.000000
1.880000	22.130000	56.860000	710.000000	0.000000	157.000000	61.000000	53.000000	31.000000
1.890000	22.540000	57.170000	697.000000	0.000000	157.000000	61.000000	41.000000	31.000000
1.900000	22.860000	57.520000	696.000000	0.000000	159.000000	61.000000	32.000000	35.000000
1.910000	23.040000	57.920000	693.000000	0.000000	159.000000	61.000000	18.000000	40.000000
1.920000	23.110000	58.350000	697.000000	0.000000	162.000000	61.000000	7.000000	43.000000
1.930000	23.110000	58.870000	685.000000	0.000000	162.000000	61.000000	0.000000	52.000000
1.940000	23.110000	59.330000	682.000000	0.000000	162.000000	60.000000	0.000000	46.000000
1.950000	23.110000	59.520000	673.000000	0.000000	165.000000	59.000000	0.000000	19.000000
1.960000	23.110000	59.520000	664.000000	0.000000	165.000000	58.000000	0.000000	0.000000
1.970000	23.110000	59.290000	666.000000	0.000000	167.000000	58.000000	0.000000	-23.000000
1.980000	23.110000	58.720000	675.000000	0.000000	167.000000	57.000000	0.000000	-57.000000
1.990000	23.180000	57.950000	678.000000	0.000000	167.000000	57.000000	7.000000	-77.000000
2.000000	23.270000	57.250000	682.000000	0.000000	167.000000	58.000000	9.000000	-70.000000
2.010000	23.430000	56.640000	682.000000	0.000000	167.000000	58.000000	16.000000	-61.000000
2.020000	23.550000	56.080000	682.000000	0.000000	167.000000	58.000000	12.000000	-56.000000
2.030000	23.630000	55.720000	682.000000	0.000000	166.000000	59.000000	8.000000	-36.000000
2.040000	23.770000	55.520000	694.000000	0.000000	166.000000	60.000000	14.000000	-20.000000
2.050000	23.920000	55.430000	710.000000	0.000000	166.000000	60.000000	15.000000	-9.000000
2.060000	24.080000	55.430000	725.000000	0.000000	165.000000	61.000000	16.000000	0.000000
2.070000	24.260000	55.670000	733.000000	0.000000	163.000000	61.000000	18.000000	24.000000
2.080000	24.580000	56.020000	721.000000	0.000000	165.000000	61.000000	32.000000	35.000000
2.090000	24.990000	56.570000	703.000000	0.000000	165.000000	61.000000	41.000000	55.000000
2.100000	25.260000	57.270000	685.000000	0.000000	165.000000	61.000000	27.000000	70.000000
2.110000	25.470000	58.070000	670.000000	0.000000	167.000000	61.000000	21.000000	80.000000
2.120000	25.640000	58.920000	664.000000	0.000000	168.000000	60.000000	17.000000	85.000000
2.130000	25.720000	59.760000	643.000000	0.000000	168.000000	60.000000	8.000000	84.000000
2.140000	25.720000	60.590000	653.000000	0.000000	168.000000	59.000000	0.000000	83.000000
2.150000	25.720000	60.960000	661.000000	0.000000	168.000000	58.000000	0.000000	37.000000
2.160000	25.720000	61.170000	661.000000	0.000000	169.000000	58.000000	0.000000	21.000000
2.170000	25.720000	61.280000	662.000000	0.000000	169.000000	57.000000	0.000000	11.000000
2.180000	25.720000	61.350000	668.000000	0.000000	170.000000	56.000000	0.000000	7.000000
2.190000	25.720000	61.430000	668.000000	0.000000	170.000000	55.000000	0.000000	8.000000
2.200000	25.720000	61.490000	668.000000	0.000000	170.000000	55.000000	0.000000	6.000000
2.210000	25.720000	61.490000	667.000000	0.000000	171.000000	55.000000	0.000000	0.000000
2.220000	25.720000	61.490000	664.000000	0.000000	172.000000	54.000000	0.000000	0.000000
