t	x	y	pressure	penup	azimuth	inclination	v_x	v_y
0.000000	19.840000	54.440000	374.000000	1.000000	147.000000	62.000000	0.000000	0.000000
0.010000	20.320000	55.320000	519.000000	0.000000	147.000000	62.000000	48.000000	88.000000
0.020000	20.020000	55.730000	721.000000	0.000000	149.000000	63.000000	-30.000000	41.000000
0.030000	19.530000	56.010000	840.000000	0.000000	148.000000	63.000000	-49.000000	28.000000
0.040000	18.900000	56.210000	930.000000	0.000000	150.000000	64.000000	-63.000000	20.000000
0.050000	17.940000	56.160000	979.000000	0.000000	150.000000	64.000000	-96.000000	-5.000000
0.060000	16.810000	55.940000	1023.000000	0.000000	150.000000	64.000000	-113.000000	-22.000000
0.070000	15.560000	55.460000	1023.000000	0.000000	150.000000	64.000000	-125.000000	-48.000000
0.080000	14.390000	54.930000	1023.000000	0.000000	150.000000	64.000000	-117.000000	-53.000000
0.090000	13.470000	54.270000	1023.000000	0.000000	148.000000	63.000000	-92.000000	-66.000000
0.100000	12.710000	53.550000	1023.000000	0.000000	148.000000	63.000000	-76.000000	-72.000000
0.110000	12.350000	53.060000	1023.000000	0.000000	146.000000	63.000000	-36.000000	-49.000000
0.120000	12.350000	52.830000	1023.000000	0.000000	146.000000	62.000000	0.000000	-23.000000
0.130000	12.550000	52.770000	1023.000000	0.000000	146.000000	62.000000	20.000000	-6.000000
0.140000	13.380000	52.770000	1023.000000	0.000000	146.000000	62.000000	83.000000	0.000000
0.150000	14.760000	52.860000	1023.000000	0.000000	145.000000	60.000000	138.000000	9.000000
0.160000	16.510000	53.030000	1023.000000	0.000000	145.000000	60.000000	175.000000	17.000000
0.170000	17.670000	52.850000	1023.000000	0.000000	145.000000	60.000000	116.000000	-18.000000
0.180000	18.190000	52.480000	1023.000000	0.000000	147.000000	61.000000	52.000000	-37.000000
0.190000	18.270000	51.980000	1023.000000	0.000000	147.000000	61.000000	8.000000	-50.000000
0.200000	17.940000	51.320000	1023.000000	0.000000	148.000000	60.000000	-33.000000	-66.000000
0.210000	17.180000	50.750000	1023.000000	0.000000	150.000000	60.000000	-76.000000	-57.000000
0.220000	16.120000	50.230000	1023.000000	0.000000	148.000000	61.000000	-106.000000	-52.000000
0.230000	15.070000	49.890000	1023.000000	0.000000	148.000000	61.000000	-105.000000	-34.000000
0.240000	14.170000	49.770000	1023.000000	0.000000	148.000000	61.000000	-90.000000	-12.000000
0.250000	13.380000	49.770000	1023.000000	0.000000	148.000000	61.000000	-79.000000	0.000000
0.260000	12.860000	49.960000	1023.000000	0.000000	148.000000	61.000000	-52.000000	19.000000
0.270000	12.550000	50.230000	1023.000000	0.000000	146.000000	62.000000	-31.000000	27.000000
0.280000	12.380000	50.570000	1023.000000	0.000000	146.000000	62.000000	-17.000000	34.000000
0.290000	12.470000	50.930000	934.000000	0.000000	144.000000	61.000000	9.000000	36.000000
0.300000	12.870000	51.200000	529.000000	0.000000	144.000000	61.000000	40.000000	27.000000
0.310000	12.870000	51.200000	0.000000	1.000000	144.000000	61.000000	0.000000	0.000000
0.320000	14.010000	51.410000	0.000000	0.000000	142.000000	61.000000	114.000000	21.000000
0.330000	14.440000	51.490000	0.000000	0.000000	142.000000	61.000000	43.000000	8.000000
0.340000	14.790000	51.540000	0.000000	0.000000	144.000000	61.000000	35.000000	5.000000
0.350000	15.440000	51.360000	0.000000	0.000000	144.000000	61.000000	65.000000	-18.000000
0.360000	16.200000	51.500000	0.000000	0.000000	144.000000	61.000000	76.000000	14.000000
0.370000	17.040000	51.860000	0.000000	0.000000	144.000000	61.000000	84.000000	36.000000
0.380000	17.620000	51.860000	0.000000	0.000000	144.000000	61.000000	58.000000	0.000000
0.390000	18.060000	51.740000	0.000000	0.000000	144.000000	61.000000	44.000000	-12.000000
0.400000	18.410000	51.650000	0.000000	0.000000	145.000000	60.000000	35.000000	-9.000000
0.410000	18.670000	51.570000	0.000000	0.000000	144.000000	60.000000	26.000000	-8.000000
0.420000	18.930000	51.570000	0.000000	0.000000	144.000000	60.000000	26.000000	0.000000
0.430000	19.200000	51.640000	0.000000	0.000000	144.000000	60.000000	27.000000	7.000000
0.440000	19.530000	51.710000	0.000000	0.000000	142.000000	59.000000	33.000000	7.000000
0.450000	19.860000	51.810000	0.000000	0.000000	144.000000	60.000000	33.000000	10.000000
0.460000	20.070000	51.730000	0.000000	0.000000	142.000000	61.000000	21.000000	-8.000000
0.470000	20.190000	51.610000	0.000000	0.000000	142.000000	61.000000	12.000000	-12.000000
0.480000	20.190000	51.610000	733.000000	1.000000	144.000000	61.000000	0.000000	0.000000
0.490000	20.110000	51.290000	948.000000	0.000000	144.000000	61.000000	-8.000000	-32.000000
0.500000	19.910000	51.290000	1023.000000	0.000000	147.000000	61.000000	-20.000000	0.000000
0.510000	19.910000	51.290000	1023.000000	0.000000	147.000000	61.000000	0.000000	0.000000
0.520000	19.910000	51.290000	1023.000000	0.000000	147.000000	62.000000	0.000000	0.000000
0.530000	19.910000	51.290000	1023.000000	0.000000	147.000000	62.000000	0.000000	0.000000
0.540000	19.910000	51.290000	1023.000000	0.000000	147.000000	62.000000	0.000000	0.000000
0.550000	19.960000	51.290000	1023.000000	0.000000	147.000000	62.000000	5.000000	0.000000
0.560000	19.960000	51.350000	1023.000000	0.000000	147.000000	62.000000	0.000000	6.000000
0.570000	19.960000	51.350000	1023.000000	0.000000	147.000000	62.000000	0.000000	0.000000
0.580000	19.960000	51.410000	1023.000000	0.000000	147.000000	62.000000	0.000000	6.000000
0.590000	19.960000	51.410000	1023.000000	0.000000	147.000000	62.000000	0.000000	0.000000
0.600000	19.960000	51.410000	1023.000000	0.000000	147.000000	62.000000	0.000000	0.000000
0.610000	19.960000	51.410000	614.000000	0.000000	146.000000	62.000000	0.000000	0.000000
0.620000	19.960000	51.410000	0.000000	1.000000	146.000000	62.000000	0.000000	0.000000
0.630000	20.210000	51.610000	0.000000	0.000000	146.000000	62.000000	25.000000	20.000000
0.640000	20.520000	51.960000	0.000000	0.000000	146.000000	62.000000	31.000000	35.000000
0.650000	20.860000	52.490000	0.000000	0.000000	146.000000	62.000000	34.000000	53.000000
0.660000	21.250000	53.140000	0.000000	0.000000	146.000000	62.000000	39.000000	65.000000
0.670000	21.710000	54.060000	0.000000	0.000000	146.000000	62.000000	46.000000	92.000000
0.680000	22.140000	54.960000	0.000000	0.000000	146.000000	62.000000	43.000000	90.000000
0.690000	22.400000	55.850000	0.000000	0.000000	147.000000	61.000000	26.000000	89.000000
0.700000	22.550000	56.440000	0.000000	0.000000	147.000000	61.000000	15.000000	59.000000
0.710000	22.630000	56.790000	0.000000	0.000000	147.000000	61.000000	8.000000	35.000000
0.720000	22.630000	56.790000	591.000000	1.000000	148.000000	60.000000	0.000000	0.000000
0.730000	22.660000	57.150000	691.000000	0.000000	148.000000	60.000000	3.000000	36.000000
0.740000	22.510000	57.150000	827.000000	0.000000	148.000000	60.000000	-15.000000	0.000000
0.750000	22.510000	57.150000	905.000000	0.000000	148.000000	61.000000	0.000000	0.000000
0.760000	22.510000	56.880000	956.000000	0.000000	148.000000	61.000000	0.000000	-27.000000
0.770000	22.440000	56.200000	1015.000000	0.000000	148.000000	61.000000	-7.000000	-68.000000
0.780000	22.360000	55.230000	1023.000000	0.000000	147.000000	62.000000	-8.000000	-97.000000
0.790000	22.180000	53.910000	1023.000000	0.000000	147.000000	62.000000	-18.000000	-132.000000
0.800000	21.900000	52.460000	1023.000000	0.000000	147.000000	62.000000	-28.000000	-145.000000
0.810000	21.550000	50.920000	1023.000000	0.000000	147.000000	62.000000	-35.000000	-154.000000
0.820000	21.340000	49.770000	1023.000000	0.000000	146.000000	63.000000	-21.000000	-115.000000
0.830000	21.340000	49.140000	1023.000000	0.000000	146.000000	63.000000	0.000000	-63.000000
0.840000	21.480000	48.870000	1023.000000	0.000000	146.000000	63.000000	14.000000	-27.000000
0.850000	21.600000	48.870000	1023.000000	0.000000	143.000000	63.000000	12.000000	0.000000
0.860000	21.770000	49.170000	1023.000000	0.000000	143.000000	63.000000	17.000000	30.000000
0.870000	22.080000	49.720000	1023.000000	0.000000	143.000000	63.000000	31.000000	55.000000
0.880000	22.470000	50.470000	1023.000000	0.000000	143.000000	63.000000	39.000000	75.000000
0.890000	22.670000	51.620000	1023.000000	0.000000	143.000000	63.000000	20.000000	115.000000
0.900000	22.740000	53.040000	1023.000000	0.000000	143.000000	63.000000	7.000000	142.000000
0.910000	22.740000	54.680000	1023.000000	0.000000	143.000000	63.000000	0.000000	164.000000
0.920000	22.650000	55.930000	1023.000000	0.000000	143.000000	63.000000	-9.000000	125.000000
0.930000	22.560000	56.920000	1023.000000	0.000000	143.000000	63.000000	-9.000000	99.000000
0.940000	22.460000	57.410000	1023.000000	0.000000	143.000000	63.000000	-10.000000	49.000000
0.950000	22.460000	57.530000	1023.000000	0.000000	146.000000	63.000000	0.000000	12.000000
0.960000	22.380000	57.410000	1023.000000	0.000000	146.000000	63.000000	-8.000000	-12.000000
0.970000	22.330000	57.410000	1023.000000	0.000000	146.000000	63.000000	-5.000000	0.000000
0.980000	22.220000	57.290000	1023.000000	0.000000	147.000000	62.000000	-11.000000	-12.000000
0.990000	22.040000	56.860000	1023.000000	0.000000	147.000000	62.000000	-18.000000	-43.000000
1.000000	21.820000	56.210000	1023.000000	0.000000	147.000000	62.000000	-22.000000	-65.000000
1.010000	21.870000	55.500000	1023.000000	0.000000	147.000000	62.000000	5.000000	-71.000000
1.020000	21.950000	54.760000	1023.000000	0.000000	147.000000	62.000000	8.000000	-74.000000
1.030000	22.310000	54.240000	1023.000000	0.000000	147.000000	62.000000	36.000000	-52.000000
1.040000	22.850000	53.870000	1023.000000	0.000000	147.000000	62.000000	54.000000	-37.000000
1.050000	23.590000	53.870000	1023.000000	0.000000	146.000000	63.000000	74.000000	0.000000
1.060000	24.440000	54.190000	1023.000000	0.000000	146.000000	63.000000	85.000000	32.000000
1.070000	25.370000	54.680000	1023.000000	0.000000	146.000000	63.000000	93.000000	49.000000
1.080000	26.010000	55.370000	1023.000000	0.000000	146.000000	63.000000	64.000000	69.000000
1.090000	26.410000	56.050000	1023.000000	0.000000	148.000000	63.000000	40.000000	68.000000
1.100000	26.660000	56.710000	1023.000000	0.000000	148.000000	63.000000	25.000000	66.000000
1.110000	26.530000	57.370000	1023.000000	0.000000	148.000000	63.000000	-13.000000	66.000000
1.120000	26.340000	58.040000	1023.000000	0.000000	150.000000	64.000000	-19.000000	67.000000
1.130000	26.100000	58.380000	1023.000000	0.000000	151.000000	63.000000	-24.000000	34.000000
1.140000	25.900000	58.480000	1023.000000	0.000000	151.000000	63.000000	-20.000000	10.000000
1.150000	25.740000	58.430000	1023.000000	0.000000	152.000000	62.000000	-16.000000	-5.000000
1.160000	25.630000	58.290000	1023.000000	0.000000	152.000000	62.000000	-11.000000	-14.000000
1.170000	25.390000	57.730000	1023.000000	0.000000	152.000000	62.000000	-24.000000	-56.000000
1.180000	25.060000	56.880000	1023.000000	0.000000	153.000000	61.000000	-33.000000	-85.000000
1.190000	24.820000	55.850000	1023.000000	0.000000	152.000000	62.000000	-24.000000	-103.000000
1.200000	24.580000	54.350000	1023.000000	0.000000	152.000000	62.000000	-24.000000	-150.000000
1.210000	24.400000	52.530000	1023.000000	0.000000	150.000000	62.000000	-18.000000	-182.000000
1.220000	24.290000	51.100000	1023.000000	0.000000	149.000000	63.000000	-11.000000	-143.000000
1.230000	24.410000	50.010000	1023.000000	0.000000	147.000000	62.000000	12.000000	-109.000000
1.240000	24.670000	49.160000	1023.000000	0.000000	146.000000	63.000000	26.000000	-85.000000
1.250000	24.940000	48.720000	1023.000000	0.000000	146.000000	63.000000	27.000000	-44.000000
1.260000	25.120000	48.600000	987.000000	0.000000	143.000000	63.000000	18.000000	-12.000000
1.270000	25.240000	48.690000	805.000000	0.000000	143.000000	63.000000	12.000000	9.000000
1.280000	25.380000	49.020000	304.000000	0.000000	141.000000	64.000000	14.000000	33.000000
1.290000	25.380000	49.020000	0.000000	1.000000	141.000000	64.000000	0.000000	0.000000
1.300000	25.430000	50.250000	0.000000	0.000000	141.000000	64.000000	5.000000	123.000000
1.310000	25.300000	50.900000	0.000000	0.000000	141.000000	64.000000	-13.000000	65.000000
1.320000	25.300000	51.530000	0.000000	0.000000	141.000000	64.000000	0.000000	63.000000
1.330000	25.380000	52.100000	0.000000	0.000000	141.000000	64.000000	8.000000	57.000000
1.340000	25.570000	52.600000	0.000000	0.000000	141.000000	64.000000	19.000000	50.000000
1.350000	25.760000	53.070000	0.000000	0.000000	143.000000	63.000000	19.000000	47.000000
1.360000	25.930000	53.350000	0.000000	0.000000	146.000000	63.000000	17.000000	28.000000
1.370000	26.080000	53.500000	0.000000	0.000000	146.000000	63.000000	15.000000	15.000000
1.380000	26.230000	53.500000	0.000000	0.000000	146.000000	63.000000	15.000000	0.000000
1.390000	26.340000	53.500000	0.000000	0.000000	149.000000	63.000000	11.000000	0.000000
1.400000	26.420000	53.440000	0.000000	0.000000	149.000000	63.000000	8.000000	-6.000000
1.410000	26.480000	53.360000	0.000000	0.000000	149.000000	63.000000	6.000000	-8.000000
1.420000	26.650000	53.360000	0.000000	0.000000	149.000000	63.000000	17.000000	0.000000
1.430000	26.830000	53.300000	0.000000	0.000000	149.000000	63.000000	18.000000	-6.000000
1.440000	26.830000	53.300000	461.000000	1.000000	149.000000	63.000000	0.000000	0.000000
1.450000	27.290000	53.400000	637.000000	0.000000	149.000000	63.000000	46.000000	10.000000
1.460000	27.450000	53.620000	830.000000	0.000000	147.000000	62.000000	16.000000	22.000000
1.470000	27.580000	53.800000	870.000000	0.000000	144.000000	62.000000	13.000000	18.000000
1.480000	27.580000	53.970000	911.000000	0.000000	143.000000	62.000000	0.000000	17.000000
1.490000	27.580000	54.140000	995.000000	0.000000	143.000000	62.000000	0.000000	17.000000
1.500000	27.580000	54.320000	1023.000000	0.000000	143.000000	62.000000	0.000000	18.000000
1.510000	27.450000	54.320000	1023.000000	0.000000	141.000000	61.000000	-13.000000	0.000000
1.520000	27.230000	54.410000	1023.000000	0.000000	141.000000	61.000000	-22.000000	9.000000
1.530000	26.940000	54.460000	1023.000000	0.000000	141.000000	61.000000	-29.000000	5.000000
1.540000	26.660000	54.390000	1023.000000	0.000000	141.000000	61.000000	-28.000000	-7.000000
1.550000	26.280000	54.140000	1023.000000	0.000000	141.000000	61.000000	-38.000000	-25.000000
1.560000	25.840000	53.780000	1023.000000	0.000000	141.000000	61.000000	-44.000000	-36.000000
1.570000	25.590000	53.250000	1023.000000	0.000000	143.000000	62.000000	-25.000000	-53.000000
1.580000	25.360000	52.770000	1023.000000	0.000000	143.000000	62.000000	-23.000000	-48.000000
1.590000	25.200000	52.330000	1023.000000	0.000000	144.000000	61.000000	-16.000000	-44.000000
1.600000	25.200000	51.970000	1023.000000	0.000000	146.000000	62.000000	0.000000	-36.000000
1.610000	25.340000	51.790000	1023.000000	0.000000	146.000000	62.000000	14.000000	-18.000000
1.620000	25.610000	51.740000	1023.000000	0.000000	147.000000	62.000000	27.000000	-5.000000
1.630000	26.090000	51.830000	1023.000000	0.000000	147.000000	62.000000	48.000000	9.000000
1.640000	26.700000	52.090000	1023.000000	0.000000	147.000000	62.000000	61.000000	26.000000
1.650000	27.250000	52.460000	1023.000000	0.000000	146.000000	62.000000	55.000000	37.000000
1.660000	27.620000	52.850000	1023.000000	0.000000	146.000000	62.000000	37.000000	39.000000
1.670000	27.870000	53.270000	1023.000000	0.000000	144.000000	61.000000	25.000000	42.000000
1.680000	27.960000	53.700000	1023.000000	0.000000	144.000000	61.000000	9.000000	43.000000
1.690000	27.960000	53.820000	1023.000000	0.000000	144.000000	61.000000	0.000000	12.000000
1.700000	27.960000	53.930000	1023.000000	0.000000	142.000000	61.000000	0.000000	11.000000
1.710000	27.890000	54.010000	1023.000000	0.000000	142.000000	61.000000	-7.000000	8.000000
1.720000	27.830000	54.080000	1023.000000	0.000000	142.000000	61.000000	-6.000000	7.000000
1.730000	27.780000	54.080000	1023.000000	0.000000	141.000000	60.000000	-5.000000	0.000000
1.740000	27.710000	54.080000	1023.000000	0.000000	141.000000	60.000000	-7.000000	0.000000
1.750000	27.630000	54.080000	1023.000000	0.000000	141.000000	60.000000	-8.000000	0.000000
1.760000	27.630000	53.810000	1023.000000	0.000000	141.000000	60.000000	0.000000	-27.000000
1.770000	27.570000	53.450000	1023.000000	0.000000	139.000000	60.000000	-6.000000	-36.000000
1.780000	27.570000	53.150000	1023.000000	0.000000	141.000000	60.000000	0.000000	-30.000000
1.790000	27.570000	52.760000	1023.000000	0.000000	141.000000	60.000000	0.000000	-39.000000
1.800000	27.650000	52.470000	1023.000000	0.000000	141.000000	60.000000	8.000000	-29.000000
1.810000	27.760000	52.280000	1023.000000	0.000000	141.000000	60.000000	11.000000	-19.000000
1.820000	27.920000	52.220000	1023.000000	0.000000	139.000000	61.000000	16.000000	-6.000000
1.830000	28.130000	52.270000	1023.000000	0.000000	139.000000	61.000000	21.000000	5.000000
1.840000	28.370000	52.400000	1023.000000	0.000000	139.000000	61.000000	24.000000	13.000000
1.850000	28.680000	52.760000	1023.000000	0.000000	139.000000	61.000000	31.000000	36.000000
1.860000	28.970000	53.110000	1023.000000	0.000000	139.000000	61.000000	29.000000	35.000000
1.870000	29.220000	53.510000	1023.000000	0.000000	141.000000	61.000000	25.000000	40.000000
1.880000	29.430000	53.960000	1023.000000	0.000000	141.000000	61.000000	21.000000	45.000000
1.890000	29.530000	54.280000	1023.000000	0.000000	141.000000	61.000000	10.000000	32.000000
1.900000	29.530000	54.560000	1023.000000	0.000000	141.000000	61.000000	0.000000	28.000000
1.910000	29.530000	54.640000	1023.000000	0.000000	141.000000	61.000000	0.000000	8.000000
1.920000	29.530000	54.640000	1023.000000	0.000000	141.000000	61.000000	0.000000	0.000000
1.930000	29.530000	54.640000	1023.000000	0.000000	143.000000	62.000000	0.000000	0.000000
1.940000	29.530000	54.640000	1023.000000	0.000000	143.000000	62.000000	0.000000	0.000000
1.950000	29.530000	54.640000	1023.000000	0.000000	143.000000	62.000000	0.000000	0.000000
1.960000	29.590000	54.640000	1023.000000	0.000000	143.000000	62.000000	6.000000	0.000000
1.970000	29.780000	54.590000	1023.000000	0.000000	143.000000	62.000000	19.000000	-5.000000
1.980000	30.090000	54.590000	1023.000000	0.000000	143.000000	62.000000	31.000000	0.000000
1.990000	30.330000	54.590000	1005.000000	0.000000	143.000000	62.000000	24.000000	0.000000
2.000000	30.570000	54.590000	991.000000	0.000000	143.000000	62.000000	24.000000	0.000000
2.010000	30.710000	54.660000	996.000000	0.000000	143.000000	62.000000	14.000000	7.000000
2.020000	30.790000	54.710000	1017.000000	0.000000	143.000000	62.000000	8.000000	5.000000
2.030000	30.790000	54.710000	1023.000000	0.000000	143.000000	62.000000	0.000000	0.000000
2.040000	30.790000	54.760000	1023.000000	0.000000	143.000000	62.000000	0.000000	5.000000
2.050000	30.790000	54.760000	1023.000000	0.000000	144.000000	62.000000	0.000000	0.000000
2.060000	30.790000	54.810000	1023.000000	0.000000	144.000000	62.000000	0.000000	5.000000
2.070000	30.620000	54.810000	1023.000000	0.000000	144.000000	62.000000	-17.000000	0.000000
2.080000	30.450000	54.730000	1023.000000	0.000000	144.000000	62.000000	-17.000000	-8.000000
2.090000	30.200000	54.580000	1023.000000	0.000000	144.000000	62.000000	-25.000000	-15.000000
2.100000	30.200000	54.580000	1023.000000	0.000000	144.000000	62.000000	0.000000	0.000000
2.110000	29.780000	54.030000	1023.000000	0.000000	144.000000	62.000000	-42.000000	-55.000000
2.120000	29.590000	53.600000	1023.000000	0.000000	144.000000	62.000000	-19.000000	-43.000000
2.130000	29.440000	53.110000	1023.000000	0.000000	143.000000	62.000000	-15.000000	-49.000000
2.140000	29.350000	52.720000	1023.000000	0.000000	143.000000	62.000000	-9.000000	-39.000000
2.150000	29.350000	52.490000	1023.000000	0.000000	143.000000	62.000000	0.000000	-23.000000
2.160000	29.560000	52.380000	1023.000000	0.000000	143.000000	62.000000	21.000000	-11.000000
2.170000	29.820000	52.380000	1023.000000	0.000000	143.000000	62.000000	26.000000	0.000000
2.180000	30.270000	52.700000	1023.000000	0.000000	143.000000	62.000000	45.000000	32.000000
2.190000	30.740000	53.190000	1023.000000	0.000000	143.000000	62.000000	47.000000	49.000000
