t	x	y	pressure	penup	azimuth	inclination	v_x	v_y
0.000000	56.810000	87.680000	402.000000	1.000000	173.000000	67.000000	0.000000	0.000000
0.010000	56.380000	87.910000	585.000000	0.000000	173.000000	67.000000	-43.000000	23.000000
0.020000	55.700000	88.100000	785.000000	0.000000	173.000000	68.000000	-68.000000	19.000000
0.030000	54.770000	88.340000	950.000000	0.000000	172.000000	69.000000	-93.000000	24.000000
0.040000	53.680000	88.340000	1023.000000	0.000000	170.000000	69.000000	-109.000000	0.000000
0.050000	52.320000	88.390000	1023.000000	0.000000	169.000000	70.000000	-136.000000	5.000000
0.060000	51.290000	88.260000	1023.000000	0.000000	169.000000	70.000000	-103.000000	-13.000000
0.070000	50.480000	88.040000	1023.000000	0.000000	166.000000	69.000000	-81.000000	-22.000000
0.080000	50.130000	87.760000	1023.000000	0.000000	166.000000	69.000000	-35.000000	-28.000000
0.090000	49.960000	87.440000	1023.000000	0.000000	166.000000	69.000000	-17.000000	-32.000000
0.100000	49.910000	87.050000	1023.000000	0.000000	166.000000	69.000000	-5.000000	-39.000000
0.110000	50.050000	86.700000	1023.000000	0.000000	166.000000	69.000000	14.000000	-35.000000
0.120000	50.610000	86.380000	1023.000000	0.000000	167.000000	69.000000	56.000000	-32.000000
0.130000	51.450000	86.040000	1023.000000	0.000000	167.000000	69.000000	84.000000	-34.000000
0.140000	52.760000	85.720000	1023.000000	0.000000	167.000000	69.000000	131.000000	-32.000000
0.150000	53.790000	85.380000	1023.000000	0.000000	167.000000	69.000000	103.000000	-34.000000
0.160000	54.630000	85.010000	1023.000000	0.000000	168.000000	68.000000	84.000000	-37.000000
0.170000	54.770000	84.550000	1023.000000	0.000000	165.000000	67.000000	14.000000	-46.000000
0.180000	54.510000	84.050000	1023.000000	0.000000	165.000000	67.000000	-26.000000	-50.000000
0.190000	53.990000	83.470000	1023.000000	0.000000	165.000000	67.000000	-52.000000	-58.000000
0.200000	52.790000	82.850000	1023.000000	0.000000	166.000000	66.000000	-120.000000	-62.000000
0.210000	51.630000	82.480000	1023.000000	0.000000	166.000000	66.000000	-116.000000	-37.000000
0.220000	50.780000	82.360000	1023.000000	0.000000	166.000000	66.000000	-85.000000	-12.000000
0.230000	50.130000	82.360000	1023.000000	0.000000	166.000000	66.000000	-65.000000	0.000000
0.240000	49.860000	82.700000	1023.000000	0.000000	166.000000	66.000000	-27.000000	34.000000
0.250000	49.620000	82.990000	1023.000000	0.000000	166.000000	66.000000	-24.000000	29.000000
0.260000	49.620000	83.280000	1023.000000	0.000000	167.000000	65.000000	0.000000	29.000000
0.270000	49.880000	83.590000	893.000000	0.000000	167.000000	65.000000	26.000000	31.000000
0.280000	50.320000	83.900000	76.000000	0.000000	167.000000	65.000000	44.000000	31.000000
0.290000	50.320000	83.900000	0.000000	1.000000	167.000000	65.000000	0.000000	0.000000
0.300000	51.140000	84.020000	0.000000	0.000000	167.000000	65.000000	82.000000	12.000000
0.310000	51.470000	84.020000	0.000000	0.000000	165.000000	65.000000	33.000000	0.000000
0.320000	51.780000	84.020000	0.000000	0.000000	165.000000	65.000000	31.000000	0.000000
0.330000	52.370000	84.080000	0.000000	0.000000	165.000000	65.000000	59.000000	6.000000
0.340000	53.060000	84.200000	0.000000	0.000000	162.000000	65.000000	69.000000	12.000000
0.350000	53.820000	84.390000	0.000000	0.000000	162.000000	65.000000	76.000000	19.000000
0.360000	54.450000	84.520000	0.000000	0.000000	162.000000	65.000000	63.000000	13.000000
0.370000	54.910000	84.630000	0.000000	0.000000	162.000000	65.000000	46.000000	11.000000
0.380000	55.260000	84.630000	0.000000	0.000000	162.000000	65.000000	35.000000	0.000000
0.390000	55.450000	84.680000	0.000000	0.000000	162.000000	65.000000	19.000000	5.000000
0.400000	55.630000	84.680000	0.000000	0.000000	165.000000	65.000000	18.000000	0.000000
0.410000	55.800000	84.770000	0.000000	0.000000	165.000000	64.000000	17.000000	9.000000
0.420000	56.060000	84.770000	0.000000	0.000000	165.000000	65.000000	26.000000	0.000000
0.430000	56.280000	84.770000	0.000000	0.000000	167.000000	65.000000	22.000000	0.000000
0.440000	56.420000	84.690000	0.000000	0.000000	167.000000	65.000000	14.000000	-8.000000
0.450000	56.420000	84.690000	627.000000	1.000000	167.000000	65.000000	0.000000	0.000000
0.460000	56.430000	84.430000	793.000000	0.000000	166.000000	66.000000	1.000000	-26.000000
0.470000	56.380000	84.380000	961.000000	0.000000	166.000000	66.000000	-5.000000	-5.000000
0.480000	56.380000	84.380000	1023.000000	0.000000	166.000000	66.000000	0.000000	0.000000
0.490000	56.380000	84.290000	1023.000000	0.000000	166.000000	66.000000	0.000000	-9.000000
0.500000	56.380000	84.240000	1023.000000	0.000000	164.000000	66.000000	0.000000	-5.000000
0.510000	56.380000	84.240000	1023.000000	0.000000	164.000000	66.000000	0.000000	0.000000
0.520000	56.380000	84.190000	1023.000000	0.000000	164.000000	66.000000	0.000000	-5.000000
0.530000	56.380000	84.190000	1023.000000	0.000000	164.000000	66.000000	0.000000	0.000000
0.540000	56.380000	84.190000	1023.000000	0.000000	164.000000	66.000000	0.000000	0.000000
0.550000	56.380000	84.190000	1023.000000	0.000000	164.000000	66.000000	0.000000	0.000000
0.560000	56.380000	84.190000	1023.000000	0.000000	162.000000	66.000000	0.000000	0.000000
0.570000	56.380000	84.190000	1023.000000	0.000000	162.000000	66.000000	0.000000	0.000000
0.580000	56.380000	84.190000	1023.000000	0.000000	162.000000	66.000000	0.000000	0.000000
0.590000	56.380000	84.190000	1023.000000	0.000000	162.000000	66.000000	0.000000	0.000000
0.600000	56.380000	84.330000	818.000000	0.000000	162.000000	66.000000	0.000000	14.000000
0.610000	56.280000	84.670000	51.000000	0.000000	162.000000	66.000000	-10.000000	34.000000
0.620000	56.280000	84.670000	0.000000	1.000000	161.000000	67.000000	0.000000	0.000000
0.630000	56.610000	85.570000	0.000000	0.000000	161.000000	67.000000	33.000000	90.000000
0.640000	56.990000	86.280000	0.000000	0.000000	163.000000	67.000000	38.000000	71.000000
0.650000	57.460000	87.140000	0.000000	0.000000	163.000000	67.000000	47.000000	86.000000
0.660000	57.880000	88.030000	0.000000	0.000000	163.000000	67.000000	42.000000	89.000000
0.670000	58.260000	88.940000	0.000000	0.000000	163.000000	67.000000	38.000000	91.000000
0.680000	58.590000	89.680000	0.000000	0.000000	164.000000	66.000000	33.000000	74.000000
0.690000	58.750000	90.140000	0.000000	0.000000	164.000000	66.000000	16.000000	46.000000
0.700000	58.750000	90.140000	415.000000	1.000000	162.000000	66.000000	0.000000	0.000000
0.710000	58.840000	90.540000	728.000000	0.000000	162.000000	65.000000	9.000000	40.000000
0.720000	58.890000	90.670000	914.000000	0.000000	163.000000	64.000000	5.000000	13.000000
0.730000	58.940000	90.670000	985.000000	0.000000	164.000000	63.000000	5.000000	0.000000
0.740000	58.940000	90.510000	1023.000000	0.000000	166.000000	63.000000	0.000000	-16.000000
0.750000	58.890000	90.060000	1023.000000	0.000000	166.000000	62.000000	-5.000000	-45.000000
0.760000	58.760000	89.140000	1023.000000	0.000000	166.000000	62.000000	-13.000000	-92.000000
0.770000	58.530000	87.900000	1023.000000	0.000000	166.000000	62.000000	-23.000000	-124.000000
0.780000	58.140000	86.370000	1023.000000	0.000000	166.000000	63.000000	-39.000000	-153.000000
0.790000	57.630000	84.780000	1023.000000	0.000000	166.000000	63.000000	-51.000000	-159.000000
0.800000	57.290000	83.600000	1023.000000	0.000000	165.000000	64.000000	-34.000000	-118.000000
0.810000	57.220000	82.710000	1023.000000	0.000000	165.000000	65.000000	-7.000000	-89.000000
0.820000	57.340000	82.340000	1023.000000	0.000000	162.000000	66.000000	12.000000	-37.000000
0.830000	57.480000	82.340000	1023.000000	0.000000	161.000000	67.000000	14.000000	0.000000
0.840000	57.640000	82.470000	1023.000000	0.000000	161.000000	67.000000	16.000000	13.000000
0.850000	58.050000	82.990000	1023.000000	0.000000	159.000000	67.000000	41.000000	52.000000
0.860000	58.620000	83.800000	1023.000000	0.000000	161.000000	67.000000	57.000000	81.000000
0.870000	58.910000	84.810000	1023.000000	0.000000	161.000000	67.000000	29.000000	101.000000
0.880000	59.110000	86.430000	1023.000000	0.000000	161.000000	67.000000	20.000000	162.000000
0.890000	59.260000	88.090000	1023.000000	0.000000	161.000000	67.000000	15.000000	166.000000
0.900000	59.260000	89.780000	1023.000000	0.000000	161.000000	67.000000	0.000000	169.000000
0.910000	59.180000	90.770000	1023.000000	0.000000	162.000000	66.000000	-8.000000	99.000000
0.920000	59.000000	91.260000	1023.000000	0.000000	162.000000	65.000000	-18.000000	49.000000
0.930000	58.740000	91.420000	1023.000000	0.000000	163.000000	64.000000	-26.000000	16.000000
0.940000	58.480000	91.500000	1023.000000	0.000000	164.000000	63.000000	-26.000000	8.000000
0.950000	58.140000	91.370000	1023.000000	0.000000	165.000000	62.000000	-34.000000	-13.000000
0.960000	57.750000	91.090000	1023.000000	0.000000	165.000000	61.000000	-39.000000	-28.000000
0.970000	57.390000	90.530000	1023.000000	0.000000	166.000000	60.000000	-36.000000	-56.000000
0.980000	57.390000	89.960000	1023.000000	0.000000	166.000000	60.000000	0.000000	-57.000000
0.990000	57.580000	89.180000	1023.000000	0.000000	166.000000	60.000000	19.000000	-78.000000
1.000000	58.080000	88.250000	1023.000000	0.000000	163.000000	61.000000	50.000000	-93.000000
1.010000	59.020000	87.760000	1023.000000	0.000000	163.000000	62.000000	94.000000	-49.000000
1.020000	60.240000	87.670000	1023.000000	0.000000	162.000000	63.000000	122.000000	-9.000000
1.030000	61.500000	87.840000	1023.000000	0.000000	161.000000	64.000000	126.000000	17.000000
1.040000	62.330000	88.250000	1023.000000	0.000000	160.000000	66.000000	83.000000	41.000000
1.050000	62.860000	88.720000	1023.000000	0.000000	159.000000	67.000000	53.000000	47.000000
1.060000	62.990000	89.230000	1023.000000	0.000000	161.000000	67.000000	13.000000	51.000000
1.070000	62.900000	89.700000	1023.000000	0.000000	161.000000	67.000000	-9.000000	47.000000
1.080000	62.670000	89.980000	1023.000000	0.000000	162.000000	66.000000	-23.000000	28.000000
1.090000	62.360000	90.130000	1023.000000	0.000000	162.000000	65.000000	-31.000000	15.000000
1.100000	62.020000	90.040000	1023.000000	0.000000	163.000000	64.000000	-34.000000	-9.000000
1.110000	61.650000	89.930000	1023.000000	0.000000	164.000000	63.000000	-37.000000	-11.000000
1.120000	61.390000	89.300000	1023.000000	0.000000	164.000000	63.000000	-26.000000	-63.000000
1.130000	61.110000	88.330000	1023.000000	0.000000	165.000000	62.000000	-28.000000	-97.000000
1.140000	60.810000	86.860000	1023.000000	0.000000	164.000000	63.000000	-30.000000	-147.000000
1.150000	60.730000	85.240000	1023.000000	0.000000	164.000000	63.000000	-8.000000	-162.000000
1.160000	60.790000	83.510000	1023.000000	0.000000	163.000000	64.000000	6.000000	-173.000000
1.170000	60.950000	82.440000	1023.000000	0.000000	162.000000	65.000000	16.000000	-107.000000
1.180000	61.150000	81.730000	1023.000000	0.000000	162.000000	66.000000	20.000000	-71.000000
1.190000	61.310000	81.250000	1023.000000	0.000000	161.000000	67.000000	16.000000	-48.000000
1.200000	61.420000	80.990000	946.000000	0.000000	161.000000	67.000000	11.000000	-26.000000
1.210000	61.520000	80.990000	203.000000	0.000000	161.000000	67.000000	10.000000	0.000000
1.220000	61.520000	80.990000	0.000000	1.000000	160.000000	68.000000	0.000000	0.000000
1.230000	61.520000	81.920000	0.000000	0.000000	160.000000	68.000000	0.000000	93.000000
1.240000	61.520000	82.710000	0.000000	0.000000	160.000000	68.000000	0.000000	79.000000
1.250000	61.790000	83.580000	0.000000	0.000000	158.000000	67.000000	27.000000	87.000000
1.260000	62.180000	84.210000	0.000000	0.000000	158.000000	67.000000	39.000000	63.000000
1.270000	62.540000	84.670000	0.000000	0.000000	155.000000	67.000000	36.000000	46.000000
1.280000	62.800000	85.010000	0.000000	0.000000	153.000000	67.000000	26.000000	34.000000
1.290000	62.980000	85.220000	0.000000	0.000000	153.000000	67.000000	18.000000	21.000000
1.300000	63.120000	85.390000	0.000000	0.000000	154.000000	66.000000	14.000000	17.000000
1.310000	63.310000	85.490000	0.000000	0.000000	152.000000	65.000000	19.000000	10.000000
1.320000	63.610000	85.580000	0.000000	0.000000	152.000000	65.000000	30.000000	9.000000
1.330000	63.950000	85.660000	0.000000	0.000000	155.000000	65.000000	34.000000	8.000000
1.340000	64.260000	85.720000	0.000000	0.000000	155.000000	65.000000	31.000000	6.000000
1.350000	64.480000	85.780000	0.000000	0.000000	154.000000	66.000000	22.000000	6.000000
1.360000	64.650000	85.930000	0.000000	0.000000	156.000000	66.000000	17.000000	15.000000
1.370000	64.650000	85.930000	387.000000	1.000000	156.000000	66.000000	0.000000	0.000000
1.380000	64.780000	86.470000	647.000000	0.000000	155.000000	67.000000	13.000000	54.000000
1.390000	64.780000	86.800000	857.000000	0.000000	155.000000	67.000000	0.000000	33.000000
1.400000	64.670000	87.080000	941.000000	0.000000	154.000000	68.000000	-11.000000	28.000000
1.410000	64.500000	87.340000	1023.000000	0.000000	154.000000	68.000000	-17.000000	26.000000
1.420000	64.270000	87.410000	1023.000000	0.000000	154.000000	68.000000	-23.000000	7.000000
1.430000	63.970000	87.410000	1023.000000	0.000000	154.000000	68.000000	-30.000000	0.000000
1.440000	63.560000	87.220000	1023.000000	0.000000	154.000000	68.000000	-41.000000	-19.000000
1.450000	63.080000	86.860000	1023.000000	0.000000	154.000000	68.000000	-48.000000	-36.000000
1.460000	62.760000	86.380000	1023.000000	0.000000	154.000000	68.000000	-32.000000	-48.000000
1.470000	62.490000	85.860000	1023.000000	0.000000	154.000000	68.000000	-27.000000	-52.000000
1.480000	62.340000	85.270000	1023.000000	0.000000	154.000000	68.000000	-15.000000	-59.000000
1.490000	62.270000	84.740000	1023.000000	0.000000	154.000000	68.000000	-7.000000	-53.000000
1.500000	62.430000	84.260000	1023.000000	0.000000	154.000000	68.000000	16.000000	-48.000000
1.510000	62.730000	84.050000	1023.000000	0.000000	155.000000	67.000000	30.000000	-21.000000
1.520000	63.280000	84.050000	1023.000000	0.000000	155.000000	67.000000	55.000000	0.000000
1.530000	63.830000	84.290000	1023.000000	0.000000	155.000000	67.000000	55.000000	24.000000
1.540000	64.260000	84.690000	1023.000000	0.000000	155.000000	67.000000	43.000000	40.000000
1.550000	64.600000	85.200000	1023.000000	0.000000	155.000000	67.000000	34.000000	51.000000
1.560000	64.840000	85.780000	1023.000000	0.000000	155.000000	67.000000	24.000000	58.000000
1.570000	64.910000	86.230000	1023.000000	0.000000	155.000000	67.000000	7.000000	45.000000
1.580000	64.860000	86.590000	1023.000000	0.000000	155.000000	67.000000	-5.000000	36.000000
1.590000	64.810000	86.900000	1023.000000	0.000000	155.000000	67.000000	-5.000000	31.000000
1.600000	64.760000	87.080000	1023.000000	0.000000	153.000000	67.000000	-5.000000	18.000000
1.610000	64.710000	87.140000	1023.000000	0.000000	152.000000	68.000000	-5.000000	6.000000
1.620000	64.710000	87.140000	1023.000000	0.000000	152.000000	68.000000	0.000000	0.000000
1.630000	64.650000	87.140000	1023.000000	0.000000	152.000000	68.000000	-6.000000	0.000000
1.640000	64.650000	87.140000	1023.000000	0.000000	152.000000	68.000000	0.000000	0.000000
1.650000	64.650000	87.140000	1023.000000	0.000000	152.000000	68.000000	0.000000	0.000000
1.660000	64.650000	87.070000	1023.000000	0.000000	152.000000	68.000000	0.000000	-7.000000
1.670000	64.650000	86.990000	1023.000000	0.000000	152.000000	68.000000	0.000000	-8.000000
1.680000	64.650000	86.800000	1023.000000	0.000000	152.000000	68.000000	0.000000	-19.000000
1.690000	64.720000	86.540000	1023.000000	0.000000	152.000000	68.000000	7.000000	-26.000000
1.700000	64.810000	86.280000	1023.000000	0.000000	152.000000	68.000000	9.000000	-26.000000
1.710000	64.950000	86.000000	1023.000000	0.000000	152.000000	68.000000	14.000000	-28.000000
1.720000	65.110000	85.900000	1023.000000	0.000000	152.000000	68.000000	16.000000	-10.000000
1.730000	65.340000	85.900000	1023.000000	0.000000	152.000000	68.000000	23.000000	0.000000
1.740000	65.720000	86.030000	1023.000000	0.000000	152.000000	68.000000	38.000000	13.000000
1.750000	66.080000	86.240000	1023.000000	0.000000	152.000000	68.000000	36.000000	21.000000
1.760000	66.420000	86.530000	1023.000000	0.000000	154.000000	68.000000	34.000000	29.000000
1.770000	66.830000	86.850000	1023.000000	0.000000	154.000000	68.000000	41.000000	32.000000
1.780000	67.150000	87.140000	1023.000000	0.000000	153.000000	69.000000	32.000000	29.000000
1.790000	67.420000	87.330000	1023.000000	0.000000	155.000000	69.000000	27.000000	19.000000
1.800000	67.600000	87.470000	1023.000000	0.000000	155.000000	69.000000	18.000000	14.000000
1.810000	67.740000	87.550000	1023.000000	0.000000	155.000000	69.000000	14.000000	8.000000
1.820000	67.850000	87.620000	1023.000000	0.000000	158.000000	70.000000	11.000000	7.000000
1.830000	67.850000	87.620000	1023.000000	0.000000	158.000000	70.000000	0.000000	0.000000
1.840000	67.850000	87.620000	1023.000000	0.000000	158.000000	70.000000	0.000000	0.000000
1.850000	67.850000	87.620000	1023.000000	0.000000	158.000000	70.000000	0.000000	0.000000
1.860000	67.760000	87.620000	1023.000000	0.000000	158.000000	70.000000	-9.000000	0.000000
1.870000	67.680000	87.560000	1023.000000	0.000000	158.000000	70.000000	-8.000000	-6.000000
1.880000	67.680000	87.560000	1023.000000	0.000000	158.000000	70.000000	0.000000	0.000000
1.890000	67.350000	87.340000	1023.000000	0.000000	158.000000	70.000000	-33.000000	-22.000000
1.900000	67.080000	87.160000	1023.000000	0.000000	158.000000	70.000000	-27.000000	-18.000000
1.910000	66.710000	86.800000	1023.000000	0.000000	158.000000	70.000000	-37.000000	-36.000000
1.920000	66.270000	86.350000	1023.000000	0.000000	158.000000	70.000000	-44.000000	-45.000000
1.930000	65.940000	85.890000	1023.000000	0.000000	158.000000	70.000000	-33.000000	-46.000000
1.940000	65.810000	85.510000	1023.000000	0.000000	158.000000	70.000000	-13.000000	-38.000000
1.950000	65.810000	85.360000	1023.000000	0.000000	156.000000	68.000000	0.000000	-15.000000
1.960000	65.940000	85.360000	1023.000000	0.000000	156.000000	68.000000	13.000000	0.000000
1.970000	66.430000	85.440000	1023.000000	0.000000	156.000000	68.000000	49.000000	8.000000
1.980000	67.150000	85.820000	1023.000000	0.000000	154.000000	68.000000	72.000000	38.000000
1.990000	67.860000	86.390000	1023.000000	0.000000	156.000000	68.000000	71.000000	57.000000
2.000000	68.500000	87.010000	994.000000	0.000000	156.000000	68.000000	64.000000	62.000000
2.010000	69.090000	87.800000	893.000000	0.000000	156.000000	68.000000	59.000000	79.000000
2.020000	69.590000	88.710000	836.000000	0.000000	159.000000	69.000000	50.000000	91.000000
2.030000	69.900000	89.840000	779.000000	0.000000	161.000000	69.000000	31.000000	113.000000
2.040000	70.070000	90.640000	773.000000	0.000000	164.000000	69.000000	17.000000	80.000000
2.050000	70.150000	91.210000	806.000000	0.000000	165.000000	68.000000	8.000000	57.000000
2.060000	70.150000	91.310000	857.000000	0.000000	168.000000	68.000000	0.000000	10.000000
2.070000	70.150000	91.310000	870.000000	0.000000	171.000000	66.000000	0.000000	0.000000
2.080000	70.070000	91.310000	888.000000	0.000000	171.000000	65.000000	-8.000000	0.000000
2.090000	69.910000	90.920000	902.000000	0.000000	172.000000	64.000000	-16.000000	-39.000000
2.100000	69.670000	90.380000	912.000000	0.000000	172.000000	63.000000	-24.000000	-54.000000
2.110000	69.370000	89.560000	933.000000	0.000000	172.000000	63.000000	-30.000000	-82.000000
2.120000	69.010000	88.490000	955.000000	0.000000	172.000000	63.000000	-36.000000	-107.000000
2.130000	68.620000	87.250000	981.000000	0.000000	172.000000	64.000000	-39.000000	-124.000000
2.140000	68.390000	86.280000	1000.000000	0.000000	171.000000	66.000000	-23.000000	-97.000000
2.150000	68.340000	85.640000	1018.000000	0.000000	171.000000	67.000000	-5.000000	-64.000000
2.160000	68.400000	85.230000	1023.000000	0.000000	168.000000	68.000000	6.000000	-41.000000
2.170000	68.460000	85.110000	1023.000000	0.000000	167.000000	69.000000	6.000000	-12.000000
2.180000	68.520000	85.170000	1023.000000	0.000000	166.000000	69.000000	6.000000	6.000000
2.190000	68.700000	85.360000	1023.000000	0.000000	166.000000	70.000000	18.000000	19.000000
