t	x	y	pressure	penup	azimuth	inclination	v_x	v_y
0.000000	52.270000	84.740000	254.000000	1.000000	120.000000	57.000000	0.000000	0.000000
0.010000	52.230000	85.390000	299.000000	0.000000	120.000000	57.000000	-4.000000	65.000000
0.020000	52.050000	85.600000	325.000000	0.000000	120.000000	57.000000	-18.000000	21.000000
0.030000	52.050000	85.600000	356.000000	0.000000	119.000000	58.000000	0.000000	0.000000
0.040000	52.130000	85.510000	388.000000	0.000000	120.000000	58.000000	8.000000	-9.000000
0.050000	52.130000	85.010000	452.000000	0.000000	120.000000	58.000000	0.000000	-50.000000
0.060000	52.310000	84.220000	485.000000	0.000000	120.000000	58.000000	18.000000	-79.000000
0.070000	52.450000	82.970000	491.000000	0.000000	120.000000	58.000000	14.000000	-125.000000
0.080000	52.630000	81.420000	494.000000	0.000000	120.000000	58.000000	18.000000	-155.000000
0.090000	52.870000	79.670000	504.000000	0.000000	120.000000	58.000000	24.000000	-175.000000
0.100000	53.140000	78.150000	519.000000	0.000000	120.000000	58.000000	27.000000	-152.000000
0.110000	53.410000	76.940000	519.000000	0.000000	120.000000	58.000000	27.000000	-121.000000
0.120000	53.730000	75.930000	518.000000	0.000000	118.000000	59.000000	32.000000	-101.000000
0.130000	54.070000	75.010000	514.000000	0.000000	118.000000	59.000000	34.000000	-92.000000
0.140000	54.410000	74.330000	509.000000	0.000000	117.000000	58.000000	34.000000	-68.000000
0.150000	54.640000	73.800000	507.000000	0.000000	117.000000	58.000000	23.000000	-53.000000
0.160000	54.640000	73.800000	510.000000	0.000000	117.000000	58.000000	0.000000	0.000000
0.170000	54.810000	73.480000	519.000000	0.000000	117.000000	58.000000	17.000000	-32.000000
0.180000	54.550000	73.480000	537.000000	0.000000	117.000000	58.000000	-26.000000	0.000000
0.190000	54.120000	73.480000	572.000000	0.000000	118.000000	59.000000	-43.000000	0.000000
0.200000	53.280000	73.630000	588.000000	0.000000	118.000000	59.000000	-84.000000	15.000000
0.210000	52.010000	73.820000	586.000000	0.000000	120.000000	58.000000	-127.000000	19.000000
0.220000	50.460000	74.060000	616.000000	0.000000	121.000000	59.000000	-155.000000	24.000000
0.230000	48.620000	74.230000	652.000000	0.000000	121.000000	59.000000	-184.000000	17.000000
0.240000	46.670000	74.230000	717.000000	0.000000	121.000000	59.000000	-195.000000	0.000000
0.250000	44.650000	74.180000	745.000000	0.000000	121.000000	59.000000	-202.000000	-5.000000
0.260000	43.150000	74.110000	761.000000	0.000000	121.000000	59.000000	-150.000000	-7.000000
0.270000	42.180000	74.040000	759.000000	0.000000	120.000000	58.000000	-97.000000	-7.000000
0.280000	41.550000	73.970000	755.000000	0.000000	120.000000	58.000000	-63.000000	-7.000000
0.290000	41.610000	73.970000	737.000000	0.000000	119.000000	58.000000	6.000000	0.000000
0.300000	42.170000	74.030000	724.000000	0.000000	119.000000	58.000000	56.000000	6.000000
0.310000	43.060000	74.210000	696.000000	0.000000	118.000000	57.000000	89.000000	18.000000
0.320000	44.560000	74.550000	684.000000	0.000000	118.000000	57.000000	150.000000	34.000000
0.330000	46.590000	75.010000	685.000000	0.000000	118.000000	57.000000	203.000000	46.000000
0.340000	48.980000	75.390000	678.000000	0.000000	116.000000	57.000000	239.000000	38.000000
0.350000	51.880000	75.800000	676.000000	0.000000	117.000000	58.000000	290.000000	41.000000
0.360000	55.120000	76.240000	671.000000	0.000000	117.000000	58.000000	324.000000	44.000000
0.370000	58.580000	76.730000	673.000000	0.000000	118.000000	59.000000	346.000000	49.000000
0.380000	61.520000	77.170000	670.000000	0.000000	119.000000	60.000000	294.000000	44.000000
0.390000	63.810000	77.500000	667.000000	0.000000	119.000000	60.000000	229.000000	33.000000
0.400000	65.670000	77.740000	667.000000	0.000000	120.000000	60.000000	186.000000	24.000000
0.410000	66.520000	77.810000	667.000000	0.000000	120.000000	60.000000	85.000000	7.000000
0.420000	66.690000	77.810000	696.000000	0.000000	120.000000	60.000000	17.000000	0.000000
0.430000	66.400000	77.810000	716.000000	0.000000	120.000000	60.000000	-29.000000	0.000000
0.440000	65.630000	77.810000	728.000000	0.000000	120.000000	60.000000	-77.000000	0.000000
0.450000	64.490000	77.810000	734.000000	0.000000	120.000000	60.000000	-114.000000	0.000000
0.460000	63.110000	77.810000	740.000000	0.000000	120.000000	60.000000	-138.000000	0.000000
0.470000	61.520000	77.810000	739.000000	0.000000	120.000000	60.000000	-159.000000	0.000000
0.480000	59.950000	77.700000	725.000000	0.000000	120.000000	60.000000	-157.000000	-11.000000
0.490000	58.380000	77.580000	725.000000	0.000000	122.000000	61.000000	-157.000000	-12.000000
0.500000	56.830000	77.420000	733.000000	0.000000	122.000000	61.000000	-155.000000	-16.000000
0.510000	55.310000	77.240000	725.000000	0.000000	122.000000	61.000000	-152.000000	-18.000000
0.520000	54.130000	77.060000	721.000000	0.000000	122.000000	61.000000	-118.000000	-18.000000
0.530000	53.250000	76.870000	728.000000	0.000000	122.000000	61.000000	-88.000000	-19.000000
0.540000	52.570000	76.790000	725.000000	0.000000	122.000000	61.000000	-68.000000	-8.000000
0.550000	52.330000	76.790000	702.000000	0.000000	122.000000	61.000000	-24.000000	0.000000
0.560000	52.330000	76.790000	667.000000	0.000000	120.000000	60.000000	0.000000	0.000000
0.570000	52.540000	76.840000	653.000000	0.000000	120.000000	60.000000	21.000000	5.000000
0.580000	52.770000	76.890000	638.000000	0.000000	120.000000	60.000000	23.000000	5.000000
0.590000	53.180000	76.950000	631.000000	0.000000	119.000000	60.000000	41.000000	6.000000
0.600000	53.710000	77.040000	619.000000	0.000000	119.000000	60.000000	53.000000	9.000000
0.610000	54.250000	77.130000	611.000000	0.000000	119.000000	60.000000	54.000000	9.000000
0.620000	54.610000	77.210000	608.000000	0.000000	119.000000	60.000000	36.000000	8.000000
0.630000	54.840000	77.310000	617.000000	0.000000	119.000000	60.000000	23.000000	10.000000
0.640000	54.840000	77.310000	619.000000	0.000000	119.000000	60.000000	0.000000	0.000000
0.650000	54.650000	77.410000	628.000000	0.000000	119.000000	60.000000	-19.000000	10.000000
0.660000	54.380000	77.550000	641.000000	0.000000	119.000000	60.000000	-27.000000	14.000000
0.670000	53.970000	77.740000	647.000000	0.000000	119.000000	60.000000	-41.000000	19.000000
0.680000	53.370000	77.850000	658.000000	0.000000	119.000000	60.000000	-60.000000	11.000000
0.690000	52.640000	77.940000	669.000000	0.000000	119.000000	60.000000	-73.000000	9.000000
0.700000	51.840000	78.010000	694.000000	0.000000	120.000000	60.000000	-80.000000	7.000000
0.710000	51.050000	78.140000	705.000000	0.000000	120.000000	60.000000	-79.000000	13.000000
0.720000	50.540000	78.300000	714.000000	0.000000	120.000000	60.000000	-51.000000	16.000000
0.730000	50.210000	78.300000	710.000000	0.000000	123.000000	61.000000	-33.000000	0.000000
0.740000	50.210000	78.390000	699.000000	0.000000	123.000000	61.000000	0.000000	9.000000
0.750000	50.270000	78.450000	684.000000	0.000000	123.000000	61.000000	6.000000	6.000000
0.760000	50.580000	78.450000	664.000000	0.000000	123.000000	61.000000	31.000000	0.000000
0.770000	51.030000	78.450000	641.000000	0.000000	125.000000	60.000000	45.000000	0.000000
0.780000	51.630000	78.450000	619.000000	0.000000	125.000000	60.000000	60.000000	0.000000
0.790000	52.360000	78.530000	605.000000	0.000000	125.000000	60.000000	73.000000	8.000000
0.800000	53.170000	78.610000	591.000000	0.000000	125.000000	60.000000	81.000000	8.000000
0.810000	53.720000	78.720000	595.000000	0.000000	125.000000	60.000000	55.000000	11.000000
0.820000	53.960000	78.770000	597.000000	0.000000	125.000000	59.000000	24.000000	5.000000
0.830000	53.960000	78.820000	627.000000	0.000000	125.000000	59.000000	0.000000	5.000000
0.840000	53.840000	78.870000	634.000000	0.000000	125.000000	59.000000	-12.000000	5.000000
0.850000	53.460000	79.010000	652.000000	0.000000	124.000000	58.000000	-38.000000	14.000000
0.860000	52.940000	79.210000	691.000000	0.000000	124.000000	58.000000	-52.000000	20.000000
0.870000	52.220000	79.360000	693.000000	0.000000	124.000000	58.000000	-72.000000	15.000000
0.880000	51.550000	79.510000	697.000000	0.000000	125.000000	59.000000	-67.000000	15.000000
0.890000	50.970000	79.650000	700.000000	0.000000	125.000000	59.000000	-58.000000	14.000000
0.900000	50.680000	79.790000	700.000000	0.000000	125.000000	59.000000	-29.000000	14.000000
0.910000	50.570000	79.790000	669.000000	0.000000	124.000000	60.000000	-11.000000	0.000000
0.920000	50.700000	79.850000	665.000000	0.000000	125.000000	60.000000	13.000000	6.000000
0.930000	50.880000	79.850000	653.000000	0.000000	125.000000	60.000000	18.000000	0.000000
0.940000	51.360000	79.960000	631.000000	0.000000	125.000000	60.000000	48.000000	11.000000
0.950000	52.020000	80.160000	614.000000	0.000000	125.000000	60.000000	66.000000	20.000000
0.960000	52.810000	80.230000	595.000000	0.000000	125.000000	60.000000	79.000000	7.000000
0.970000	53.530000	80.320000	588.000000	0.000000	125.000000	60.000000	72.000000	9.000000
0.980000	54.210000	80.430000	578.000000	0.000000	125.000000	60.000000	68.000000	11.000000
0.990000	54.720000	80.430000	578.000000	0.000000	124.000000	60.000000	51.000000	0.000000
1.000000	54.840000	80.430000	605.000000	0.000000	124.000000	60.000000	12.000000	0.000000
1.010000	54.700000	80.430000	641.000000	0.000000	124.000000	60.000000	-14.000000	0.000000
1.020000	54.450000	80.520000	646.000000	0.000000	124.000000	60.000000	-25.000000	9.000000
1.030000	53.970000	80.610000	661.000000	0.000000	124.000000	58.000000	-48.000000	9.000000
1.040000	53.340000	80.720000	676.000000	0.000000	124.000000	58.000000	-63.000000	11.000000
1.050000	52.680000	80.810000	688.000000	0.000000	124.000000	58.000000	-66.000000	9.000000
1.060000	52.090000	80.810000	684.000000	0.000000	125.000000	59.000000	-59.000000	0.000000
1.070000	51.760000	80.810000	682.000000	0.000000	125.000000	59.000000	-33.000000	0.000000
1.080000	51.590000	80.810000	673.000000	0.000000	125.000000	59.000000	-17.000000	0.000000
1.090000	51.650000	80.810000	649.000000	0.000000	125.000000	59.000000	6.000000	0.000000
1.100000	51.770000	80.810000	636.000000	0.000000	125.000000	59.000000	12.000000	0.000000
1.110000	51.970000	80.700000	642.000000	0.000000	125.000000	59.000000	20.000000	-11.000000
1.120000	52.350000	80.510000	641.000000	0.000000	125.000000	59.000000	38.000000	-19.000000
1.130000	52.840000	80.190000	647.000000	0.000000	125.000000	59.000000	49.000000	-32.000000
1.140000	53.300000	79.780000	636.000000	0.000000	125.000000	59.000000	46.000000	-41.000000
1.150000	53.710000	79.460000	639.000000	0.000000	125.000000	59.000000	41.000000	-32.000000
1.160000	54.080000	79.330000	638.000000	0.000000	124.000000	60.000000	37.000000	-13.000000
1.170000	54.390000	79.330000	642.000000	0.000000	124.000000	60.000000	31.000000	0.000000
1.180000	54.740000	79.560000	643.000000	0.000000	124.000000	60.000000	35.000000	23.000000
1.190000	55.150000	80.080000	658.000000	0.000000	124.000000	60.000000	41.000000	52.000000
1.200000	55.640000	80.800000	665.000000	0.000000	123.000000	59.000000	49.000000	72.000000
1.210000	56.190000	81.700000	664.000000	0.000000	124.000000	60.000000	55.000000	90.000000
1.220000	56.950000	82.800000	647.000000	0.000000	124.000000	60.000000	76.000000	110.000000
1.230000	57.850000	84.030000	631.000000	0.000000	124.000000	60.000000	90.000000	123.000000
1.240000	58.680000	85.430000	622.000000	0.000000	125.000000	60.000000	83.000000	140.000000
1.250000	59.190000	86.820000	622.000000	0.000000	125.000000	60.000000	51.000000	139.000000
1.260000	59.480000	88.170000	624.000000	0.000000	126.000000	61.000000	29.000000	135.000000
1.270000	59.410000	89.160000	656.000000	0.000000	126.000000	61.000000	-7.000000	99.000000
1.280000	59.160000	89.920000	670.000000	0.000000	129.000000	61.000000	-25.000000	76.000000
1.290000	58.790000	90.070000	671.000000	0.000000	131.000000	61.000000	-37.000000	15.000000
1.300000	58.380000	89.530000	687.000000	0.000000	134.000000	61.000000	-41.000000	-54.000000
1.310000	57.760000	88.540000	693.000000	0.000000	134.000000	61.000000	-62.000000	-99.000000
1.320000	57.000000	86.100000	670.000000	0.000000	135.000000	60.000000	-76.000000	-244.000000
1.330000	56.130000	82.290000	613.000000	0.000000	134.000000	60.000000	-87.000000	-381.000000
1.340000	55.300000	77.580000	599.000000	0.000000	132.000000	60.000000	-83.000000	-471.000000
1.350000	54.880000	74.150000	637.000000	0.000000	131.000000	60.000000	-42.000000	-343.000000
1.360000	54.710000	72.210000	655.000000	0.000000	128.000000	59.000000	-17.000000	-194.000000
1.370000	54.900000	71.270000	665.000000	0.000000	125.000000	59.000000	19.000000	-94.000000
1.380000	55.030000	70.490000	673.000000	0.000000	122.000000	60.000000	13.000000	-78.000000
1.390000	55.110000	70.220000	673.000000	0.000000	119.000000	60.000000	8.000000	-27.000000
1.400000	55.230000	70.290000	661.000000	0.000000	119.000000	60.000000	12.000000	7.000000
1.410000	55.500000	70.500000	613.000000	0.000000	118.000000	60.000000	27.000000	21.000000
1.420000	55.870000	71.320000	481.000000	0.000000	118.000000	60.000000	37.000000	82.000000
1.430000	56.180000	72.540000	280.000000	0.000000	118.000000	60.000000	31.000000	122.000000
1.440000	56.180000	72.540000	0.000000	1.000000	119.000000	61.000000	0.000000	0.000000
1.450000	56.600000	74.700000	0.000000	0.000000	119.000000	61.000000	42.000000	216.000000
1.460000	56.600000	75.210000	0.000000	0.000000	119.000000	61.000000	0.000000	51.000000
1.470000	56.410000	75.070000	0.000000	0.000000	120.000000	62.000000	-19.000000	-14.000000
1.480000	56.270000	74.770000	0.000000	0.000000	120.000000	62.000000	-14.000000	-30.000000
1.490000	56.200000	74.370000	0.000000	0.000000	123.000000	62.000000	-7.000000	-40.000000
1.500000	56.250000	73.830000	0.000000	0.000000	123.000000	62.000000	5.000000	-54.000000
1.510000	56.520000	73.610000	0.000000	0.000000	124.000000	63.000000	27.000000	-22.000000
1.520000	56.920000	73.610000	0.000000	0.000000	126.000000	62.000000	40.000000	0.000000
1.530000	57.530000	73.700000	0.000000	0.000000	126.000000	62.000000	61.000000	9.000000
1.540000	58.150000	73.870000	0.000000	0.000000	126.000000	62.000000	62.000000	17.000000
1.550000	58.720000	74.150000	0.000000	0.000000	124.000000	62.000000	57.000000	28.000000
1.560000	59.260000	74.470000	0.000000	0.000000	123.000000	61.000000	54.000000	32.000000
1.570000	59.680000	74.830000	0.000000	0.000000	123.000000	61.000000	42.000000	36.000000
1.580000	59.950000	75.260000	0.000000	0.000000	122.000000	60.000000	27.000000	43.000000
1.590000	60.130000	75.640000	0.000000	0.000000	121.000000	59.000000	18.000000	38.000000
1.600000	60.180000	75.900000	0.000000	0.000000	121.000000	59.000000	5.000000	26.000000
1.610000	60.080000	76.060000	0.000000	0.000000	121.000000	59.000000	-10.000000	16.000000
1.620000	59.870000	76.150000	0.000000	0.000000	120.000000	58.000000	-21.000000	9.000000
1.630000	59.580000	76.200000	0.000000	0.000000	119.000000	60.000000	-29.000000	5.000000
1.640000	59.240000	76.200000	0.000000	0.000000	119.000000	60.000000	-34.000000	0.000000
1.650000	58.860000	76.200000	0.000000	0.000000	120.000000	60.000000	-38.000000	0.000000
1.660000	58.460000	76.270000	0.000000	0.000000	120.000000	60.000000	-40.000000	7.000000
1.670000	58.060000	76.270000	0.000000	0.000000	119.000000	61.000000	-40.000000	0.000000
1.680000	57.660000	76.390000	0.000000	0.000000	120.000000	62.000000	-40.000000	12.000000
1.690000	57.310000	76.510000	0.000000	0.000000	120.000000	62.000000	-35.000000	12.000000
1.700000	57.050000	76.630000	0.000000	0.000000	120.000000	62.000000	-26.000000	12.000000
1.710000	56.830000	76.730000	0.000000	0.000000	120.000000	62.000000	-22.000000	10.000000
1.720000	56.620000	76.820000	0.000000	0.000000	120.000000	62.000000	-21.000000	9.000000
1.730000	56.620000	76.910000	0.000000	0.000000	120.000000	62.000000	0.000000	9.000000
1.740000	56.740000	77.020000	0.000000	0.000000	120.000000	62.000000	12.000000	11.000000
1.750000	56.880000	77.150000	0.000000	0.000000	120.000000	62.000000	14.000000	13.000000
1.760000	57.040000	77.270000	0.000000	0.000000	120.000000	62.000000	16.000000	12.000000
1.770000	57.270000	77.490000	0.000000	0.000000	120.000000	62.000000	23.000000	22.000000
1.780000	57.520000	77.770000	0.000000	0.000000	120.000000	62.000000	25.000000	28.000000
1.790000	57.520000	77.770000	22.000000	1.000000	120.000000	62.000000	0.000000	0.000000
1.800000	57.960000	77.970000	50.000000	0.000000	120.000000	62.000000	44.000000	20.000000
1.810000	58.150000	77.970000	90.000000	0.000000	120.000000	62.000000	19.000000	0.000000
1.820000	58.300000	77.970000	136.000000	0.000000	120.000000	62.000000	15.000000	0.000000
1.830000	58.410000	78.030000	170.000000	0.000000	120.000000	62.000000	11.000000	6.000000
1.840000	58.460000	78.030000	222.000000	0.000000	120.000000	62.000000	5.000000	0.000000
1.850000	58.510000	78.030000	257.000000	0.000000	119.000000	61.000000	5.000000	0.000000
1.860000	58.510000	78.030000	287.000000	0.000000	120.000000	60.000000	0.000000	0.000000
1.870000	58.510000	78.030000	334.000000	0.000000	120.000000	60.000000	0.000000	0.000000
1.880000	58.510000	78.030000	358.000000	0.000000	120.000000	60.000000	0.000000	0.000000
1.890000	58.350000	78.030000	371.000000	0.000000	120.000000	60.000000	-16.000000	0.000000
1.900000	58.160000	77.980000	388.000000	0.000000	119.000000	61.000000	-19.000000	-5.000000
1.910000	57.910000	77.980000	423.000000	0.000000	119.000000	61.000000	-25.000000	0.000000
1.920000	57.710000	77.980000	438.000000	0.000000	119.000000	61.000000	-20.000000	0.000000
1.930000	57.550000	77.980000	456.000000	0.000000	119.000000	61.000000	-16.000000	0.000000
1.940000	57.400000	77.980000	455.000000	0.000000	120.000000	60.000000	-15.000000	0.000000
1.950000	57.400000	77.930000	453.000000	0.000000	120.000000	60.000000	0.000000	-5.000000
1.960000	57.350000	77.840000	455.000000	0.000000	120.000000	60.000000	-5.000000	-9.000000
1.970000	57.350000	77.650000	440.000000	0.000000	119.000000	60.000000	0.000000	-19.000000
1.980000	57.450000	77.400000	441.000000	0.000000	118.000000	60.000000	10.000000	-25.000000
1.990000	57.600000	77.120000	428.000000	0.000000	118.000000	60.000000	15.000000	-28.000000
2.000000	57.810000	76.910000	422.000000	0.000000	117.000000	59.000000	21.000000	-21.000000
2.010000	58.040000	76.750000	397.000000	0.000000	118.000000	60.000000	23.000000	-16.000000
2.020000	58.270000	76.750000	396.000000	0.000000	118.000000	60.000000	23.000000	0.000000
2.030000	58.520000	76.820000	394.000000	0.000000	116.000000	60.000000	25.000000	7.000000
2.040000	58.710000	76.980000	392.000000	0.000000	117.000000	61.000000	19.000000	16.000000
2.050000	58.860000	77.230000	392.000000	0.000000	117.000000	61.000000	15.000000	25.000000
2.060000	59.000000	77.540000	396.000000	0.000000	117.000000	61.000000	14.000000	31.000000
2.070000	59.090000	77.900000	396.000000	0.000000	118.000000	62.000000	9.000000	36.000000
2.080000	59.140000	78.160000	407.000000	0.000000	120.000000	62.000000	5.000000	26.000000
2.090000	59.140000	78.400000	420.000000	0.000000	121.000000	63.000000	0.000000	24.000000
2.100000	59.140000	78.580000	430.000000	0.000000	121.000000	63.000000	0.000000	18.000000
2.110000	59.140000	78.630000	436.000000	0.000000	123.000000	62.000000	0.000000	5.000000
2.120000	59.140000	78.630000	438.000000	0.000000	123.000000	62.000000	0.000000	0.000000
2.130000	59.140000	78.470000	435.000000	0.000000	123.000000	62.000000	0.000000	-16.000000
2.140000	59.190000	78.140000	436.000000	0.000000	124.000000	62.000000	5.000000	-33.000000
2.150000	59.190000	77.680000	436.000000	0.000000	124.000000	62.000000	0.000000	-46.000000
2.160000	59.190000	77.350000	420.000000	0.000000	123.000000	62.000000	0.000000	-33.000000
2.170000	59.370000	77.140000	417.000000	0.000000	123.000000	62.000000	18.000000	-21.000000
2.180000	59.560000	77.000000	418.000000	0.000000	123.000000	62.000000	19.000000	-14.000000
2.190000	59.820000	77.120000	423.000000	0.000000	121.000000	63.000000	26.000000	12.000000
2.200000	60.120000	77.500000	420.000000	0.000000	121.000000	63.000000	30.000000	38.000000
