t	x	y	pressure	penup	azimuth	inclination	v_x	v_y
0.000000	50.820000	30.120000	254.000000	1.000000	127.000000	56.000000	0.000000	0.000000
0.010000	50.820000	30.770000	296.000000	0.000000	129.000000	56.000000	0.000000	65.000000
0.020000	50.820000	31.040000	309.000000	0.000000	129.000000	56.000000	0.000000	27.000000
0.030000	50.870000	31.170000	345.000000	0.000000	130.000000	55.000000	5.000000	13.000000
0.040000	50.870000	31.220000	373.000000	0.000000	131.000000	56.000000	0.000000	5.000000
0.050000	50.870000	31.140000	376.000000	0.000000	132.000000	55.000000	0.000000	-8.000000
0.060000	50.950000	31.020000	394.000000	0.000000	132.000000	55.000000	8.000000	-12.000000
0.070000	51.040000	30.530000	404.000000	0.000000	132.000000	55.000000	9.000000	-49.000000
0.080000	51.190000	29.810000	422.000000	0.000000	132.000000	55.000000	15.000000	-72.000000
0.090000	51.360000	28.690000	428.000000	0.000000	131.000000	56.000000	17.000000	-112.000000
0.100000	51.560000	27.420000	435.000000	0.000000	131.000000	56.000000	20.000000	-127.000000
0.110000	51.790000	26.050000	440.000000	0.000000	130.000000	56.000000	23.000000	-137.000000
0.120000	52.080000	24.930000	446.000000	0.000000	128.000000	57.000000	29.000000	-112.000000
0.130000	52.430000	24.010000	445.000000	0.000000	127.000000	57.000000	35.000000	-92.000000
0.140000	52.830000	23.230000	453.000000	0.000000	126.000000	58.000000	40.000000	-78.000000
0.150000	53.180000	22.590000	455.000000	0.000000	124.000000	58.000000	35.000000	-64.000000
0.160000	53.400000	22.120000	455.000000	0.000000	124.000000	60.000000	22.000000	-47.000000
0.170000	53.520000	21.770000	455.000000	0.000000	124.000000	60.000000	12.000000	-35.000000
0.180000	53.520000	21.610000	473.000000	0.000000	124.000000	60.000000	0.000000	-16.000000
0.190000	53.340000	21.610000	493.000000	0.000000	124.000000	60.000000	-18.000000	0.000000
0.200000	53.090000	21.690000	489.000000	0.000000	124.000000	60.000000	-25.000000	8.000000
0.210000	52.510000	21.830000	510.000000	0.000000	124.000000	60.000000	-58.000000	14.000000
0.220000	51.520000	22.040000	526.000000	0.000000	125.000000	59.000000	-99.000000	21.000000
0.230000	50.250000	22.290000	561.000000	0.000000	125.000000	59.000000	-127.000000	25.000000
0.240000	48.940000	22.400000	599.000000	0.000000	125.000000	59.000000	-131.000000	11.000000
0.250000	47.580000	22.400000	619.000000	0.000000	125.000000	59.000000	-136.000000	0.000000
0.260000	46.190000	22.400000	658.000000	0.000000	125.000000	59.000000	-139.000000	0.000000
0.270000	45.100000	22.290000	673.000000	0.000000	125.000000	59.000000	-109.000000	-11.000000
0.280000	44.270000	22.150000	667.000000	0.000000	124.000000	58.000000	-83.000000	-14.000000
0.290000	43.620000	21.980000	669.000000	0.000000	125.000000	59.000000	-65.000000	-17.000000
0.300000	43.400000	21.860000	656.000000	0.000000	125.000000	59.000000	-22.000000	-12.000000
0.310000	43.520000	21.810000	647.000000	0.000000	125.000000	59.000000	12.000000	-5.000000
0.320000	43.860000	21.810000	646.000000	0.000000	126.000000	60.000000	34.000000	0.000000
0.330000	44.600000	21.740000	637.000000	0.000000	126.000000	60.000000	74.000000	-7.000000
0.340000	45.660000	21.800000	644.000000	0.000000	126.000000	60.000000	106.000000	6.000000
0.350000	46.940000	21.950000	634.000000	0.000000	128.000000	61.000000	128.000000	15.000000
0.360000	48.530000	22.200000	634.000000	0.000000	128.000000	61.000000	159.000000	25.000000
0.370000	50.150000	22.490000	624.000000	0.000000	128.000000	61.000000	162.000000	29.000000
0.380000	51.970000	22.820000	620.000000	0.000000	126.000000	60.000000	182.000000	33.000000
0.390000	53.910000	23.130000	622.000000	0.000000	126.000000	60.000000	194.000000	31.000000
0.400000	55.510000	23.330000	620.000000	0.000000	128.000000	61.000000	160.000000	20.000000
0.410000	56.720000	23.450000	619.000000	0.000000	128.000000	61.000000	121.000000	12.000000
0.420000	57.680000	23.450000	613.000000	0.000000	128.000000	61.000000	96.000000	0.000000
0.430000	58.120000	23.400000	617.000000	0.000000	128.000000	61.000000	44.000000	-5.000000
0.440000	58.230000	23.400000	613.000000	0.000000	128.000000	61.000000	11.000000	0.000000
0.450000	58.130000	23.400000	616.000000	0.000000	126.000000	60.000000	-10.000000	0.000000
0.460000	57.770000	23.400000	619.000000	0.000000	126.000000	60.000000	-36.000000	0.000000
0.470000	57.190000	23.400000	628.000000	0.000000	126.000000	60.000000	-58.000000	0.000000
0.480000	56.460000	23.400000	638.000000	0.000000	126.000000	60.000000	-73.000000	0.000000
0.490000	55.690000	23.500000	638.000000	0.000000	126.000000	60.000000	-77.000000	10.000000
0.500000	54.930000	23.610000	637.000000	0.000000	126.000000	60.000000	-76.000000	11.000000
0.510000	54.120000	23.790000	647.000000	0.000000	128.000000	61.000000	-81.000000	18.000000
0.520000	53.270000	23.940000	636.000000	0.000000	126.000000	61.000000	-85.000000	15.000000
0.530000	52.490000	24.040000	633.000000	0.000000	126.000000	61.000000	-78.000000	10.000000
0.540000	51.770000	24.150000	636.000000	0.000000	126.000000	61.000000	-72.000000	11.000000
0.550000	51.350000	24.260000	641.000000	0.000000	126.000000	61.000000	-42.000000	11.000000
0.560000	51.110000	24.330000	630.000000	0.000000	126.000000	61.000000	-24.000000	7.000000
0.570000	51.190000	24.330000	620.000000	0.000000	126.000000	61.000000	8.000000	0.000000
0.580000	51.300000	24.330000	611.000000	0.000000	126.000000	61.000000	11.000000	0.000000
0.590000	51.640000	24.330000	610.000000	0.000000	125.000000	60.000000	34.000000	0.000000
0.600000	52.130000	24.250000	599.000000	0.000000	123.000000	61.000000	49.000000	-8.000000
0.610000	52.770000	24.250000	591.000000	0.000000	123.000000	61.000000	64.000000	0.000000
0.620000	53.410000	24.320000	581.000000	0.000000	123.000000	61.000000	64.000000	7.000000
0.630000	53.810000	24.320000	580.000000	0.000000	123.000000	61.000000	40.000000	0.000000
0.640000	54.050000	24.380000	589.000000	0.000000	124.000000	62.000000	24.000000	6.000000
0.650000	54.050000	24.380000	602.000000	0.000000	124.000000	62.000000	0.000000	0.000000
0.660000	53.900000	24.380000	613.000000	0.000000	124.000000	62.000000	-15.000000	0.000000
0.670000	53.640000	24.480000	610.000000	0.000000	124.000000	62.000000	-26.000000	10.000000
0.680000	53.160000	24.570000	641.000000	0.000000	124.000000	62.000000	-48.000000	9.000000
0.690000	52.520000	24.680000	644.000000	0.000000	124.000000	62.000000	-64.000000	11.000000
0.700000	51.770000	24.780000	673.000000	0.000000	124.000000	62.000000	-75.000000	10.000000
0.710000	51.290000	24.880000	669.000000	0.000000	124.000000	62.000000	-48.000000	10.000000
0.720000	50.990000	24.980000	669.000000	0.000000	124.000000	62.000000	-30.000000	10.000000
0.730000	50.820000	25.070000	668.000000	0.000000	124.000000	62.000000	-17.000000	9.000000
0.740000	50.870000	25.070000	640.000000	0.000000	124.000000	62.000000	5.000000	0.000000
0.750000	50.950000	25.070000	630.000000	0.000000	123.000000	61.000000	8.000000	0.000000
0.760000	51.230000	25.070000	611.000000	0.000000	123.000000	61.000000	28.000000	0.000000
0.770000	51.630000	24.970000	606.000000	0.000000	123.000000	61.000000	40.000000	-10.000000
0.780000	52.140000	24.970000	594.000000	0.000000	123.000000	61.000000	51.000000	0.000000
0.790000	52.680000	24.910000	588.000000	0.000000	123.000000	61.000000	54.000000	-6.000000
0.800000	53.020000	24.910000	594.000000	0.000000	124.000000	62.000000	34.000000	0.000000
0.810000	53.230000	24.850000	597.000000	0.000000	124.000000	62.000000	21.000000	-6.000000
0.820000	53.170000	24.850000	617.000000	0.000000	124.000000	62.000000	-6.000000	0.000000
0.830000	52.990000	24.850000	628.000000	0.000000	124.000000	62.000000	-18.000000	0.000000
0.840000	52.740000	24.910000	634.000000	0.000000	124.000000	62.000000	-25.000000	6.000000
0.850000	52.140000	24.970000	653.000000	0.000000	124.000000	62.000000	-60.000000	6.000000
0.860000	51.500000	25.040000	691.000000	0.000000	124.000000	62.000000	-64.000000	7.000000
0.870000	50.820000	25.130000	681.000000	0.000000	124.000000	62.000000	-68.000000	9.000000
0.880000	50.480000	25.290000	688.000000	0.000000	124.000000	62.000000	-34.000000	16.000000
0.890000	50.320000	25.490000	678.000000	0.000000	124.000000	62.000000	-16.000000	20.000000
0.900000	50.320000	25.610000	653.000000	0.000000	124.000000	62.000000	0.000000	12.000000
0.910000	50.370000	25.730000	634.000000	0.000000	125.000000	60.000000	5.000000	12.000000
0.920000	50.650000	25.820000	616.000000	0.000000	125.000000	60.000000	28.000000	9.000000
0.930000	51.060000	25.890000	594.000000	0.000000	125.000000	60.000000	41.000000	7.000000
0.940000	51.600000	25.800000	591.000000	0.000000	125.000000	60.000000	54.000000	-9.000000
0.950000	52.170000	25.670000	578.000000	0.000000	125.000000	60.000000	57.000000	-13.000000
0.960000	52.630000	25.490000	570.000000	0.000000	125.000000	60.000000	46.000000	-18.000000
0.970000	53.000000	25.360000	572.000000	0.000000	125.000000	60.000000	37.000000	-13.000000
0.980000	53.200000	25.250000	577.000000	0.000000	126.000000	61.000000	20.000000	-11.000000
0.990000	53.280000	25.170000	588.000000	0.000000	126.000000	61.000000	8.000000	-8.000000
1.000000	53.280000	25.170000	586.000000	0.000000	124.000000	62.000000	0.000000	0.000000
1.010000	53.280000	25.170000	595.000000	0.000000	124.000000	62.000000	0.000000	0.000000
1.020000	53.230000	25.170000	603.000000	0.000000	124.000000	62.000000	-5.000000	0.000000
1.030000	53.230000	25.170000	603.000000	0.000000	124.000000	62.000000	0.000000	0.000000
1.040000	53.230000	25.170000	603.000000	0.000000	124.000000	62.000000	0.000000	0.000000
1.050000	53.230000	25.170000	603.000000	0.000000	124.000000	62.000000	0.000000	0.000000
1.060000	53.230000	25.170000	600.000000	0.000000	124.000000	62.000000	0.000000	0.000000
1.070000	53.230000	25.170000	602.000000	0.000000	124.000000	62.000000	0.000000	0.000000
1.080000	53.230000	25.170000	605.000000	0.000000	124.000000	62.000000	0.000000	0.000000
1.090000	53.230000	25.170000	597.000000	0.000000	124.000000	62.000000	0.000000	0.000000
1.100000	53.230000	25.170000	588.000000	0.000000	124.000000	62.000000	0.000000	0.000000
1.110000	53.230000	25.250000	589.000000	0.000000	124.000000	62.000000	0.000000	8.000000
1.120000	53.410000	25.380000	578.000000	0.000000	124.000000	62.000000	18.000000	13.000000
1.130000	53.570000	25.460000	570.000000	0.000000	124.000000	62.000000	16.000000	8.000000
1.140000	53.760000	25.460000	570.000000	0.000000	124.000000	62.000000	19.000000	0.000000
1.150000	53.970000	25.460000	561.000000	0.000000	124.000000	62.000000	21.000000	0.000000
1.160000	54.170000	25.380000	563.000000	0.000000	124.000000	62.000000	20.000000	-8.000000
1.170000	54.380000	25.250000	567.000000	0.000000	124.000000	62.000000	21.000000	-13.000000
1.180000	54.560000	25.140000	572.000000	0.000000	124.000000	62.000000	18.000000	-11.000000
1.190000	54.760000	25.040000	589.000000	0.000000	124.000000	62.000000	20.000000	-10.000000
1.200000	54.980000	25.040000	586.000000	0.000000	124.000000	62.000000	22.000000	0.000000
1.210000	55.220000	25.110000	589.000000	0.000000	124.000000	62.000000	24.000000	7.000000
1.220000	55.510000	25.360000	585.000000	0.000000	123.000000	62.000000	29.000000	25.000000
1.230000	55.880000	25.890000	586.000000	0.000000	124.000000	63.000000	37.000000	53.000000
1.240000	56.330000	26.600000	583.000000	0.000000	124.000000	63.000000	45.000000	71.000000
1.250000	56.780000	27.540000	569.000000	0.000000	126.000000	62.000000	45.000000	94.000000
1.260000	57.180000	28.660000	560.000000	0.000000	126.000000	62.000000	40.000000	112.000000
1.270000	57.540000	29.910000	533.000000	0.000000	127.000000	62.000000	36.000000	125.000000
1.280000	57.820000	31.260000	501.000000	0.000000	129.000000	61.000000	28.000000	135.000000
1.290000	57.980000	32.630000	495.000000	0.000000	131.000000	61.000000	16.000000	137.000000
1.300000	58.060000	34.020000	494.000000	0.000000	132.000000	60.000000	8.000000	139.000000
1.310000	58.060000	34.960000	509.000000	0.000000	134.000000	60.000000	0.000000	94.000000
1.320000	57.940000	35.110000	510.000000	0.000000	135.000000	59.000000	-12.000000	15.000000
1.330000	57.800000	34.730000	533.000000	0.000000	135.000000	59.000000	-14.000000	-38.000000
1.340000	57.470000	33.700000	551.000000	0.000000	135.000000	59.000000	-33.000000	-103.000000
1.350000	57.100000	31.990000	583.000000	0.000000	136.000000	58.000000	-37.000000	-171.000000
1.360000	56.690000	29.820000	591.000000	0.000000	135.000000	59.000000	-41.000000	-217.000000
1.370000	56.260000	27.200000	620.000000	0.000000	135.000000	59.000000	-43.000000	-262.000000
1.380000	55.870000	25.020000	636.000000	0.000000	134.000000	60.000000	-39.000000	-218.000000
1.390000	55.510000	23.140000	636.000000	0.000000	134.000000	60.000000	-36.000000	-188.000000
1.400000	55.510000	22.180000	636.000000	0.000000	132.000000	60.000000	0.000000	-96.000000
1.410000	55.570000	21.610000	630.000000	0.000000	132.000000	60.000000	6.000000	-57.000000
1.420000	55.680000	21.310000	592.000000	0.000000	131.000000	61.000000	11.000000	-30.000000
1.430000	55.790000	21.310000	526.000000	0.000000	131.000000	61.000000	11.000000	0.000000
1.440000	55.920000	21.600000	399.000000	0.000000	129.000000	61.000000	13.000000	29.000000
1.450000	56.130000	22.000000	190.000000	0.000000	129.000000	61.000000	21.000000	40.000000
1.460000	56.130000	22.000000	0.000000	1.000000	129.000000	61.000000	0.000000	0.000000
1.470000	56.320000	22.720000	0.000000	0.000000	129.000000	61.000000	19.000000	72.000000
1.480000	56.320000	22.840000	0.000000	0.000000	129.000000	61.000000	0.000000	12.000000
1.490000	56.320000	22.890000	0.000000	0.000000	130.000000	62.000000	0.000000	5.000000
1.500000	56.260000	22.890000	0.000000	0.000000	130.000000	62.000000	-6.000000	0.000000
1.510000	56.260000	22.970000	0.000000	0.000000	130.000000	62.000000	0.000000	8.000000
1.520000	56.320000	22.970000	0.000000	0.000000	130.000000	62.000000	6.000000	0.000000
1.530000	56.450000	23.080000	0.000000	0.000000	132.000000	63.000000	13.000000	11.000000
1.540000	56.740000	23.180000	0.000000	0.000000	132.000000	63.000000	29.000000	10.000000
1.550000	57.130000	23.260000	0.000000	0.000000	133.000000	62.000000	39.000000	8.000000
1.560000	57.700000	23.400000	0.000000	0.000000	133.000000	62.000000	57.000000	14.000000
1.570000	58.330000	23.570000	0.000000	0.000000	135.000000	62.000000	63.000000	17.000000
1.580000	59.070000	23.770000	0.000000	0.000000	134.000000	61.000000	74.000000	20.000000
1.590000	59.860000	23.950000	0.000000	0.000000	134.000000	60.000000	79.000000	18.000000
1.600000	60.480000	24.070000	0.000000	0.000000	132.000000	59.000000	62.000000	12.000000
1.610000	60.940000	24.120000	0.000000	0.000000	131.000000	58.000000	46.000000	5.000000
1.620000	61.290000	24.120000	0.000000	0.000000	130.000000	58.000000	35.000000	0.000000
1.630000	61.290000	24.120000	0.000000	0.000000	130.000000	58.000000	0.000000	0.000000
1.640000	61.290000	24.120000	0.000000	0.000000	128.000000	57.000000	0.000000	0.000000
1.650000	60.970000	23.980000	0.000000	0.000000	127.000000	56.000000	-32.000000	-14.000000
1.660000	60.500000	23.840000	0.000000	0.000000	127.000000	56.000000	-47.000000	-14.000000
1.670000	59.920000	23.670000	0.000000	0.000000	127.000000	56.000000	-58.000000	-17.000000
1.680000	59.270000	23.450000	0.000000	0.000000	127.000000	56.000000	-65.000000	-22.000000
1.690000	58.580000	23.190000	0.000000	0.000000	126.000000	57.000000	-69.000000	-26.000000
1.700000	57.920000	23.000000	0.000000	0.000000	127.000000	57.000000	-66.000000	-19.000000
1.710000	57.350000	22.860000	0.000000	0.000000	127.000000	57.000000	-57.000000	-14.000000
1.720000	56.840000	22.800000	0.000000	0.000000	128.000000	58.000000	-51.000000	-6.000000
1.730000	56.540000	22.860000	0.000000	0.000000	127.000000	59.000000	-30.000000	6.000000
1.740000	56.360000	23.010000	0.000000	0.000000	128.000000	59.000000	-18.000000	15.000000
1.750000	56.440000	23.200000	0.000000	0.000000	129.000000	60.000000	8.000000	19.000000
1.760000	56.540000	23.350000	0.000000	0.000000	128.000000	61.000000	10.000000	15.000000
1.770000	56.780000	23.460000	0.000000	0.000000	129.000000	61.000000	24.000000	11.000000
1.780000	57.100000	23.570000	0.000000	0.000000	130.000000	62.000000	32.000000	11.000000
1.790000	57.530000	23.720000	0.000000	0.000000	129.000000	63.000000	43.000000	15.000000
1.800000	57.960000	23.870000	0.000000	0.000000	129.000000	63.000000	43.000000	15.000000
1.810000	58.400000	24.030000	0.000000	0.000000	129.000000	63.000000	44.000000	16.000000
1.820000	58.790000	24.160000	0.000000	0.000000	127.000000	62.000000	39.000000	13.000000
1.830000	59.150000	24.270000	0.000000	0.000000	127.000000	62.000000	36.000000	11.000000
1.840000	59.480000	24.340000	0.000000	0.000000	127.000000	62.000000	33.000000	7.000000
1.850000	59.820000	24.340000	0.000000	0.000000	127.000000	62.000000	34.000000	0.000000
1.860000	60.090000	24.340000	0.000000	0.000000	127.000000	62.000000	27.000000	0.000000
1.870000	60.300000	24.340000	0.000000	0.000000	127.000000	62.000000	21.000000	0.000000
1.880000	60.380000	24.280000	0.000000	0.000000	127.000000	62.000000	8.000000	-6.000000
1.890000	60.380000	24.280000	0.000000	0.000000	127.000000	62.000000	0.000000	0.000000
1.900000	60.380000	24.280000	24.000000	1.000000	126.000000	61.000000	0.000000	0.000000
1.910000	60.070000	24.340000	25.000000	0.000000	124.000000	62.000000	-31.000000	6.000000
1.920000	59.900000	24.410000	48.000000	0.000000	124.000000	62.000000	-17.000000	7.000000
1.930000	59.720000	24.510000	94.000000	0.000000	123.000000	61.000000	-18.000000	10.000000
1.940000	59.530000	24.630000	142.000000	0.000000	123.000000	61.000000	-19.000000	12.000000
1.950000	59.350000	24.760000	200.000000	0.000000	120.000000	60.000000	-18.000000	13.000000
1.960000	59.130000	24.840000	249.000000	0.000000	120.000000	60.000000	-22.000000	8.000000
1.970000	58.890000	24.900000	294.000000	0.000000	120.000000	60.000000	-24.000000	6.000000
1.980000	58.620000	24.900000	372.000000	0.000000	119.000000	60.000000	-27.000000	0.000000
1.990000	58.370000	24.830000	396.000000	0.000000	119.000000	60.000000	-25.000000	-7.000000
2.000000	58.150000	24.730000	394.000000	0.000000	119.000000	60.000000	-22.000000	-10.000000
2.010000	57.980000	24.640000	396.000000	0.000000	119.000000	60.000000	-17.000000	-9.000000
2.020000	57.980000	24.500000	397.000000	0.000000	119.000000	60.000000	0.000000	-14.000000
2.030000	57.980000	24.310000	388.000000	0.000000	119.000000	60.000000	0.000000	-19.000000
2.040000	58.110000	24.090000	387.000000	0.000000	119.000000	60.000000	13.000000	-22.000000
2.050000	58.280000	23.910000	386.000000	0.000000	119.000000	60.000000	17.000000	-18.000000
2.060000	58.460000	23.770000	379.000000	0.000000	119.000000	60.000000	18.000000	-14.000000
2.070000	58.640000	23.670000	379.000000	0.000000	121.000000	59.000000	18.000000	-10.000000
2.080000	58.820000	23.670000	367.000000	0.000000	121.000000	59.000000	18.000000	0.000000
2.090000	59.000000	23.670000	371.000000	0.000000	121.000000	59.000000	18.000000	0.000000
2.100000	59.190000	23.750000	363.000000	0.000000	121.000000	59.000000	19.000000	8.000000
2.110000	59.350000	23.940000	351.000000	0.000000	121.000000	59.000000	16.000000	19.000000
2.120000	59.520000	24.190000	348.000000	0.000000	121.000000	59.000000	17.000000	25.000000
2.130000	59.620000	24.430000	343.000000	0.000000	122.000000	60.000000	10.000000	24.000000
2.140000	59.620000	24.640000	346.000000	0.000000	122.000000	60.000000	0.000000	21.000000
2.150000	59.700000	24.800000	348.000000	0.000000	122.000000	60.000000	8.000000	16.000000
2.160000	59.700000	24.920000	349.000000	0.000000	122.000000	60.000000	0.000000	12.000000
2.170000	59.700000	24.920000	348.000000	0.000000	120.000000	60.000000	0.000000	0.000000
2.180000	59.700000	24.920000	353.000000	0.000000	120.000000	60.000000	0.000000	0.000000
2.190000	59.700000	24.750000	359.000000	0.000000	120.000000	60.000000	0.000000	-17.000000
2.200000	59.700000	24.440000	361.000000	0.000000	120.000000	60.000000	0.000000	-31.000000
2.210000	59.780000	24.020000	369.000000	0.000000	120.000000	60.000000	8.000000	-42.000000
