t	x	y	pressure	penup	azimuth	inclination	v_x	v_y
0.000000	53.630000	68.070000	113.000000	1.000000	175.000000	52.000000	0.000000	0.000000
0.010000	53.530000	70.130000	245.000000	0.000000	174.000000	51.000000	-10.000000	206.000000
0.020000	53.480000	70.790000	362.000000	0.000000	174.000000	51.000000	-5.000000	66.000000
0.030000	53.480000	71.240000	453.000000	0.000000	174.000000	50.000000	0.000000	45.000000
0.040000	53.480000	71.240000	496.000000	0.000000	174.000000	49.000000	0.000000	0.000000
0.050000	53.480000	71.020000	536.000000	0.000000	174.000000	48.000000	0.000000	-22.000000
0.060000	53.570000	70.600000	620.000000	0.000000	175.000000	47.000000	9.000000	-42.000000
0.070000	53.810000	69.550000	669.000000	0.000000	175.000000	47.000000	24.000000	-105.000000
0.080000	54.180000	68.190000	739.000000	0.000000	175.000000	47.000000	37.000000	-136.000000
0.090000	54.260000	66.620000	791.000000	0.000000	173.000000	48.000000	8.000000	-157.000000
0.100000	54.340000	64.720000	794.000000	0.000000	173.000000	49.000000	8.000000	-190.000000
0.110000	54.340000	62.780000	793.000000	0.000000	173.000000	50.000000	0.000000	-194.000000
0.120000	54.340000	60.810000	794.000000	0.000000	173.000000	51.000000	0.000000	-197.000000
0.130000	54.410000	59.100000	799.000000	0.000000	171.000000	52.000000	7.000000	-171.000000
0.140000	54.610000	57.940000	802.000000	0.000000	171.000000	53.000000	20.000000	-116.000000
0.150000	54.870000	57.150000	805.000000	0.000000	169.000000	54.000000	26.000000	-79.000000
0.160000	54.940000	56.720000	806.000000	0.000000	168.000000	55.000000	7.000000	-43.000000
0.170000	55.020000	56.570000	815.000000	0.000000	167.000000	57.000000	8.000000	-15.000000
0.180000	55.020000	56.570000	823.000000	0.000000	165.000000	58.000000	0.000000	0.000000
0.190000	54.880000	56.770000	802.000000	0.000000	165.000000	59.000000	-14.000000	20.000000
0.200000	54.520000	57.170000	765.000000	0.000000	164.000000	60.000000	-36.000000	40.000000
0.210000	53.830000	57.720000	731.000000	0.000000	162.000000	60.000000	-69.000000	55.000000
0.220000	52.910000	58.370000	696.000000	0.000000	162.000000	60.000000	-92.000000	65.000000
0.230000	51.850000	58.730000	676.000000	0.000000	162.000000	60.000000	-106.000000	36.000000
0.240000	50.590000	58.910000	696.000000	0.000000	161.000000	59.000000	-126.000000	18.000000
0.250000	49.200000	58.860000	711.000000	0.000000	161.000000	59.000000	-139.000000	-5.000000
0.260000	47.870000	58.700000	721.000000	0.000000	161.000000	57.000000	-133.000000	-16.000000
0.270000	46.560000	58.470000	724.000000	0.000000	161.000000	57.000000	-131.000000	-23.000000
0.280000	45.520000	58.140000	745.000000	0.000000	159.000000	57.000000	-104.000000	-33.000000
0.290000	44.640000	57.810000	754.000000	0.000000	158.000000	56.000000	-88.000000	-33.000000
0.300000	44.060000	57.470000	765.000000	0.000000	157.000000	56.000000	-58.000000	-34.000000
0.310000	43.780000	57.270000	773.000000	0.000000	153.000000	56.000000	-28.000000	-20.000000
0.320000	43.710000	57.160000	771.000000	0.000000	152.000000	56.000000	-7.000000	-11.000000
0.330000	43.710000	57.160000	773.000000	0.000000	150.000000	55.000000	0.000000	0.000000
0.340000	43.840000	57.160000	782.000000	0.000000	150.000000	55.000000	13.000000	0.000000
0.350000	44.330000	57.160000	793.000000	0.000000	149.000000	55.000000	49.000000	0.000000
0.360000	45.060000	57.300000	782.000000	0.000000	147.000000	55.000000	73.000000	14.000000
0.370000	46.330000	57.590000	765.000000	0.000000	147.000000	55.000000	127.000000	29.000000
0.380000	47.960000	57.980000	754.000000	0.000000	147.000000	55.000000	163.000000	39.000000
0.390000	49.830000	58.550000	746.000000	0.000000	147.000000	55.000000	187.000000	57.000000
0.400000	51.840000	59.150000	736.000000	0.000000	147.000000	55.000000	201.000000	60.000000
0.410000	53.900000	59.780000	754.000000	0.000000	148.000000	54.000000	206.000000	63.000000
0.420000	55.980000	60.290000	757.000000	0.000000	150.000000	54.000000	208.000000	51.000000
0.430000	57.860000	60.750000	768.000000	0.000000	152.000000	54.000000	188.000000	46.000000
0.440000	59.080000	61.100000	773.000000	0.000000	153.000000	54.000000	122.000000	35.000000
0.450000	59.860000	61.280000	768.000000	0.000000	156.000000	53.000000	78.000000	18.000000
0.460000	60.060000	61.360000	768.000000	0.000000	157.000000	54.000000	20.000000	8.000000
0.470000	59.970000	61.290000	770.000000	0.000000	158.000000	54.000000	-9.000000	-7.000000
0.480000	59.680000	61.180000	782.000000	0.000000	159.000000	53.000000	-29.000000	-11.000000
0.490000	58.670000	60.870000	788.000000	0.000000	159.000000	53.000000	-101.000000	-31.000000
0.500000	57.100000	60.460000	788.000000	0.000000	159.000000	53.000000	-157.000000	-41.000000
0.510000	55.160000	59.980000	793.000000	0.000000	159.000000	53.000000	-194.000000	-48.000000
0.520000	53.230000	59.500000	818.000000	0.000000	159.000000	53.000000	-193.000000	-48.000000
0.530000	51.310000	59.110000	828.000000	0.000000	158.000000	53.000000	-192.000000	-39.000000
0.540000	49.960000	58.780000	857.000000	0.000000	157.000000	54.000000	-135.000000	-33.000000
0.550000	48.990000	58.570000	876.000000	0.000000	157.000000	54.000000	-97.000000	-21.000000
0.560000	48.370000	58.510000	908.000000	0.000000	157.000000	54.000000	-62.000000	-6.000000
0.570000	48.130000	58.510000	921.000000	0.000000	155.000000	54.000000	-24.000000	0.000000
0.580000	48.130000	58.590000	906.000000	0.000000	153.000000	54.000000	0.000000	8.000000
0.590000	48.220000	58.710000	902.000000	0.000000	153.000000	54.000000	9.000000	12.000000
0.600000	48.770000	59.000000	857.000000	0.000000	152.000000	54.000000	55.000000	29.000000
0.610000	49.630000	59.370000	818.000000	0.000000	152.000000	54.000000	86.000000	37.000000
0.620000	50.960000	59.820000	803.000000	0.000000	152.000000	54.000000	133.000000	45.000000
0.630000	52.380000	60.270000	784.000000	0.000000	152.000000	54.000000	142.000000	45.000000
0.640000	53.860000	60.720000	784.000000	0.000000	152.000000	54.000000	148.000000	45.000000
0.650000	55.140000	61.150000	784.000000	0.000000	153.000000	54.000000	128.000000	43.000000
0.660000	56.040000	61.520000	784.000000	0.000000	156.000000	53.000000	90.000000	37.000000
0.670000	56.690000	61.720000	787.000000	0.000000	156.000000	53.000000	65.000000	20.000000
0.680000	56.760000	61.820000	787.000000	0.000000	158.000000	53.000000	7.000000	10.000000
0.690000	56.640000	61.770000	793.000000	0.000000	159.000000	53.000000	-12.000000	-5.000000
0.700000	56.400000	61.670000	793.000000	0.000000	160.000000	53.000000	-24.000000	-10.000000
0.710000	55.660000	61.500000	796.000000	0.000000	161.000000	52.000000	-74.000000	-17.000000
0.720000	54.670000	61.260000	785.000000	0.000000	162.000000	53.000000	-99.000000	-24.000000
0.730000	53.520000	61.010000	788.000000	0.000000	162.000000	53.000000	-115.000000	-25.000000
0.740000	52.530000	60.830000	797.000000	0.000000	162.000000	53.000000	-99.000000	-18.000000
0.750000	51.880000	60.690000	805.000000	0.000000	162.000000	53.000000	-65.000000	-14.000000
0.760000	51.450000	60.690000	815.000000	0.000000	161.000000	52.000000	-43.000000	0.000000
0.770000	51.450000	60.690000	818.000000	0.000000	161.000000	52.000000	0.000000	0.000000
0.780000	51.450000	60.690000	812.000000	0.000000	160.000000	52.000000	0.000000	0.000000
0.790000	51.950000	61.010000	787.000000	0.000000	160.000000	52.000000	50.000000	32.000000
0.800000	52.560000	61.280000	782.000000	0.000000	158.000000	52.000000	61.000000	27.000000
0.810000	53.470000	61.590000	756.000000	0.000000	158.000000	52.000000	91.000000	31.000000
0.820000	54.280000	61.860000	763.000000	0.000000	158.000000	52.000000	81.000000	27.000000
0.830000	55.010000	62.080000	733.000000	0.000000	158.000000	52.000000	73.000000	22.000000
0.840000	55.470000	62.230000	722.000000	0.000000	160.000000	52.000000	46.000000	15.000000
0.850000	55.740000	62.310000	722.000000	0.000000	160.000000	52.000000	27.000000	8.000000
0.860000	55.890000	62.310000	707.000000	0.000000	161.000000	52.000000	15.000000	0.000000
0.870000	55.780000	62.310000	705.000000	0.000000	161.000000	52.000000	-11.000000	0.000000
0.880000	55.420000	62.220000	713.000000	0.000000	162.000000	53.000000	-36.000000	-9.000000
0.890000	54.900000	62.100000	721.000000	0.000000	162.000000	53.000000	-52.000000	-12.000000
0.900000	54.000000	61.950000	716.000000	0.000000	163.000000	52.000000	-90.000000	-15.000000
0.910000	53.150000	61.810000	724.000000	0.000000	163.000000	52.000000	-85.000000	-14.000000
0.920000	52.410000	61.660000	751.000000	0.000000	162.000000	53.000000	-74.000000	-15.000000
0.930000	51.770000	61.600000	749.000000	0.000000	162.000000	53.000000	-64.000000	-6.000000
0.940000	51.550000	61.600000	754.000000	0.000000	161.000000	52.000000	-22.000000	0.000000
0.950000	51.610000	61.660000	751.000000	0.000000	161.000000	52.000000	6.000000	6.000000
0.960000	51.890000	61.820000	720.000000	0.000000	161.000000	52.000000	28.000000	16.000000
0.970000	52.640000	62.050000	702.000000	0.000000	160.000000	52.000000	75.000000	23.000000
0.980000	53.710000	62.440000	670.000000	0.000000	160.000000	52.000000	107.000000	39.000000
0.990000	54.720000	62.960000	658.000000	0.000000	160.000000	52.000000	101.000000	52.000000
1.000000	55.660000	63.580000	638.000000	0.000000	161.000000	52.000000	94.000000	62.000000
1.010000	56.550000	64.280000	649.000000	0.000000	161.000000	52.000000	89.000000	70.000000
1.020000	57.330000	65.010000	646.000000	0.000000	163.000000	52.000000	78.000000	73.000000
1.030000	57.820000	65.750000	647.000000	0.000000	164.000000	52.000000	49.000000	74.000000
1.040000	58.110000	66.510000	641.000000	0.000000	164.000000	53.000000	29.000000	76.000000
1.050000	58.110000	67.360000	628.000000	0.000000	165.000000	53.000000	0.000000	85.000000
1.060000	58.030000	68.260000	619.000000	0.000000	165.000000	53.000000	-8.000000	90.000000
1.070000	57.850000	69.230000	614.000000	0.000000	166.000000	52.000000	-18.000000	97.000000
1.080000	57.630000	70.170000	628.000000	0.000000	167.000000	52.000000	-22.000000	94.000000
1.090000	57.420000	70.660000	647.000000	0.000000	167.000000	51.000000	-21.000000	49.000000
1.100000	57.350000	70.860000	646.000000	0.000000	168.000000	50.000000	-7.000000	20.000000
1.110000	57.350000	70.860000	664.000000	0.000000	169.000000	50.000000	0.000000	0.000000
1.120000	57.400000	70.490000	663.000000	0.000000	170.000000	49.000000	5.000000	-37.000000
1.130000	57.460000	69.980000	703.000000	0.000000	171.000000	48.000000	6.000000	-51.000000
1.140000	57.460000	68.790000	756.000000	0.000000	171.000000	48.000000	0.000000	-119.000000
1.150000	57.460000	67.380000	806.000000	0.000000	171.000000	48.000000	0.000000	-141.000000
1.160000	57.570000	65.820000	828.000000	0.000000	171.000000	49.000000	11.000000	-156.000000
1.170000	57.400000	63.870000	854.000000	0.000000	170.000000	50.000000	-17.000000	-195.000000
1.180000	57.040000	62.230000	861.000000	0.000000	170.000000	51.000000	-36.000000	-164.000000
1.190000	56.960000	60.800000	869.000000	0.000000	170.000000	52.000000	-8.000000	-143.000000
1.200000	56.960000	59.500000	869.000000	0.000000	168.000000	52.000000	0.000000	-130.000000
1.210000	56.960000	58.780000	854.000000	0.000000	168.000000	53.000000	0.000000	-72.000000
1.220000	56.890000	58.450000	834.000000	0.000000	166.000000	54.000000	-7.000000	-33.000000
1.230000	56.960000	58.450000	823.000000	0.000000	166.000000	54.000000	7.000000	0.000000
1.240000	57.040000	58.540000	750.000000	0.000000	164.000000	55.000000	8.000000	9.000000
1.250000	57.130000	58.740000	647.000000	0.000000	164.000000	55.000000	9.000000	20.000000
1.260000	57.550000	59.470000	471.000000	0.000000	163.000000	56.000000	42.000000	73.000000
1.270000	57.880000	60.210000	191.000000	0.000000	162.000000	56.000000	33.000000	74.000000
1.280000	57.880000	60.210000	0.000000	1.000000	163.000000	56.000000	0.000000	0.000000
1.290000	57.880000	60.210000	3.000000	0.000000	163.000000	56.000000	0.000000	0.000000
1.300000	58.780000	62.000000	75.000000	1.000000	163.000000	56.000000	0.000000	0.000000
1.310000	59.030000	62.270000	141.000000	0.000000	165.000000	55.000000	25.000000	27.000000
1.320000	59.240000	62.410000	217.000000	0.000000	167.000000	54.000000	21.000000	14.000000
1.330000	59.380000	62.410000	284.000000	0.000000	169.000000	54.000000	14.000000	0.000000
1.340000	59.520000	62.210000	348.000000	0.000000	170.000000	55.000000	14.000000	-20.000000
1.350000	59.520000	61.950000	391.000000	0.000000	172.000000	54.000000	0.000000	-26.000000
1.360000	59.520000	61.670000	422.000000	0.000000	172.000000	54.000000	0.000000	-28.000000
1.370000	59.330000	61.360000	464.000000	0.000000	173.000000	54.000000	-19.000000	-31.000000
1.380000	59.020000	61.130000	520.000000	0.000000	172.000000	54.000000	-31.000000	-23.000000
1.390000	58.630000	60.950000	516.000000	0.000000	172.000000	54.000000	-39.000000	-18.000000
1.400000	58.340000	60.950000	512.000000	0.000000	170.000000	54.000000	-29.000000	0.000000
1.410000	58.100000	61.140000	499.000000	0.000000	169.000000	53.000000	-24.000000	19.000000
1.420000	57.900000	61.370000	452.000000	0.000000	168.000000	53.000000	-20.000000	23.000000
1.430000	57.710000	61.710000	443.000000	0.000000	166.000000	53.000000	-19.000000	34.000000
1.440000	57.710000	62.040000	438.000000	0.000000	166.000000	53.000000	0.000000	33.000000
1.450000	57.880000	62.370000	450.000000	0.000000	165.000000	53.000000	17.000000	33.000000
1.460000	58.150000	62.520000	486.000000	0.000000	165.000000	53.000000	27.000000	15.000000
1.470000	58.550000	62.520000	516.000000	0.000000	165.000000	53.000000	40.000000	0.000000
1.480000	58.940000	62.410000	544.000000	0.000000	166.000000	53.000000	39.000000	-11.000000
1.490000	59.340000	62.260000	570.000000	0.000000	166.000000	53.000000	40.000000	-15.000000
1.500000	59.650000	62.110000	591.000000	0.000000	166.000000	53.000000	31.000000	-15.000000
1.510000	59.900000	62.030000	613.000000	0.000000	166.000000	53.000000	25.000000	-8.000000
1.520000	60.000000	62.030000	636.000000	0.000000	166.000000	52.000000	10.000000	0.000000
1.530000	60.160000	62.030000	641.000000	0.000000	166.000000	52.000000	16.000000	0.000000
1.540000	60.420000	62.320000	640.000000	0.000000	166.000000	52.000000	26.000000	29.000000
1.550000	60.720000	62.690000	638.000000	0.000000	166.000000	52.000000	30.000000	37.000000
1.560000	61.010000	63.210000	638.000000	0.000000	167.000000	52.000000	29.000000	52.000000
1.570000	61.250000	63.830000	627.000000	0.000000	167.000000	52.000000	24.000000	62.000000
1.580000	61.490000	64.530000	616.000000	0.000000	168.000000	52.000000	24.000000	70.000000
1.590000	61.590000	65.350000	570.000000	0.000000	168.000000	53.000000	10.000000	82.000000
1.600000	61.590000	66.290000	519.000000	0.000000	169.000000	53.000000	0.000000	94.000000
1.610000	61.460000	67.320000	453.000000	0.000000	170.000000	54.000000	-13.000000	103.000000
1.620000	61.190000	68.480000	450.000000	0.000000	171.000000	53.000000	-27.000000	116.000000
1.630000	60.850000	69.650000	456.000000	0.000000	172.000000	53.000000	-34.000000	117.000000
1.640000	60.570000	70.830000	467.000000	0.000000	172.000000	52.000000	-28.000000	118.000000
1.650000	60.310000	71.370000	478.000000	0.000000	172.000000	52.000000	-26.000000	54.000000
1.660000	60.240000	71.430000	481.000000	0.000000	173.000000	51.000000	-7.000000	6.000000
1.670000	60.240000	71.170000	522.000000	0.000000	173.000000	50.000000	0.000000	-26.000000
1.680000	60.300000	70.440000	557.000000	0.000000	172.000000	49.000000	6.000000	-73.000000
1.690000	60.400000	69.320000	591.000000	0.000000	172.000000	48.000000	10.000000	-112.000000
1.700000	60.560000	67.940000	628.000000	0.000000	172.000000	48.000000	16.000000	-138.000000
1.710000	60.650000	66.430000	656.000000	0.000000	171.000000	48.000000	9.000000	-151.000000
1.720000	60.590000	64.780000	667.000000	0.000000	171.000000	49.000000	-6.000000	-165.000000
1.730000	60.470000	63.050000	667.000000	0.000000	170.000000	50.000000	-12.000000	-173.000000
1.740000	60.470000	61.780000	670.000000	0.000000	170.000000	51.000000	0.000000	-127.000000
1.750000	60.390000	60.890000	670.000000	0.000000	170.000000	52.000000	-8.000000	-89.000000
1.760000	60.520000	60.250000	673.000000	0.000000	168.000000	52.000000	13.000000	-64.000000
1.770000	60.760000	59.900000	690.000000	0.000000	168.000000	53.000000	24.000000	-35.000000
1.780000	61.020000	59.750000	696.000000	0.000000	168.000000	53.000000	26.000000	-15.000000
1.790000	61.310000	59.750000	693.000000	0.000000	166.000000	54.000000	29.000000	0.000000
1.800000	61.690000	59.930000	670.000000	0.000000	166.000000	54.000000	38.000000	18.000000
1.810000	62.110000	60.440000	616.000000	0.000000	166.000000	54.000000	42.000000	51.000000
1.820000	62.350000	61.150000	530.000000	0.000000	167.000000	54.000000	24.000000	71.000000
1.830000	62.480000	62.040000	489.000000	0.000000	167.000000	54.000000	13.000000	89.000000
1.840000	62.480000	62.930000	509.000000	0.000000	167.000000	54.000000	0.000000	89.000000
1.850000	62.380000	63.830000	543.000000	0.000000	169.000000	54.000000	-10.000000	90.000000
1.860000	62.210000	64.090000	542.000000	0.000000	169.000000	53.000000	-17.000000	26.000000
1.870000	62.210000	63.930000	577.000000	0.000000	170.000000	54.000000	0.000000	-16.000000
1.880000	62.210000	63.480000	617.000000	0.000000	170.000000	54.000000	0.000000	-45.000000
1.890000	62.270000	62.880000	647.000000	0.000000	171.000000	53.000000	6.000000	-60.000000
1.900000	62.390000	62.350000	659.000000	0.000000	171.000000	53.000000	12.000000	-53.000000
1.910000	62.460000	61.870000	670.000000	0.000000	171.000000	53.000000	7.000000	-48.000000
1.920000	62.460000	61.530000	664.000000	0.000000	169.000000	53.000000	0.000000	-34.000000
1.930000	62.460000	61.410000	699.000000	0.000000	169.000000	53.000000	0.000000	-12.000000
1.940000	62.460000	61.410000	727.000000	0.000000	169.000000	53.000000	0.000000	0.000000
1.950000	62.520000	61.540000	720.000000	0.000000	169.000000	53.000000	6.000000	13.000000
1.960000	62.610000	61.840000	687.000000	0.000000	168.000000	52.000000	9.000000	30.000000
1.970000	62.770000	62.280000	664.000000	0.000000	168.000000	52.000000	16.000000	44.000000
1.980000	62.930000	62.790000	620.000000	0.000000	168.000000	52.000000	16.000000	51.000000
1.990000	63.060000	63.260000	548.000000	0.000000	169.000000	53.000000	13.000000	47.000000
2.000000	63.170000	63.500000	443.000000	0.000000	169.000000	53.000000	11.000000	24.000000
2.010000	63.320000	63.600000	319.000000	0.000000	169.000000	53.000000	15.000000	10.000000
2.020000	63.620000	63.600000	237.000000	0.000000	171.000000	53.000000	30.000000	0.000000
2.030000	64.030000	63.600000	161.000000	0.000000	171.000000	53.000000	41.000000	0.000000
2.040000	64.400000	63.670000	129.000000	0.000000	171.000000	53.000000	37.000000	7.000000
2.050000	64.740000	63.670000	113.000000	0.000000	171.000000	53.000000	34.000000	0.000000
2.060000	65.050000	63.670000	122.000000	0.000000	171.000000	53.000000	31.000000	0.000000
2.070000	65.310000	63.600000	148.000000	0.000000	171.000000	53.000000	26.000000	-7.000000
2.080000	65.380000	63.440000	185.000000	0.000000	171.000000	53.000000	7.000000	-16.000000
2.090000	65.310000	63.250000	264.000000	0.000000	171.000000	53.000000	-7.000000	-19.000000
2.100000	65.150000	62.990000	316.000000	0.000000	171.000000	53.000000	-16.000000	-26.000000
2.110000	64.930000	62.750000	373.000000	0.000000	171.000000	53.000000	-22.000000	-24.000000
2.120000	64.660000	62.550000	396.000000	0.000000	171.000000	53.000000	-27.000000	-20.000000
2.130000	64.490000	62.450000	418.000000	0.000000	171.000000	53.000000	-17.000000	-10.000000
2.140000	64.340000	62.450000	427.000000	0.000000	171.000000	53.000000	-15.000000	0.000000
2.150000	64.260000	62.540000	415.000000	0.000000	171.000000	53.000000	-8.000000	9.000000
2.160000	64.210000	62.710000	415.000000	0.000000	171.000000	53.000000	-5.000000	17.000000
2.170000	64.160000	62.920000	415.000000	0.000000	171.000000	53.000000	-5.000000	21.000000
2.180000	64.260000	63.170000	422.000000	0.000000	171.000000	53.000000	10.000000	25.000000
2.190000	64.390000	63.380000	427.000000	0.000000	171.000000	53.000000	13.000000	21.000000
