t	x	y	pressure	penup	azimuth	inclination	v_x	v_y
0.000000	99.240000	11.000000	259.000000	1.000000	180.000000	50.000000	0.000000	0.000000
0.010000	98.830000	11.340000	294.000000	0.000000	180.000000	50.000000	-41.000000	34.000000
0.020000	98.280000	11.510000	282.000000	0.000000	180.000000	51.000000	-55.000000	17.000000
0.030000	97.460000	11.650000	304.000000	0.000000	180.000000	51.000000	-82.000000	14.000000
0.040000	96.450000	11.540000	329.000000	0.000000	180.000000	52.000000	-101.000000	-11.000000
0.050000	95.240000	11.290000	366.000000	0.000000	180.000000	53.000000	-121.000000	-25.000000
0.060000	94.060000	10.960000	398.000000	0.000000	180.000000	54.000000	-118.000000	-33.000000
0.070000	93.240000	10.480000	396.000000	0.000000	180.000000	55.000000	-82.000000	-48.000000
0.080000	92.640000	9.980000	389.000000	0.000000	180.000000	55.000000	-60.000000	-50.000000
0.090000	92.570000	9.450000	366.000000	0.000000	180.000000	56.000000	-7.000000	-53.000000
0.100000	93.010000	9.000000	356.000000	0.000000	180.000000	56.000000	44.000000	-45.000000
0.110000	93.790000	8.590000	329.000000	0.000000	180.000000	56.000000	78.000000	-41.000000
0.120000	95.090000	8.400000	317.000000	0.000000	180.000000	56.000000	130.000000	-19.000000
0.130000	96.630000	8.400000	291.000000	0.000000	180.000000	56.000000	154.000000	0.000000
0.140000	98.330000	8.640000	317.000000	0.000000	180.000000	56.000000	170.000000	24.000000
0.150000	100.110000	9.030000	294.000000	0.000000	180.000000	55.000000	178.000000	39.000000
0.160000	101.280000	9.480000	297.000000	0.000000	180.000000	55.000000	117.000000	45.000000
0.170000	102.050000	9.980000	336.000000	0.000000	180.000000	54.000000	77.000000	50.000000
0.180000	102.050000	10.440000	407.000000	0.000000	180.000000	54.000000	0.000000	46.000000
0.190000	101.410000	10.880000	418.000000	0.000000	180.000000	54.000000	-64.000000	44.000000
0.200000	100.440000	11.250000	449.000000	0.000000	180.000000	53.000000	-97.000000	37.000000
0.210000	98.870000	11.560000	464.000000	0.000000	180.000000	53.000000	-157.000000	31.000000
0.220000	97.080000	11.560000	519.000000	0.000000	180.000000	54.000000	-179.000000	0.000000
0.230000	95.130000	11.350000	529.000000	0.000000	181.000000	54.000000	-195.000000	-21.000000
0.240000	93.480000	11.040000	535.000000	0.000000	181.000000	54.000000	-165.000000	-31.000000
0.250000	92.660000	10.620000	519.000000	0.000000	181.000000	55.000000	-82.000000	-42.000000
0.260000	92.390000	10.140000	494.000000	0.000000	181.000000	55.000000	-27.000000	-48.000000
0.270000	92.900000	9.670000	488.000000	0.000000	183.000000	56.000000	51.000000	-47.000000
0.280000	93.990000	9.320000	483.000000	0.000000	181.000000	56.000000	109.000000	-35.000000
0.290000	95.460000	9.040000	468.000000	0.000000	181.000000	56.000000	147.000000	-28.000000
0.300000	97.260000	9.040000	448.000000	0.000000	181.000000	56.000000	180.000000	0.000000
0.310000	99.180000	9.220000	414.000000	0.000000	181.000000	56.000000	192.000000	18.000000
0.320000	101.190000	9.530000	389.000000	0.000000	180.000000	55.000000	201.000000	31.000000
0.330000	102.510000	10.020000	391.000000	0.000000	180.000000	55.000000	132.000000	49.000000
0.340000	102.870000	10.520000	440.000000	0.000000	180.000000	54.000000	36.000000	50.000000
0.350000	102.600000	11.030000	465.000000	0.000000	180.000000	54.000000	-27.000000	51.000000
0.360000	101.690000	11.640000	514.000000	0.000000	180.000000	54.000000	-91.000000	61.000000
0.370000	100.150000	12.020000	527.000000	0.000000	180.000000	53.000000	-154.000000	38.000000
0.380000	98.200000	12.250000	570.000000	0.000000	180.000000	53.000000	-195.000000	23.000000
0.390000	96.100000	11.980000	592.000000	0.000000	180.000000	54.000000	-210.000000	-27.000000
0.400000	94.470000	11.390000	589.000000	0.000000	180.000000	54.000000	-163.000000	-59.000000
0.410000	93.150000	10.580000	586.000000	0.000000	180.000000	54.000000	-132.000000	-81.000000
0.420000	92.880000	10.000000	572.000000	0.000000	181.000000	55.000000	-27.000000	-58.000000
0.430000	93.480000	9.540000	540.000000	0.000000	180.000000	56.000000	60.000000	-46.000000
0.440000	94.660000	9.160000	518.000000	0.000000	180.000000	56.000000	118.000000	-38.000000
0.450000	96.530000	9.080000	488.000000	0.000000	180.000000	56.000000	187.000000	-8.000000
0.460000	98.550000	9.250000	420.000000	0.000000	180.000000	56.000000	202.000000	17.000000
0.470000	100.680000	9.600000	371.000000	0.000000	180.000000	56.000000	213.000000	35.000000
0.480000	102.160000	10.070000	314.000000	0.000000	180.000000	56.000000	148.000000	47.000000
0.490000	102.650000	10.680000	310.000000	0.000000	180.000000	56.000000	49.000000	61.000000
0.500000	102.480000	11.380000	368.000000	0.000000	180.000000	55.000000	-17.000000	70.000000
0.510000	101.160000	12.520000	430.000000	0.000000	180.000000	55.000000	-132.000000	114.000000
0.520000	98.800000	13.340000	492.000000	0.000000	180.000000	55.000000	-236.000000	82.000000
0.530000	95.740000	13.960000	559.000000	0.000000	180.000000	54.000000	-306.000000	62.000000
0.540000	92.090000	14.050000	588.000000	0.000000	180.000000	54.000000	-365.000000	9.000000
0.550000	88.570000	13.600000	643.000000	0.000000	180.000000	55.000000	-352.000000	-45.000000
0.560000	85.140000	12.800000	675.000000	0.000000	180.000000	55.000000	-343.000000	-80.000000
0.570000	83.020000	11.670000	673.000000	0.000000	180.000000	56.000000	-212.000000	-113.000000
0.580000	82.410000	10.720000	668.000000	0.000000	178.000000	57.000000	-61.000000	-95.000000
0.590000	82.800000	9.880000	652.000000	0.000000	178.000000	58.000000	39.000000	-84.000000
0.600000	84.520000	9.080000	668.000000	0.000000	177.000000	58.000000	172.000000	-80.000000
0.610000	87.510000	8.580000	675.000000	0.000000	177.000000	59.000000	299.000000	-50.000000
0.620000	91.340000	8.280000	688.000000	0.000000	177.000000	59.000000	383.000000	-30.000000
0.630000	95.760000	8.230000	696.000000	0.000000	177.000000	59.000000	442.000000	-5.000000
0.640000	100.260000	8.180000	675.000000	0.000000	178.000000	59.000000	450.000000	-5.000000
0.650000	104.810000	8.130000	676.000000	0.000000	178.000000	58.000000	455.000000	-5.000000
0.660000	108.490000	8.130000	673.000000	0.000000	179.000000	56.000000	368.000000	0.000000
0.670000	111.170000	8.030000	670.000000	0.000000	179.000000	54.000000	268.000000	-10.000000
0.680000	113.190000	7.930000	662.000000	0.000000	176.000000	52.000000	202.000000	-10.000000
0.690000	114.060000	7.830000	646.000000	0.000000	174.000000	50.000000	87.000000	-10.000000
0.700000	114.300000	7.830000	639.000000	0.000000	172.000000	49.000000	24.000000	0.000000
0.710000	114.120000	7.830000	585.000000	0.000000	170.000000	47.000000	-18.000000	0.000000
0.720000	113.580000	7.970000	496.000000	0.000000	169.000000	45.000000	-54.000000	14.000000
0.730000	112.900000	8.070000	325.000000	0.000000	167.000000	44.000000	-68.000000	10.000000
0.740000	112.900000	8.070000	0.000000	1.000000	165.000000	43.000000	0.000000	0.000000
0.750000	111.410000	8.170000	0.000000	0.000000	165.000000	43.000000	-149.000000	10.000000
0.760000	110.930000	8.090000	0.000000	0.000000	164.000000	42.000000	-48.000000	-8.000000
0.770000	110.600000	8.090000	0.000000	0.000000	163.000000	42.000000	-33.000000	0.000000
0.780000	110.420000	8.140000	0.000000	0.000000	162.000000	42.000000	-18.000000	5.000000
0.790000	110.260000	8.200000	0.000000	0.000000	163.000000	42.000000	-16.000000	6.000000
0.800000	110.110000	8.200000	0.000000	0.000000	165.000000	42.000000	-15.000000	0.000000
0.810000	109.860000	8.200000	0.000000	0.000000	168.000000	42.000000	-25.000000	0.000000
0.820000	109.550000	8.200000	0.000000	0.000000	172.000000	42.000000	-31.000000	0.000000
0.830000	109.180000	8.200000	0.000000	0.000000	176.000000	41.000000	-37.000000	0.000000
0.840000	108.640000	8.150000	0.000000	0.000000	179.000000	40.000000	-54.000000	-5.000000
0.850000	107.990000	8.150000	0.000000	0.000000	182.000000	39.000000	-65.000000	0.000000
0.860000	107.310000	8.150000	0.000000	0.000000	184.000000	39.000000	-68.000000	0.000000
0.870000	106.600000	8.210000	0.000000	0.000000	185.000000	38.000000	-71.000000	6.000000
0.880000	105.870000	8.260000	0.000000	0.000000	186.000000	39.000000	-73.000000	5.000000
0.890000	105.160000	8.260000	0.000000	0.000000	186.000000	39.000000	-71.000000	0.000000
0.900000	104.550000	8.260000	0.000000	0.000000	184.000000	40.000000	-61.000000	0.000000
0.910000	103.990000	8.260000	0.000000	0.000000	183.000000	41.000000	-56.000000	0.000000
0.920000	103.650000	8.120000	0.000000	0.000000	182.000000	42.000000	-34.000000	-14.000000
0.930000	103.490000	8.010000	0.000000	0.000000	181.000000	43.000000	-16.000000	-11.000000
0.940000	103.490000	7.920000	0.000000	0.000000	180.000000	44.000000	0.000000	-9.000000
0.950000	103.490000	7.920000	0.000000	0.000000	180.000000	45.000000	0.000000	0.000000
0.960000	103.490000	7.870000	0.000000	0.000000	179.000000	45.000000	0.000000	-5.000000
0.970000	103.630000	7.960000	0.000000	0.000000	179.000000	46.000000	14.000000	9.000000
0.980000	103.800000	8.100000	0.000000	0.000000	178.000000	46.000000	17.000000	14.000000
0.990000	104.040000	8.270000	0.000000	0.000000	178.000000	46.000000	24.000000	17.000000
1.000000	104.300000	8.490000	0.000000	0.000000	178.000000	46.000000	26.000000	22.000000
1.010000	104.570000	8.790000	0.000000	0.000000	178.000000	46.000000	27.000000	30.000000
1.020000	104.850000	9.150000	0.000000	0.000000	179.000000	46.000000	28.000000	36.000000
1.030000	105.110000	9.550000	0.000000	0.000000	179.000000	45.000000	26.000000	40.000000
1.040000	105.360000	9.930000	0.000000	0.000000	179.000000	45.000000	25.000000	38.000000
1.050000	105.360000	9.930000	392.000000	1.000000	180.000000	45.000000	0.000000	0.000000
1.060000	105.620000	10.290000	398.000000	0.000000	180.000000	45.000000	26.000000	36.000000
1.070000	105.520000	10.230000	362.000000	0.000000	181.000000	46.000000	-10.000000	-6.000000
1.080000	105.360000	10.060000	335.000000	0.000000	181.000000	46.000000	-16.000000	-17.000000
1.090000	105.110000	9.430000	256.000000	0.000000	181.000000	47.000000	-25.000000	-63.000000
1.100000	104.800000	8.770000	88.000000	0.000000	182.000000	48.000000	-31.000000	-66.000000
1.110000	104.800000	8.770000	0.000000	1.000000	182.000000	48.000000	0.000000	0.000000
1.120000	104.640000	7.790000	0.000000	0.000000	181.000000	49.000000	-16.000000	-98.000000
1.130000	104.840000	7.510000	0.000000	0.000000	181.000000	49.000000	20.000000	-28.000000
1.140000	105.190000	7.510000	0.000000	0.000000	181.000000	49.000000	35.000000	0.000000
1.150000	105.660000	7.710000	0.000000	0.000000	181.000000	48.000000	47.000000	20.000000
1.160000	106.210000	7.950000	0.000000	0.000000	181.000000	48.000000	55.000000	24.000000
1.170000	106.700000	8.290000	0.000000	0.000000	181.000000	47.000000	49.000000	34.000000
1.180000	107.160000	8.700000	0.000000	0.000000	181.000000	47.000000	46.000000	41.000000
1.190000	107.590000	9.130000	0.000000	0.000000	181.000000	47.000000	43.000000	43.000000
1.200000	107.590000	9.130000	345.000000	1.000000	182.000000	46.000000	0.000000	0.000000
1.210000	108.030000	9.640000	402.000000	0.000000	182.000000	46.000000	44.000000	51.000000
1.220000	107.960000	9.730000	399.000000	0.000000	182.000000	46.000000	-7.000000	9.000000
1.230000	107.730000	9.520000	404.000000	0.000000	183.000000	46.000000	-23.000000	-21.000000
1.240000	107.440000	9.100000	393.000000	0.000000	182.000000	47.000000	-29.000000	-42.000000
1.250000	107.110000	8.410000	305.000000	0.000000	182.000000	47.000000	-33.000000	-69.000000
1.260000	106.800000	7.770000	218.000000	0.000000	182.000000	47.000000	-31.000000	-64.000000
1.270000	106.800000	7.170000	86.000000	0.000000	182.000000	47.000000	0.000000	-60.000000
1.280000	106.800000	7.170000	0.000000	1.000000	182.000000	47.000000	0.000000	0.000000
1.290000	107.350000	6.640000	0.000000	0.000000	182.000000	47.000000	55.000000	-53.000000
1.300000	107.860000	6.640000	0.000000	0.000000	182.000000	47.000000	51.000000	0.000000
1.310000	108.420000	6.980000	0.000000	0.000000	182.000000	47.000000	56.000000	34.000000
1.320000	109.010000	7.390000	0.000000	0.000000	182.000000	46.000000	59.000000	41.000000
1.330000	109.620000	7.850000	0.000000	0.000000	181.000000	46.000000	61.000000	46.000000
1.340000	109.620000	7.850000	389.000000	1.000000	180.000000	46.000000	0.000000	0.000000
1.350000	110.600000	8.750000	465.000000	0.000000	178.000000	45.000000	98.000000	90.000000
1.360000	110.680000	8.970000	537.000000	0.000000	175.000000	45.000000	8.000000	22.000000
1.370000	110.560000	9.030000	613.000000	0.000000	172.000000	45.000000	-12.000000	6.000000
1.380000	110.480000	8.880000	663.000000	0.000000	170.000000	45.000000	-8.000000	-15.000000
1.390000	110.220000	8.410000	676.000000	0.000000	168.000000	44.000000	-26.000000	-47.000000
1.400000	109.840000	7.740000	645.000000	0.000000	167.000000	44.000000	-38.000000	-67.000000
1.410000	109.570000	7.030000	469.000000	0.000000	168.000000	44.000000	-27.000000	-71.000000
