t	x	y	pressure	penup	azimuth	inclination	v_x	v_y
0.000000	61.800000	13.020000	88.000000	1.000000	168.000000	50.000000	0.000000	0.000000
0.010000	61.800000	13.020000	127.000000	0.000000	169.000000	51.000000	0.000000	0.000000
0.020000	61.920000	13.380000	149.000000	0.000000	168.000000	52.000000	12.000000	36.000000
0.030000	61.920000	13.480000	160.000000	0.000000	168.000000	53.000000	0.000000	10.000000
0.040000	61.800000	13.620000	208.000000	0.000000	167.000000	54.000000	-12.000000	14.000000
0.050000	61.680000	13.780000	259.000000	0.000000	167.000000	55.000000	-12.000000	16.000000
0.060000	61.450000	13.920000	324.000000	0.000000	166.000000	56.000000	-23.000000	14.000000
0.070000	61.160000	14.040000	333.000000	0.000000	166.000000	56.000000	-29.000000	12.000000
0.080000	60.830000	14.140000	349.000000	0.000000	166.000000	56.000000	-33.000000	10.000000
0.090000	60.380000	14.140000	371.000000	0.000000	166.000000	56.000000	-45.000000	0.000000
0.100000	59.730000	14.050000	376.000000	0.000000	166.000000	56.000000	-65.000000	-9.000000
0.110000	58.950000	13.850000	389.000000	0.000000	166.000000	56.000000	-78.000000	-20.000000
0.120000	58.080000	13.510000	398.000000	0.000000	166.000000	56.000000	-87.000000	-34.000000
0.130000	57.490000	13.030000	396.000000	0.000000	166.000000	56.000000	-59.000000	-48.000000
0.140000	57.090000	12.450000	389.000000	0.000000	166.000000	56.000000	-40.000000	-58.000000
0.150000	57.040000	11.520000	386.000000	0.000000	166.000000	56.000000	-5.000000	-93.000000
0.160000	57.260000	10.770000	381.000000	0.000000	168.000000	56.000000	22.000000	-75.000000
0.170000	57.650000	10.140000	379.000000	0.000000	168.000000	56.000000	39.000000	-63.000000
0.180000	58.270000	9.640000	382.000000	0.000000	168.000000	56.000000	62.000000	-50.000000
0.190000	58.880000	9.320000	387.000000	0.000000	168.000000	56.000000	61.000000	-32.000000
0.200000	59.490000	9.130000	386.000000	0.000000	168.000000	56.000000	61.000000	-19.000000
0.210000	60.190000	9.130000	381.000000	0.000000	166.000000	56.000000	70.000000	0.000000
0.220000	60.920000	9.230000	364.000000	0.000000	166.000000	56.000000	73.000000	10.000000
0.230000	61.820000	9.490000	359.000000	0.000000	166.000000	56.000000	90.000000	26.000000
0.240000	62.820000	9.940000	354.000000	0.000000	165.000000	56.000000	100.000000	45.000000
0.250000	63.680000	10.480000	346.000000	0.000000	165.000000	56.000000	86.000000	54.000000
0.260000	64.340000	11.090000	376.000000	0.000000	166.000000	56.000000	66.000000	61.000000
0.270000	64.860000	11.850000	391.000000	0.000000	166.000000	56.000000	52.000000	76.000000
0.280000	64.960000	12.580000	400.000000	0.000000	168.000000	56.000000	10.000000	73.000000
0.290000	64.790000	13.270000	418.000000	0.000000	168.000000	56.000000	-17.000000	69.000000
0.300000	64.450000	13.880000	444.000000	0.000000	169.000000	57.000000	-34.000000	61.000000
0.310000	63.700000	14.440000	433.000000	0.000000	169.000000	57.000000	-75.000000	56.000000
0.320000	62.570000	14.920000	431.000000	0.000000	169.000000	57.000000	-113.000000	48.000000
0.330000	61.180000	15.190000	436.000000	0.000000	169.000000	57.000000	-139.000000	27.000000
0.340000	59.560000	15.340000	428.000000	0.000000	169.000000	57.000000	-162.000000	15.000000
0.350000	57.870000	15.340000	422.000000	0.000000	169.000000	57.000000	-169.000000	0.000000
0.360000	56.130000	15.170000	435.000000	0.000000	168.000000	56.000000	-174.000000	-17.000000
0.370000	55.100000	14.810000	428.000000	0.000000	168.000000	56.000000	-103.000000	-36.000000
0.380000	54.660000	14.220000	420.000000	0.000000	168.000000	56.000000	-44.000000	-59.000000
0.390000	54.600000	13.330000	415.000000	0.000000	166.000000	56.000000	-6.000000	-89.000000
0.400000	54.750000	12.240000	415.000000	0.000000	166.000000	56.000000	15.000000	-109.000000
0.410000	55.070000	11.130000	417.000000	0.000000	166.000000	57.000000	32.000000	-111.000000
0.420000	55.500000	10.360000	417.000000	0.000000	167.000000	57.000000	43.000000	-77.000000
0.430000	56.050000	9.820000	420.000000	0.000000	167.000000	57.000000	55.000000	-54.000000
0.440000	56.780000	9.380000	418.000000	0.000000	167.000000	57.000000	73.000000	-44.000000
0.450000	57.630000	9.090000	407.000000	0.000000	167.000000	57.000000	85.000000	-29.000000
0.460000	58.810000	8.890000	399.000000	0.000000	167.000000	57.000000	118.000000	-20.000000
0.470000	60.020000	8.840000	344.000000	0.000000	167.000000	57.000000	121.000000	-5.000000
0.480000	61.260000	8.980000	317.000000	0.000000	167.000000	57.000000	124.000000	14.000000
0.490000	62.490000	9.250000	307.000000	0.000000	166.000000	56.000000	123.000000	27.000000
0.500000	63.520000	9.640000	325.000000	0.000000	166.000000	56.000000	103.000000	39.000000
0.510000	64.410000	10.090000	337.000000	0.000000	166.000000	56.000000	89.000000	45.000000
0.520000	65.040000	10.590000	386.000000	0.000000	166.000000	56.000000	63.000000	50.000000
0.530000	65.370000	11.120000	425.000000	0.000000	168.000000	56.000000	33.000000	53.000000
0.540000	65.490000	11.800000	448.000000	0.000000	167.000000	57.000000	12.000000	68.000000
0.550000	65.390000	12.590000	450.000000	0.000000	167.000000	57.000000	-10.000000	79.000000
0.560000	64.960000	13.340000	475.000000	0.000000	169.000000	58.000000	-43.000000	75.000000
0.570000	64.300000	14.070000	475.000000	0.000000	169.000000	58.000000	-66.000000	73.000000
0.580000	63.130000	14.740000	481.000000	0.000000	169.000000	58.000000	-117.000000	67.000000
0.590000	61.570000	15.310000	477.000000	0.000000	169.000000	58.000000	-156.000000	57.000000
0.600000	59.760000	15.720000	481.000000	0.000000	169.000000	58.000000	-181.000000	41.000000
0.610000	57.660000	16.020000	467.000000	0.000000	169.000000	57.000000	-210.000000	30.000000
0.620000	55.530000	16.100000	480.000000	0.000000	169.000000	57.000000	-213.000000	8.000000
0.630000	53.390000	16.000000	464.000000	0.000000	168.000000	55.000000	-214.000000	-10.000000
0.640000	51.410000	15.780000	469.000000	0.000000	168.000000	55.000000	-198.000000	-22.000000
0.650000	49.860000	15.360000	435.000000	0.000000	167.000000	55.000000	-155.000000	-42.000000
0.660000	48.590000	14.910000	420.000000	0.000000	167.000000	55.000000	-127.000000	-45.000000
0.670000	47.700000	14.430000	415.000000	0.000000	167.000000	55.000000	-89.000000	-48.000000
0.680000	47.120000	13.950000	397.000000	0.000000	165.000000	55.000000	-58.000000	-48.000000
0.690000	46.750000	13.520000	388.000000	0.000000	165.000000	56.000000	-37.000000	-43.000000
0.700000	46.630000	13.120000	396.000000	0.000000	165.000000	56.000000	-12.000000	-40.000000
0.710000	46.530000	12.610000	391.000000	0.000000	165.000000	56.000000	-10.000000	-51.000000
0.720000	46.600000	12.170000	389.000000	0.000000	164.000000	57.000000	7.000000	-44.000000
0.730000	46.770000	11.780000	391.000000	0.000000	166.000000	57.000000	17.000000	-39.000000
0.740000	47.300000	11.470000	399.000000	0.000000	166.000000	57.000000	53.000000	-31.000000
0.750000	48.180000	11.310000	389.000000	0.000000	165.000000	58.000000	88.000000	-16.000000
0.760000	49.290000	11.240000	396.000000	0.000000	165.000000	58.000000	111.000000	-7.000000
0.770000	50.570000	11.240000	425.000000	0.000000	165.000000	58.000000	128.000000	0.000000
0.780000	52.070000	11.300000	433.000000	0.000000	164.000000	58.000000	150.000000	6.000000
0.790000	53.720000	11.410000	450.000000	0.000000	164.000000	58.000000	165.000000	11.000000
0.800000	55.530000	11.590000	466.000000	0.000000	165.000000	58.000000	181.000000	18.000000
0.810000	57.700000	11.760000	474.000000	0.000000	165.000000	58.000000	217.000000	17.000000
0.820000	60.110000	11.930000	468.000000	0.000000	165.000000	58.000000	241.000000	17.000000
0.830000	62.510000	12.100000	472.000000	0.000000	167.000000	58.000000	240.000000	17.000000
0.840000	64.940000	12.100000	465.000000	0.000000	168.000000	58.000000	243.000000	0.000000
0.850000	67.130000	12.150000	473.000000	0.000000	169.000000	58.000000	219.000000	5.000000
0.860000	69.150000	12.150000	477.000000	0.000000	170.000000	58.000000	202.000000	0.000000
0.870000	70.550000	12.060000	485.000000	0.000000	172.000000	58.000000	140.000000	-9.000000
0.880000	71.670000	11.980000	496.000000	0.000000	172.000000	58.000000	112.000000	-8.000000
0.890000	72.600000	11.980000	496.000000	0.000000	172.000000	58.000000	93.000000	0.000000
0.900000	73.350000	11.920000	496.000000	0.000000	174.000000	57.000000	75.000000	-6.000000
0.910000	73.970000	11.860000	495.000000	0.000000	174.000000	57.000000	62.000000	-6.000000
0.920000	74.500000	11.740000	488.000000	0.000000	175.000000	57.000000	53.000000	-12.000000
0.930000	74.750000	11.690000	465.000000	0.000000	175.000000	57.000000	25.000000	-5.000000
0.940000	74.840000	11.690000	427.000000	0.000000	177.000000	57.000000	9.000000	0.000000
0.950000	74.840000	11.690000	292.000000	0.000000	177.000000	57.000000	0.000000	0.000000
0.960000	74.640000	11.690000	54.000000	0.000000	178.000000	57.000000	-20.000000	0.000000
0.970000	74.640000	11.690000	0.000000	1.000000	178.000000	57.000000	0.000000	0.000000
0.980000	73.430000	11.890000	0.000000	0.000000	178.000000	57.000000	-121.000000	20.000000
0.990000	72.590000	12.190000	0.000000	0.000000	179.000000	56.000000	-84.000000	30.000000
1.000000	71.760000	12.600000	0.000000	0.000000	179.000000	56.000000	-83.000000	41.000000
1.010000	70.930000	12.800000	0.000000	0.000000	179.000000	56.000000	-83.000000	20.000000
1.020000	70.320000	12.800000	0.000000	0.000000	179.000000	55.000000	-61.000000	0.000000
1.030000	69.850000	12.630000	0.000000	0.000000	179.000000	54.000000	-47.000000	-17.000000
1.040000	69.460000	12.380000	0.000000	0.000000	179.000000	53.000000	-39.000000	-25.000000
1.050000	69.120000	12.140000	0.000000	0.000000	179.000000	52.000000	-34.000000	-24.000000
1.060000	68.810000	11.920000	0.000000	0.000000	177.000000	52.000000	-31.000000	-22.000000
1.070000	68.560000	11.710000	0.000000	0.000000	178.000000	51.000000	-25.000000	-21.000000
1.080000	68.330000	11.710000	0.000000	0.000000	177.000000	52.000000	-23.000000	0.000000
1.090000	68.190000	11.710000	0.000000	0.000000	177.000000	52.000000	-14.000000	0.000000
1.100000	68.130000	11.910000	0.000000	0.000000	179.000000	53.000000	-6.000000	20.000000
1.110000	68.130000	12.110000	0.000000	0.000000	179.000000	54.000000	0.000000	20.000000
1.120000	68.240000	12.320000	0.000000	0.000000	179.000000	54.000000	11.000000	21.000000
1.130000	68.330000	12.530000	0.000000	0.000000	180.000000	54.000000	9.000000	21.000000
1.140000	68.440000	12.690000	0.000000	0.000000	180.000000	55.000000	11.000000	16.000000
1.150000	68.550000	12.780000	0.000000	0.000000	179.000000	55.000000	11.000000	9.000000
1.160000	68.600000	12.890000	0.000000	0.000000	179.000000	55.000000	5.000000	11.000000
1.170000	68.600000	12.890000	66.000000	1.000000	176.000000	55.000000	0.000000	0.000000
1.180000	68.650000	13.220000	142.000000	0.000000	174.000000	55.000000	5.000000	33.000000
1.190000	68.650000	13.550000	173.000000	0.000000	173.000000	55.000000	0.000000	33.000000
1.200000	68.650000	13.770000	210.000000	0.000000	171.000000	55.000000	0.000000	22.000000
1.210000	68.650000	13.770000	287.000000	0.000000	170.000000	55.000000	0.000000	0.000000
1.220000	68.820000	14.200000	339.000000	0.000000	170.000000	56.000000	17.000000	43.000000
1.230000	68.820000	14.330000	369.000000	0.000000	168.000000	55.000000	0.000000	13.000000
1.240000	68.900000	14.420000	384.000000	0.000000	168.000000	55.000000	8.000000	9.000000
1.250000	68.900000	14.420000	389.000000	0.000000	168.000000	55.000000	0.000000	0.000000
1.260000	68.950000	14.420000	394.000000	0.000000	170.000000	56.000000	5.000000	0.000000
1.270000	68.950000	14.270000	391.000000	0.000000	170.000000	56.000000	0.000000	-15.000000
1.280000	68.950000	14.050000	391.000000	0.000000	170.000000	56.000000	0.000000	-22.000000
1.290000	68.880000	13.750000	394.000000	0.000000	170.000000	56.000000	-7.000000	-30.000000
1.300000	68.880000	13.320000	396.000000	0.000000	170.000000	56.000000	0.000000	-43.000000
1.310000	68.830000	12.800000	394.000000	0.000000	170.000000	56.000000	-5.000000	-52.000000
1.320000	68.830000	12.280000	394.000000	0.000000	170.000000	56.000000	0.000000	-52.000000
1.330000	68.830000	11.760000	392.000000	0.000000	170.000000	56.000000	0.000000	-52.000000
1.340000	68.920000	11.340000	398.000000	0.000000	169.000000	57.000000	9.000000	-42.000000
1.350000	68.990000	10.990000	393.000000	0.000000	168.000000	56.000000	7.000000	-35.000000
1.360000	69.070000	10.800000	374.000000	0.000000	168.000000	56.000000	8.000000	-19.000000
1.370000	69.140000	10.670000	334.000000	0.000000	168.000000	56.000000	7.000000	-13.000000
1.380000	69.190000	10.570000	289.000000	0.000000	168.000000	56.000000	5.000000	-10.000000
1.390000	69.290000	10.570000	153.000000	0.000000	168.000000	56.000000	10.000000	0.000000
1.400000	69.290000	10.570000	0.000000	1.000000	168.000000	56.000000	0.000000	0.000000
1.410000	69.550000	10.840000	0.000000	0.000000	168.000000	56.000000	26.000000	27.000000
1.420000	69.740000	11.220000	0.000000	0.000000	169.000000	57.000000	19.000000	38.000000
1.430000	70.000000	11.680000	0.000000	0.000000	170.000000	56.000000	26.000000	46.000000
1.440000	70.370000	12.200000	0.000000	0.000000	171.000000	56.000000	37.000000	52.000000
1.450000	70.680000	12.520000	0.000000	0.000000	173.000000	56.000000	31.000000	32.000000
1.460000	70.930000	12.790000	0.000000	0.000000	174.000000	56.000000	25.000000	27.000000
1.470000	71.010000	12.970000	0.000000	0.000000	174.000000	55.000000	8.000000	18.000000
1.480000	71.010000	12.970000	183.000000	1.000000	174.000000	55.000000	0.000000	0.000000
1.490000	71.110000	13.260000	223.000000	0.000000	176.000000	55.000000	10.000000	29.000000
1.500000	71.040000	13.450000	244.000000	0.000000	176.000000	55.000000	-7.000000	19.000000
1.510000	71.040000	13.640000	296.000000	0.000000	176.000000	55.000000	0.000000	19.000000
1.520000	71.110000	13.690000	351.000000	0.000000	176.000000	55.000000	7.000000	5.000000
1.530000	71.110000	13.690000	366.000000	0.000000	174.000000	56.000000	0.000000	0.000000
1.540000	71.110000	13.690000	364.000000	0.000000	173.000000	56.000000	0.000000	0.000000
1.550000	71.110000	13.570000	369.000000	0.000000	173.000000	56.000000	0.000000	-12.000000
1.560000	71.110000	13.230000	371.000000	0.000000	173.000000	56.000000	0.000000	-34.000000
1.570000	71.110000	12.750000	371.000000	0.000000	173.000000	56.000000	0.000000	-48.000000
1.580000	71.110000	12.320000	371.000000	0.000000	173.000000	56.000000	0.000000	-43.000000
1.590000	71.110000	11.880000	369.000000	0.000000	173.000000	56.000000	0.000000	-44.000000
1.600000	71.200000	11.490000	367.000000	0.000000	173.000000	56.000000	9.000000	-39.000000
1.610000	71.270000	11.220000	354.000000	0.000000	173.000000	56.000000	7.000000	-27.000000
1.620000	71.340000	11.010000	325.000000	0.000000	173.000000	56.000000	7.000000	-21.000000
1.630000	71.420000	10.880000	311.000000	0.000000	173.000000	56.000000	8.000000	-13.000000
1.640000	71.510000	10.880000	280.000000	0.000000	172.000000	57.000000	9.000000	0.000000
1.650000	71.600000	10.880000	213.000000	0.000000	172.000000	57.000000	9.000000	0.000000
1.660000	71.770000	10.930000	53.000000	0.000000	172.000000	57.000000	17.000000	5.000000
1.670000	71.770000	10.930000	0.000000	1.000000	172.000000	57.000000	0.000000	0.000000
1.680000	72.180000	11.300000	0.000000	0.000000	174.000000	56.000000	41.000000	37.000000
1.690000	72.450000	11.830000	0.000000	0.000000	174.000000	56.000000	27.000000	53.000000
1.700000	72.710000	12.350000	0.000000	0.000000	174.000000	56.000000	26.000000	52.000000
1.710000	72.990000	12.830000	0.000000	0.000000	174.000000	56.000000	28.000000	48.000000
1.720000	73.280000	13.260000	0.000000	0.000000	174.000000	56.000000	29.000000	43.000000
1.730000	73.550000	13.620000	0.000000	0.000000	176.000000	55.000000	27.000000	36.000000
1.740000	73.700000	13.800000	0.000000	0.000000	176.000000	55.000000	15.000000	18.000000
1.750000	73.700000	13.800000	34.000000	1.000000	176.000000	55.000000	0.000000	0.000000
1.760000	73.700000	13.800000	39.000000	0.000000	177.000000	54.000000	0.000000	0.000000
1.770000	73.700000	13.800000	30.000000	0.000000	177.000000	54.000000	0.000000	0.000000
1.780000	73.700000	13.800000	37.000000	0.000000	177.000000	54.000000	0.000000	0.000000
1.790000	73.650000	13.400000	67.000000	0.000000	177.000000	55.000000	-5.000000	-40.000000
1.800000	73.650000	13.000000	105.000000	0.000000	177.000000	55.000000	0.000000	-40.000000
1.810000	73.700000	12.560000	170.000000	0.000000	177.000000	55.000000	5.000000	-44.000000
1.820000	73.760000	12.120000	222.000000	0.000000	179.000000	55.000000	6.000000	-44.000000
1.830000	73.810000	11.680000	218.000000	0.000000	179.000000	56.000000	5.000000	-44.000000
1.840000	73.760000	11.270000	225.000000	0.000000	179.000000	56.000000	-5.000000	-41.000000
1.850000	73.660000	10.980000	156.000000	0.000000	179.000000	56.000000	-10.000000	-29.000000
