t	x	y	pressure	penup	azimuth	inclination	v_x	v_y
0.000000	88.580000	29.420000	289.000000	1.000000	90.000000	67.000000	0.000000	0.000000
0.010000	88.580000	30.300000	478.000000	0.000000	90.000000	68.000000	0.000000	88.000000
0.020000	88.440000	30.530000	664.000000	0.000000	92.000000	68.000000	-14.000000	23.000000
0.030000	88.440000	30.650000	815.000000	0.000000	93.000000	69.000000	0.000000	12.000000
0.040000	88.440000	30.580000	932.000000	0.000000	95.000000	69.000000	0.000000	-7.000000
0.050000	88.550000	30.060000	1023.000000	0.000000	95.000000	69.000000	11.000000	-52.000000
0.060000	88.670000	29.250000	1023.000000	0.000000	95.000000	69.000000	12.000000	-81.000000
0.070000	88.830000	28.130000	1023.000000	0.000000	95.000000	69.000000	16.000000	-112.000000
0.080000	88.940000	27.190000	1023.000000	0.000000	95.000000	68.000000	11.000000	-94.000000
0.090000	89.010000	26.380000	1023.000000	0.000000	92.000000	68.000000	7.000000	-81.000000
0.100000	89.060000	25.770000	1023.000000	0.000000	92.000000	68.000000	5.000000	-61.000000
0.110000	89.060000	25.400000	1023.000000	0.000000	90.000000	68.000000	0.000000	-37.000000
0.120000	89.060000	25.190000	1023.000000	0.000000	90.000000	68.000000	0.000000	-21.000000
0.130000	89.060000	25.100000	891.000000	0.000000	88.000000	68.000000	0.000000	-9.000000
0.140000	89.060000	25.370000	391.000000	0.000000	85.000000	68.000000	0.000000	27.000000
0.150000	89.060000	25.370000	0.000000	1.000000	85.000000	68.000000	0.000000	0.000000
0.160000	88.990000	26.810000	0.000000	0.000000	83.000000	68.000000	-7.000000	144.000000
0.170000	88.830000	27.600000	0.000000	0.000000	85.000000	68.000000	-16.000000	79.000000
0.180000	88.590000	28.280000	0.000000	0.000000	85.000000	68.000000	-24.000000	68.000000
0.190000	88.400000	28.600000	0.000000	0.000000	85.000000	69.000000	-19.000000	32.000000
0.200000	88.200000	28.840000	0.000000	0.000000	87.000000	69.000000	-20.000000	24.000000
0.210000	88.000000	29.040000	0.000000	0.000000	87.000000	70.000000	-20.000000	20.000000
0.220000	87.790000	29.230000	0.000000	0.000000	87.000000	71.000000	-21.000000	19.000000
0.230000	87.570000	29.390000	0.000000	0.000000	90.000000	71.000000	-22.000000	16.000000
0.240000	87.450000	29.640000	0.000000	0.000000	90.000000	71.000000	-12.000000	25.000000
0.250000	87.370000	29.950000	0.000000	0.000000	90.000000	71.000000	-8.000000	31.000000
0.260000	87.260000	30.080000	0.000000	0.000000	90.000000	71.000000	-11.000000	13.000000
0.270000	87.110000	30.180000	0.000000	0.000000	93.000000	71.000000	-15.000000	10.000000
0.280000	86.870000	30.180000	0.000000	0.000000	93.000000	71.000000	-24.000000	0.000000
0.290000	86.450000	30.180000	0.000000	0.000000	93.000000	71.000000	-42.000000	0.000000
0.300000	86.450000	30.180000	591.000000	1.000000	95.000000	70.000000	0.000000	0.000000
0.310000	85.240000	30.000000	722.000000	0.000000	95.000000	70.000000	-121.000000	-18.000000
0.320000	84.560000	29.840000	771.000000	0.000000	95.000000	69.000000	-68.000000	-16.000000
0.330000	83.860000	29.840000	824.000000	0.000000	98.000000	69.000000	-70.000000	0.000000
0.340000	83.800000	29.840000	854.000000	0.000000	97.000000	68.000000	-6.000000	0.000000
0.350000	84.220000	30.040000	884.000000	0.000000	97.000000	68.000000	42.000000	20.000000
0.360000	84.970000	30.330000	908.000000	0.000000	97.000000	67.000000	75.000000	29.000000
0.370000	86.400000	30.690000	923.000000	0.000000	97.000000	67.000000	143.000000	36.000000
0.380000	88.250000	30.920000	938.000000	0.000000	97.000000	67.000000	185.000000	23.000000
0.390000	90.370000	30.920000	962.000000	0.000000	97.000000	67.000000	212.000000	0.000000
0.400000	92.040000	30.770000	988.000000	0.000000	97.000000	68.000000	167.000000	-15.000000
0.410000	93.230000	30.430000	1023.000000	0.000000	97.000000	68.000000	119.000000	-34.000000
0.420000	94.090000	30.070000	1023.000000	0.000000	100.000000	68.000000	86.000000	-36.000000
0.430000	94.220000	29.700000	1023.000000	0.000000	100.000000	69.000000	13.000000	-37.000000
0.440000	93.830000	29.340000	1023.000000	0.000000	100.000000	69.000000	-39.000000	-36.000000
0.450000	93.080000	28.760000	1023.000000	0.000000	98.000000	70.000000	-75.000000	-58.000000
0.460000	91.540000	27.980000	1023.000000	0.000000	98.000000	70.000000	-154.000000	-78.000000
0.470000	89.460000	27.060000	1023.000000	0.000000	98.000000	70.000000	-208.000000	-92.000000
0.480000	87.010000	26.130000	1023.000000	0.000000	95.000000	70.000000	-245.000000	-93.000000
0.490000	85.190000	25.530000	1023.000000	0.000000	93.000000	70.000000	-182.000000	-60.000000
0.500000	84.040000	25.150000	1023.000000	0.000000	90.000000	70.000000	-115.000000	-38.000000
0.510000	83.330000	25.070000	1023.000000	0.000000	90.000000	70.000000	-71.000000	-8.000000
0.520000	83.450000	25.150000	750.000000	0.000000	87.000000	70.000000	12.000000	8.000000
0.530000	83.450000	25.150000	0.000000	1.000000	85.000000	69.000000	0.000000	0.000000
0.540000	85.710000	25.800000	0.000000	0.000000	85.000000	69.000000	226.000000	65.000000
0.550000	87.280000	26.170000	0.000000	0.000000	85.000000	69.000000	157.000000	37.000000
0.560000	88.840000	26.470000	0.000000	0.000000	85.000000	69.000000	156.000000	30.000000
0.570000	90.390000	26.770000	0.000000	0.000000	85.000000	69.000000	155.000000	30.000000
0.580000	91.980000	27.100000	0.000000	0.000000	88.000000	68.000000	159.000000	33.000000
0.590000	93.420000	27.280000	0.000000	0.000000	88.000000	68.000000	144.000000	18.000000
0.600000	94.760000	27.360000	0.000000	0.000000	88.000000	67.000000	134.000000	8.000000
0.610000	95.050000	27.440000	0.000000	0.000000	88.000000	67.000000	29.000000	8.000000
0.620000	95.390000	27.550000	0.000000	0.000000	88.000000	66.000000	34.000000	11.000000
0.630000	95.510000	27.700000	0.000000	0.000000	88.000000	66.000000	12.000000	15.000000
0.640000	95.510000	27.890000	0.000000	0.000000	86.000000	65.000000	0.000000	19.000000
0.650000	95.370000	28.060000	0.000000	0.000000	86.000000	65.000000	-14.000000	17.000000
0.660000	95.180000	28.120000	0.000000	0.000000	86.000000	65.000000	-19.000000	6.000000
0.670000	94.940000	28.120000	0.000000	0.000000	86.000000	66.000000	-24.000000	0.000000
0.680000	94.770000	28.000000	0.000000	0.000000	86.000000	66.000000	-17.000000	-12.000000
0.690000	94.620000	27.900000	0.000000	0.000000	88.000000	66.000000	-15.000000	-10.000000
0.700000	94.520000	27.810000	0.000000	0.000000	88.000000	66.000000	-10.000000	-9.000000
0.710000	94.430000	27.750000	0.000000	0.000000	88.000000	66.000000	-9.000000	-6.000000
0.720000	94.360000	27.750000	0.000000	0.000000	90.000000	66.000000	-7.000000	0.000000
0.730000	94.300000	27.750000	0.000000	0.000000	90.000000	66.000000	-6.000000	0.000000
0.740000	94.230000	27.750000	0.000000	0.000000	90.000000	66.000000	-7.000000	0.000000
0.750000	94.170000	27.750000	0.000000	0.000000	90.000000	66.000000	-6.000000	0.000000
0.760000	94.170000	27.750000	0.000000	0.000000	90.000000	66.000000	0.000000	0.000000
0.770000	94.170000	27.750000	0.000000	0.000000	88.000000	66.000000	0.000000	0.000000
0.780000	94.230000	27.810000	0.000000	0.000000	88.000000	66.000000	6.000000	6.000000
0.790000	94.310000	27.900000	0.000000	0.000000	88.000000	67.000000	8.000000	9.000000
0.800000	94.460000	28.060000	0.000000	0.000000	88.000000	67.000000	15.000000	16.000000
0.810000	94.650000	28.240000	0.000000	0.000000	90.000000	67.000000	19.000000	18.000000
0.820000	94.850000	28.420000	0.000000	0.000000	90.000000	67.000000	20.000000	18.000000
0.830000	95.050000	28.690000	0.000000	0.000000	90.000000	67.000000	20.000000	27.000000
0.840000	95.250000	28.990000	0.000000	0.000000	90.000000	68.000000	20.000000	30.000000
0.850000	95.420000	29.300000	0.000000	0.000000	90.000000	68.000000	17.000000	31.000000
0.860000	95.420000	29.300000	515.000000	1.000000	92.000000	68.000000	0.000000	0.000000
0.870000	95.270000	29.820000	678.000000	0.000000	95.000000	68.000000	-15.000000	52.000000
0.880000	94.850000	30.040000	765.000000	0.000000	95.000000	68.000000	-42.000000	22.000000
0.890000	94.280000	30.040000	908.000000	0.000000	98.000000	69.000000	-57.000000	0.000000
0.900000	93.620000	29.950000	940.000000	0.000000	98.000000	69.000000	-66.000000	-9.000000
0.910000	93.130000	29.710000	970.000000	0.000000	98.000000	69.000000	-49.000000	-24.000000
0.920000	92.670000	29.260000	990.000000	0.000000	100.000000	69.000000	-46.000000	-45.000000
0.930000	92.440000	28.680000	1023.000000	0.000000	100.000000	69.000000	-23.000000	-58.000000
0.940000	92.350000	28.130000	1023.000000	0.000000	100.000000	69.000000	-9.000000	-55.000000
0.950000	92.500000	27.750000	1023.000000	0.000000	98.000000	69.000000	15.000000	-38.000000
0.960000	92.700000	27.480000	1023.000000	0.000000	98.000000	69.000000	20.000000	-27.000000
0.970000	93.110000	27.360000	1023.000000	0.000000	98.000000	69.000000	41.000000	-12.000000
0.980000	93.650000	27.550000	1023.000000	0.000000	95.000000	69.000000	54.000000	19.000000
0.990000	94.250000	27.950000	1023.000000	0.000000	95.000000	69.000000	60.000000	40.000000
1.000000	94.730000	28.340000	1023.000000	0.000000	95.000000	69.000000	48.000000	39.000000
1.010000	95.120000	28.730000	1023.000000	0.000000	95.000000	70.000000	39.000000	39.000000
1.020000	95.200000	28.850000	1023.000000	0.000000	95.000000	70.000000	8.000000	12.000000
1.030000	95.200000	28.850000	1023.000000	0.000000	95.000000	70.000000	0.000000	0.000000
1.040000	95.200000	28.730000	1023.000000	0.000000	96.000000	71.000000	0.000000	-12.000000
1.050000	95.300000	28.500000	1023.000000	0.000000	96.000000	71.000000	10.000000	-23.000000
1.060000	95.420000	28.160000	1023.000000	0.000000	99.000000	71.000000	12.000000	-34.000000
1.070000	95.630000	27.910000	935.000000	0.000000	99.000000	71.000000	21.000000	-25.000000
1.080000	95.940000	27.910000	760.000000	0.000000	99.000000	71.000000	31.000000	0.000000
1.090000	96.360000	27.970000	257.000000	0.000000	99.000000	72.000000	42.000000	6.000000
1.100000	96.360000	27.970000	0.000000	1.000000	96.000000	72.000000	0.000000	0.000000
1.110000	97.100000	28.460000	0.000000	0.000000	96.000000	72.000000	74.000000	49.000000
1.120000	97.160000	28.530000	0.000000	0.000000	96.000000	72.000000	6.000000	7.000000
1.130000	97.080000	28.530000	0.000000	0.000000	96.000000	71.000000	-8.000000	0.000000
1.140000	97.080000	28.530000	0.000000	0.000000	96.000000	71.000000	0.000000	0.000000
1.150000	97.140000	28.530000	0.000000	0.000000	96.000000	71.000000	6.000000	0.000000
1.160000	97.140000	28.530000	0.000000	0.000000	93.000000	71.000000	0.000000	0.000000
1.170000	97.140000	28.580000	0.000000	0.000000	93.000000	71.000000	0.000000	5.000000
1.180000	97.140000	28.580000	0.000000	0.000000	93.000000	71.000000	0.000000	0.000000
1.190000	97.140000	28.840000	0.000000	0.000000	93.000000	71.000000	0.000000	26.000000
1.200000	97.140000	28.990000	0.000000	0.000000	93.000000	70.000000	0.000000	15.000000
1.210000	97.140000	29.140000	0.000000	0.000000	93.000000	70.000000	0.000000	15.000000
1.220000	97.140000	29.330000	0.000000	0.000000	93.000000	70.000000	0.000000	19.000000
1.230000	97.140000	29.520000	0.000000	0.000000	93.000000	70.000000	0.000000	19.000000
1.240000	97.040000	29.720000	0.000000	0.000000	93.000000	70.000000	-10.000000	20.000000
1.250000	96.920000	29.940000	0.000000	0.000000	93.000000	70.000000	-12.000000	22.000000
1.260000	96.800000	30.160000	0.000000	0.000000	95.000000	70.000000	-12.000000	22.000000
1.270000	96.700000	30.360000	0.000000	0.000000	95.000000	70.000000	-10.000000	20.000000
1.280000	96.700000	30.360000	305.000000	1.000000	95.000000	70.000000	0.000000	0.000000
1.290000	96.700000	30.360000	567.000000	0.000000	98.000000	69.000000	0.000000	0.000000
1.300000	96.700000	30.360000	649.000000	0.000000	98.000000	70.000000	0.000000	0.000000
1.310000	96.700000	30.360000	758.000000	0.000000	98.000000	70.000000	0.000000	0.000000
1.320000	96.960000	29.960000	825.000000	0.000000	101.000000	70.000000	26.000000	-40.000000
1.330000	97.250000	29.680000	897.000000	0.000000	101.000000	70.000000	29.000000	-28.000000
1.340000	97.610000	29.470000	950.000000	0.000000	101.000000	71.000000	36.000000	-21.000000
1.350000	97.970000	29.300000	974.000000	0.000000	101.000000	71.000000	36.000000	-17.000000
1.360000	98.300000	29.210000	999.000000	0.000000	101.000000	71.000000	33.000000	-9.000000
1.370000	98.460000	29.210000	1018.000000	0.000000	102.000000	72.000000	16.000000	0.000000
1.380000	98.530000	29.260000	1023.000000	0.000000	102.000000	72.000000	7.000000	5.000000
1.390000	98.480000	29.260000	1023.000000	0.000000	103.000000	73.000000	-5.000000	0.000000
1.400000	98.480000	29.520000	1021.000000	0.000000	103.000000	73.000000	0.000000	26.000000
1.410000	98.480000	29.920000	1014.000000	0.000000	103.000000	73.000000	0.000000	40.000000
1.420000	98.580000	30.360000	988.000000	0.000000	103.000000	73.000000	10.000000	44.000000
1.430000	98.670000	30.710000	989.000000	0.000000	103.000000	73.000000	9.000000	35.000000
1.440000	98.740000	30.990000	935.000000	0.000000	106.000000	72.000000	7.000000	28.000000
1.450000	98.740000	31.110000	822.000000	0.000000	106.000000	72.000000	0.000000	12.000000
1.460000	98.690000	31.200000	513.000000	0.000000	106.000000	72.000000	-5.000000	9.000000
1.470000	98.690000	31.200000	0.000000	1.000000	106.000000	72.000000	0.000000	0.000000
1.480000	98.690000	31.200000	0.000000	0.000000	106.000000	72.000000	0.000000	0.000000
1.490000	98.690000	31.200000	0.000000	0.000000	106.000000	72.000000	0.000000	0.000000
1.500000	98.690000	30.850000	0.000000	0.000000	106.000000	72.000000	0.000000	-35.000000
1.510000	98.820000	30.720000	0.000000	0.000000	105.000000	71.000000	13.000000	-13.000000
1.520000	98.970000	30.620000	0.000000	0.000000	102.000000	72.000000	15.000000	-10.000000
1.530000	99.100000	30.620000	0.000000	0.000000	102.000000	72.000000	13.000000	0.000000
1.540000	99.200000	30.570000	0.000000	0.000000	102.000000	72.000000	10.000000	-5.000000
1.550000	99.300000	30.570000	0.000000	0.000000	102.000000	72.000000	10.000000	0.000000
1.560000	99.390000	30.490000	0.000000	0.000000	102.000000	72.000000	9.000000	-8.000000
1.570000	99.390000	30.490000	83.000000	1.000000	102.000000	72.000000	0.000000	0.000000
1.580000	99.390000	30.490000	562.000000	0.000000	102.000000	72.000000	0.000000	0.000000
1.590000	99.600000	30.230000	616.000000	0.000000	102.000000	72.000000	21.000000	-26.000000
1.600000	99.600000	30.140000	608.000000	0.000000	102.000000	72.000000	0.000000	-9.000000
1.610000	99.540000	30.140000	510.000000	0.000000	102.000000	72.000000	-6.000000	0.000000
1.620000	99.620000	30.140000	65.000000	0.000000	101.000000	71.000000	8.000000	0.000000
1.630000	99.620000	30.140000	0.000000	1.000000	101.000000	71.000000	0.000000	0.000000
1.640000	99.620000	30.140000	0.000000	0.000000	101.000000	71.000000	0.000000	0.000000
1.650000	99.490000	30.300000	0.000000	0.000000	101.000000	71.000000	-13.000000	16.000000
1.660000	99.380000	30.490000	0.000000	0.000000	101.000000	71.000000	-11.000000	19.000000
1.670000	99.240000	30.770000	0.000000	0.000000	102.000000	72.000000	-14.000000	28.000000
1.680000	99.090000	31.080000	0.000000	0.000000	102.000000	72.000000	-15.000000	31.000000
1.690000	98.990000	31.400000	0.000000	0.000000	102.000000	72.000000	-10.000000	32.000000
1.700000	98.920000	31.540000	0.000000	0.000000	102.000000	72.000000	-7.000000	14.000000
1.710000	98.920000	31.540000	624.000000	1.000000	102.000000	72.000000	0.000000	0.000000
1.720000	98.920000	31.540000	753.000000	0.000000	102.000000	72.000000	0.000000	0.000000
1.730000	98.920000	31.540000	760.000000	0.000000	102.000000	72.000000	0.000000	0.000000
1.740000	98.920000	31.540000	727.000000	0.000000	105.000000	71.000000	0.000000	0.000000
1.750000	98.920000	31.540000	458.000000	0.000000	105.000000	71.000000	0.000000	0.000000
1.760000	98.920000	31.540000	0.000000	1.000000	105.000000	71.000000	0.000000	0.000000
1.770000	98.920000	31.540000	0.000000	0.000000	105.000000	71.000000	0.000000	0.000000
1.780000	99.320000	31.700000	0.000000	0.000000	105.000000	71.000000	40.000000	16.000000
1.790000	99.620000	31.700000	0.000000	0.000000	105.000000	71.000000	30.000000	0.000000
1.800000	100.070000	31.810000	0.000000	0.000000	105.000000	71.000000	45.000000	11.000000
1.810000	100.630000	31.970000	0.000000	0.000000	105.000000	71.000000	56.000000	16.000000
1.820000	101.210000	32.150000	0.000000	0.000000	105.000000	71.000000	58.000000	18.000000
1.830000	101.690000	32.290000	0.000000	0.000000	104.000000	70.000000	48.000000	14.000000
1.840000	102.090000	32.430000	0.000000	0.000000	104.000000	70.000000	40.000000	14.000000
1.850000	102.320000	32.580000	0.000000	0.000000	104.000000	69.000000	23.000000	15.000000
1.860000	102.320000	32.580000	499.000000	1.000000	104.000000	69.000000	0.000000	0.000000
1.870000	102.080000	32.680000	650.000000	0.000000	104.000000	69.000000	-24.000000	10.000000
1.880000	101.520000	32.370000	720.000000	0.000000	103.000000	69.000000	-56.000000	-31.000000
1.890000	100.990000	31.910000	825.000000	0.000000	103.000000	69.000000	-53.000000	-46.000000
1.900000	100.630000	31.230000	881.000000	0.000000	103.000000	69.000000	-36.000000	-68.000000
1.910000	100.380000	30.640000	878.000000	0.000000	103.000000	69.000000	-25.000000	-59.000000
1.920000	100.380000	30.120000	872.000000	0.000000	103.000000	69.000000	0.000000	-52.000000
1.930000	100.560000	29.880000	876.000000	0.000000	103.000000	69.000000	18.000000	-24.000000
1.940000	100.800000	29.800000	869.000000	0.000000	100.000000	69.000000	24.000000	-8.000000
1.950000	101.110000	29.800000	876.000000	0.000000	100.000000	69.000000	31.000000	0.000000
1.960000	101.450000	30.090000	879.000000	0.000000	100.000000	69.000000	34.000000	29.000000
1.970000	101.860000	30.640000	879.000000	0.000000	100.000000	69.000000	41.000000	55.000000
1.980000	102.290000	31.370000	864.000000	0.000000	100.000000	69.000000	43.000000	73.000000
1.990000	102.550000	32.170000	840.000000	0.000000	100.000000	69.000000	26.000000	80.000000
2.000000	102.700000	33.060000	827.000000	0.000000	100.000000	69.000000	15.000000	89.000000
2.010000	102.590000	34.020000	817.000000	0.000000	100.000000	69.000000	-11.000000	96.000000
2.020000	102.360000	34.990000	819.000000	0.000000	100.000000	69.000000	-23.000000	97.000000
2.030000	102.060000	35.280000	855.000000	0.000000	100.000000	69.000000	-30.000000	29.000000
2.040000	101.900000	35.130000	897.000000	0.000000	100.000000	69.000000	-16.000000	-15.000000
2.050000	101.750000	34.430000	1023.000000	0.000000	103.000000	69.000000	-15.000000	-70.000000
2.060000	101.640000	33.420000	1023.000000	0.000000	103.000000	69.000000	-11.000000	-101.000000
2.070000	101.770000	32.200000	1023.000000	0.000000	103.000000	69.000000	13.000000	-122.000000
2.080000	102.050000	31.330000	1023.000000	0.000000	103.000000	69.000000	28.000000	-87.000000
2.090000	102.360000	30.710000	1023.000000	0.000000	103.000000	69.000000	31.000000	-62.000000
2.100000	102.700000	30.260000	1023.000000	0.000000	103.000000	69.000000	34.000000	-45.000000
2.110000	103.100000	30.090000	909.000000	0.000000	103.000000	69.000000	40.000000	-17.000000
2.120000	103.510000	30.200000	335.000000	0.000000	104.000000	69.000000	41.000000	11.000000
2.130000	103.510000	30.200000	0.000000	1.000000	104.000000	69.000000	0.000000	0.000000
2.140000	104.360000	30.880000	0.000000	0.000000	104.000000	69.000000	85.000000	68.000000
2.150000	104.480000	31.130000	0.000000	0.000000	104.000000	70.000000	12.000000	25.000000
2.160000	104.380000	31.130000	0.000000	0.000000	101.000000	71.000000	-10.000000	0.000000
2.170000	104.380000	31.130000	0.000000	0.000000	101.000000	71.000000	0.000000	0.000000
2.180000	104.380000	31.050000	0.000000	0.000000	101.000000	71.000000	0.000000	-8.000000
2.190000	104.470000	30.970000	0.000000	0.000000	101.000000	71.000000	9.000000	-8.000000
2.200000	104.550000	30.900000	0.000000	0.000000	101.000000	71.000000	8.000000	-7.000000
2.210000	104.630000	30.900000	0.000000	0.000000	101.000000	71.000000	8.000000	0.000000
2.220000	104.770000	30.840000	0.000000	0.000000	101.000000	71.000000	14.000000	-6.000000
2.230000	104.940000	30.740000	0.000000	0.000000	101.000000	70.000000	17.000000	-10.000000
