t	x	y	pressure	penup	azimuth	inclination	v_x	v_y
0.000000	48.120000	72.260000	124.000000	1.000000	153.000000	51.000000	0.000000	0.000000
0.010000	47.620000	72.330000	180.000000	0.000000	153.000000	51.000000	-50.000000	7.000000
0.020000	47.470000	72.470000	274.000000	0.000000	152.000000	51.000000	-15.000000	14.000000
0.030000	47.470000	72.540000	358.000000	0.000000	152.000000	51.000000	0.000000	7.000000
0.040000	47.560000	72.670000	420.000000	0.000000	151.000000	50.000000	9.000000	13.000000
0.050000	47.790000	72.840000	481.000000	0.000000	150.000000	50.000000	23.000000	17.000000
0.060000	48.420000	73.040000	513.000000	0.000000	151.000000	49.000000	63.000000	20.000000
0.070000	49.320000	73.280000	538.000000	0.000000	149.000000	49.000000	90.000000	24.000000
0.080000	50.400000	73.560000	540.000000	0.000000	149.000000	49.000000	108.000000	28.000000
0.090000	51.690000	73.870000	540.000000	0.000000	148.000000	48.000000	129.000000	31.000000
0.100000	53.120000	74.130000	537.000000	0.000000	149.000000	49.000000	143.000000	26.000000
0.110000	54.520000	74.320000	544.000000	0.000000	149.000000	49.000000	140.000000	19.000000
0.120000	55.830000	74.370000	535.000000	0.000000	151.000000	49.000000	131.000000	5.000000
0.130000	57.070000	74.370000	518.000000	0.000000	151.000000	49.000000	124.000000	0.000000
0.140000	58.200000	74.210000	517.000000	0.000000	152.000000	49.000000	113.000000	-16.000000
0.150000	58.790000	73.900000	473.000000	0.000000	152.000000	49.000000	59.000000	-31.000000
0.160000	59.020000	73.480000	464.000000	0.000000	152.000000	49.000000	23.000000	-42.000000
0.170000	58.880000	72.960000	464.000000	0.000000	152.000000	49.000000	-14.000000	-52.000000
0.180000	58.310000	72.430000	470.000000	0.000000	152.000000	49.000000	-57.000000	-53.000000
0.190000	57.460000	71.740000	490.000000	0.000000	152.000000	49.000000	-85.000000	-69.000000
0.200000	55.980000	70.960000	486.000000	0.000000	151.000000	49.000000	-148.000000	-78.000000
0.210000	54.120000	69.830000	510.000000	0.000000	150.000000	50.000000	-186.000000	-113.000000
0.220000	52.000000	68.860000	546.000000	0.000000	150.000000	50.000000	-212.000000	-97.000000
0.230000	49.950000	67.990000	540.000000	0.000000	148.000000	50.000000	-205.000000	-87.000000
0.240000	48.280000	67.330000	564.000000	0.000000	147.000000	51.000000	-167.000000	-66.000000
0.250000	46.850000	66.910000	608.000000	0.000000	146.000000	52.000000	-143.000000	-42.000000
0.260000	45.900000	66.650000	637.000000	0.000000	145.000000	53.000000	-95.000000	-26.000000
0.270000	45.710000	66.650000	653.000000	0.000000	142.000000	53.000000	-19.000000	0.000000
0.280000	46.030000	66.840000	661.000000	0.000000	141.000000	53.000000	32.000000	19.000000
0.290000	46.740000	67.120000	673.000000	0.000000	141.000000	53.000000	71.000000	28.000000
0.300000	48.210000	67.710000	670.000000	0.000000	140.000000	53.000000	147.000000	59.000000
0.310000	50.180000	68.420000	681.000000	0.000000	140.000000	53.000000	197.000000	71.000000
0.320000	52.900000	69.210000	673.000000	0.000000	141.000000	53.000000	272.000000	79.000000
0.330000	56.120000	70.420000	669.000000	0.000000	141.000000	53.000000	322.000000	121.000000
0.340000	59.660000	71.450000	668.000000	0.000000	143.000000	53.000000	354.000000	103.000000
0.350000	63.370000	72.370000	650.000000	0.000000	145.000000	53.000000	371.000000	92.000000
0.360000	67.180000	73.420000	605.000000	0.000000	147.000000	52.000000	381.000000	105.000000
0.370000	71.050000	74.460000	541.000000	0.000000	149.000000	52.000000	387.000000	104.000000
0.380000	74.350000	75.200000	387.000000	0.000000	150.000000	52.000000	330.000000	74.000000
0.390000	74.350000	75.200000	0.000000	1.000000	153.000000	52.000000	0.000000	0.000000
0.400000	78.140000	76.000000	0.000000	0.000000	152.000000	53.000000	379.000000	80.000000
0.410000	78.490000	76.210000	0.000000	0.000000	153.000000	53.000000	35.000000	21.000000
0.420000	77.790000	76.330000	0.000000	0.000000	154.000000	53.000000	-70.000000	12.000000
0.430000	76.400000	76.330000	0.000000	0.000000	154.000000	53.000000	-139.000000	0.000000
0.440000	74.570000	76.210000	0.000000	0.000000	154.000000	53.000000	-183.000000	-12.000000
0.450000	72.150000	75.930000	0.000000	0.000000	155.000000	52.000000	-242.000000	-28.000000
0.460000	69.330000	75.400000	0.000000	0.000000	155.000000	52.000000	-282.000000	-53.000000
0.470000	66.460000	74.740000	0.000000	0.000000	156.000000	51.000000	-287.000000	-66.000000
0.480000	64.060000	74.000000	0.000000	0.000000	155.000000	50.000000	-240.000000	-74.000000
0.490000	61.980000	73.350000	0.000000	0.000000	155.000000	50.000000	-208.000000	-65.000000
0.500000	60.400000	72.830000	0.000000	0.000000	155.000000	49.000000	-158.000000	-52.000000
0.510000	59.510000	72.390000	0.000000	0.000000	154.000000	49.000000	-89.000000	-44.000000
0.520000	59.070000	72.230000	0.000000	0.000000	153.000000	49.000000	-44.000000	-16.000000
0.530000	59.070000	72.180000	0.000000	0.000000	152.000000	49.000000	0.000000	-5.000000
0.540000	59.200000	72.180000	0.000000	0.000000	152.000000	49.000000	13.000000	0.000000
0.550000	59.370000	72.180000	0.000000	0.000000	151.000000	49.000000	17.000000	0.000000
0.560000	59.580000	72.240000	0.000000	0.000000	151.000000	50.000000	21.000000	6.000000
0.570000	59.830000	72.300000	0.000000	0.000000	151.000000	50.000000	25.000000	6.000000
0.580000	60.030000	72.400000	0.000000	0.000000	151.000000	50.000000	20.000000	10.000000
0.590000	60.200000	72.520000	0.000000	0.000000	151.000000	50.000000	17.000000	12.000000
0.600000	60.200000	72.650000	0.000000	0.000000	151.000000	50.000000	0.000000	13.000000
0.610000	60.200000	72.750000	0.000000	0.000000	150.000000	50.000000	0.000000	10.000000
0.620000	60.050000	72.810000	0.000000	0.000000	150.000000	50.000000	-15.000000	6.000000
0.630000	59.720000	72.810000	0.000000	0.000000	150.000000	50.000000	-33.000000	0.000000
0.640000	59.370000	72.740000	0.000000	0.000000	150.000000	50.000000	-35.000000	-7.000000
0.650000	59.010000	72.680000	0.000000	0.000000	150.000000	50.000000	-36.000000	-6.000000
0.660000	58.800000	72.680000	0.000000	0.000000	150.000000	50.000000	-21.000000	0.000000
0.670000	58.630000	72.680000	0.000000	0.000000	151.000000	50.000000	-17.000000	0.000000
0.680000	58.530000	72.680000	0.000000	0.000000	151.000000	50.000000	-10.000000	0.000000
0.690000	58.640000	72.680000	0.000000	0.000000	151.000000	50.000000	11.000000	0.000000
0.700000	58.890000	72.760000	0.000000	0.000000	151.000000	50.000000	25.000000	8.000000
0.710000	59.240000	72.760000	0.000000	0.000000	151.000000	51.000000	35.000000	0.000000
0.720000	59.590000	72.760000	0.000000	0.000000	151.000000	51.000000	35.000000	0.000000
0.730000	59.940000	72.760000	0.000000	0.000000	151.000000	51.000000	35.000000	0.000000
0.740000	60.200000	72.760000	0.000000	0.000000	153.000000	52.000000	26.000000	0.000000
0.750000	60.200000	72.760000	5.000000	0.000000	153.000000	52.000000	0.000000	0.000000
0.760000	60.550000	72.610000	39.000000	1.000000	153.000000	52.000000	0.000000	0.000000
0.770000	60.610000	72.540000	50.000000	0.000000	154.000000	52.000000	6.000000	-7.000000
0.780000	60.610000	72.540000	99.000000	0.000000	154.000000	52.000000	0.000000	0.000000
0.790000	60.610000	72.470000	141.000000	0.000000	154.000000	52.000000	0.000000	-7.000000
0.800000	60.560000	72.470000	188.000000	0.000000	155.000000	51.000000	-5.000000	0.000000
0.810000	60.490000	72.580000	254.000000	0.000000	153.000000	51.000000	-7.000000	11.000000
0.820000	60.340000	72.680000	315.000000	0.000000	153.000000	51.000000	-15.000000	10.000000
0.830000	60.230000	72.750000	339.000000	0.000000	153.000000	51.000000	-11.000000	7.000000
0.840000	60.020000	72.850000	364.000000	0.000000	152.000000	51.000000	-21.000000	10.000000
0.850000	59.730000	72.940000	388.000000	0.000000	152.000000	51.000000	-29.000000	9.000000
0.860000	59.500000	72.940000	428.000000	0.000000	151.000000	50.000000	-23.000000	0.000000
0.870000	59.300000	72.940000	445.000000	0.000000	150.000000	50.000000	-20.000000	0.000000
0.880000	59.150000	72.890000	458.000000	0.000000	148.000000	50.000000	-15.000000	-5.000000
0.890000	59.040000	72.800000	463.000000	0.000000	147.000000	49.000000	-11.000000	-9.000000
0.900000	59.040000	72.670000	466.000000	0.000000	146.000000	49.000000	0.000000	-13.000000
0.910000	59.040000	72.480000	465.000000	0.000000	146.000000	49.000000	0.000000	-19.000000
0.920000	59.100000	72.260000	465.000000	0.000000	146.000000	49.000000	6.000000	-22.000000
0.930000	59.240000	72.030000	460.000000	0.000000	145.000000	48.000000	14.000000	-23.000000
0.940000	59.450000	71.800000	463.000000	0.000000	145.000000	48.000000	21.000000	-23.000000
0.950000	59.740000	71.660000	458.000000	0.000000	145.000000	48.000000	29.000000	-14.000000
0.960000	60.050000	71.580000	461.000000	0.000000	145.000000	48.000000	31.000000	-8.000000
0.970000	60.290000	71.580000	460.000000	0.000000	145.000000	48.000000	24.000000	0.000000
0.980000	60.480000	71.580000	455.000000	0.000000	145.000000	48.000000	19.000000	0.000000
0.990000	60.630000	71.650000	455.000000	0.000000	145.000000	48.000000	15.000000	7.000000
1.000000	60.750000	71.770000	460.000000	0.000000	145.000000	48.000000	12.000000	12.000000
1.010000	60.840000	71.920000	461.000000	0.000000	145.000000	48.000000	9.000000	15.000000
1.020000	60.840000	72.060000	468.000000	0.000000	146.000000	49.000000	0.000000	14.000000
1.030000	60.780000	72.270000	464.000000	0.000000	146.000000	49.000000	-6.000000	21.000000
1.040000	60.780000	72.530000	486.000000	0.000000	146.000000	49.000000	0.000000	26.000000
1.050000	60.710000	72.720000	483.000000	0.000000	146.000000	49.000000	-7.000000	19.000000
1.060000	60.600000	72.880000	491.000000	0.000000	146.000000	49.000000	-11.000000	16.000000
1.070000	60.550000	72.950000	515.000000	0.000000	146.000000	49.000000	-5.000000	7.000000
1.080000	60.550000	72.950000	512.000000	0.000000	146.000000	49.000000	0.000000	0.000000
1.090000	60.550000	72.950000	504.000000	0.000000	146.000000	49.000000	0.000000	0.000000
1.100000	60.550000	72.800000	505.000000	0.000000	146.000000	49.000000	0.000000	-15.000000
1.110000	60.670000	72.630000	461.000000	0.000000	145.000000	48.000000	12.000000	-17.000000
1.120000	60.790000	72.410000	362.000000	0.000000	145.000000	48.000000	12.000000	-22.000000
1.130000	60.920000	72.170000	203.000000	0.000000	146.000000	49.000000	13.000000	-24.000000
1.140000	60.920000	72.170000	0.000000	1.000000	146.000000	49.000000	0.000000	0.000000
1.150000	61.370000	71.810000	0.000000	0.000000	146.000000	49.000000	45.000000	-36.000000
1.160000	61.640000	71.810000	0.000000	0.000000	147.000000	49.000000	27.000000	0.000000
1.170000	61.880000	71.930000	0.000000	0.000000	147.000000	49.000000	24.000000	12.000000
1.180000	62.240000	72.160000	0.000000	0.000000	148.000000	50.000000	36.000000	23.000000
1.190000	62.610000	72.450000	0.000000	0.000000	148.000000	50.000000	37.000000	29.000000
1.200000	62.860000	72.720000	0.000000	0.000000	150.000000	50.000000	25.000000	27.000000
1.210000	63.040000	72.960000	0.000000	0.000000	150.000000	50.000000	18.000000	24.000000
1.220000	62.980000	73.130000	0.000000	0.000000	150.000000	50.000000	-6.000000	17.000000
1.230000	62.850000	73.220000	0.000000	0.000000	150.000000	50.000000	-13.000000	9.000000
1.240000	62.660000	73.280000	0.000000	0.000000	150.000000	50.000000	-19.000000	6.000000
1.250000	62.480000	73.280000	0.000000	0.000000	148.000000	50.000000	-18.000000	0.000000
1.260000	62.290000	73.280000	0.000000	0.000000	149.000000	49.000000	-19.000000	0.000000
1.270000	62.130000	73.280000	0.000000	0.000000	151.000000	49.000000	-16.000000	0.000000
1.280000	62.030000	73.280000	0.000000	0.000000	151.000000	49.000000	-10.000000	0.000000
1.290000	62.030000	73.280000	0.000000	0.000000	151.000000	49.000000	0.000000	0.000000
1.300000	62.030000	73.280000	25.000000	1.000000	151.000000	49.000000	0.000000	0.000000
1.310000	62.030000	73.280000	67.000000	0.000000	151.000000	49.000000	0.000000	0.000000
1.320000	62.030000	73.280000	117.000000	0.000000	151.000000	49.000000	0.000000	0.000000
1.330000	62.030000	73.280000	186.000000	0.000000	151.000000	49.000000	0.000000	0.000000
1.340000	62.030000	73.280000	212.000000	0.000000	151.000000	49.000000	0.000000	0.000000
1.350000	62.030000	73.280000	256.000000	0.000000	149.000000	49.000000	0.000000	0.000000
1.360000	62.030000	73.280000	259.000000	0.000000	149.000000	49.000000	0.000000	0.000000
1.370000	62.030000	73.280000	277.000000	0.000000	148.000000	48.000000	0.000000	0.000000
1.380000	62.310000	72.860000	289.000000	0.000000	148.000000	48.000000	28.000000	-42.000000
1.390000	62.370000	72.660000	304.000000	0.000000	148.000000	48.000000	6.000000	-20.000000
1.400000	62.460000	72.480000	307.000000	0.000000	148.000000	48.000000	9.000000	-18.000000
1.410000	62.540000	72.350000	292.000000	0.000000	148.000000	48.000000	8.000000	-13.000000
1.420000	62.590000	72.290000	282.000000	0.000000	148.000000	48.000000	5.000000	-6.000000
1.430000	62.690000	72.290000	281.000000	0.000000	148.000000	48.000000	10.000000	0.000000
1.440000	62.860000	72.350000	281.000000	0.000000	148.000000	48.000000	17.000000	6.000000
1.450000	63.020000	72.470000	281.000000	0.000000	148.000000	48.000000	16.000000	12.000000
1.460000	63.160000	72.620000	280.000000	0.000000	148.000000	48.000000	14.000000	15.000000
1.470000	63.300000	72.840000	284.000000	0.000000	149.000000	49.000000	14.000000	22.000000
1.480000	63.370000	73.040000	274.000000	0.000000	149.000000	49.000000	7.000000	20.000000
1.490000	63.370000	73.180000	289.000000	0.000000	149.000000	49.000000	0.000000	14.000000
1.500000	63.370000	73.290000	282.000000	0.000000	149.000000	49.000000	0.000000	11.000000
1.510000	63.320000	73.390000	280.000000	0.000000	149.000000	49.000000	-5.000000	10.000000
1.520000	63.320000	73.440000	155.000000	0.000000	149.000000	49.000000	0.000000	5.000000
1.530000	63.320000	73.440000	0.000000	1.000000	149.000000	49.000000	0.000000	0.000000
1.540000	63.260000	73.440000	0.000000	0.000000	149.000000	49.000000	-6.000000	0.000000
1.550000	63.260000	73.370000	0.000000	0.000000	149.000000	49.000000	0.000000	-7.000000
1.560000	63.330000	73.370000	0.000000	0.000000	149.000000	49.000000	7.000000	0.000000
1.570000	63.410000	73.370000	0.000000	0.000000	149.000000	49.000000	8.000000	0.000000
1.580000	63.530000	73.500000	0.000000	0.000000	151.000000	49.000000	12.000000	13.000000
1.590000	63.660000	73.610000	0.000000	0.000000	151.000000	49.000000	13.000000	11.000000
1.600000	63.830000	73.730000	0.000000	0.000000	151.000000	49.000000	17.000000	12.000000
1.610000	63.910000	73.730000	0.000000	0.000000	151.000000	49.000000	8.000000	0.000000
1.620000	63.910000	73.730000	0.000000	0.000000	151.000000	49.000000	0.000000	0.000000
1.630000	63.980000	73.730000	0.000000	0.000000	151.000000	49.000000	7.000000	0.000000
1.640000	63.980000	73.730000	13.000000	0.000000	151.000000	49.000000	0.000000	0.000000
1.650000	63.980000	73.730000	160.000000	1.000000	149.000000	49.000000	0.000000	0.000000
1.660000	63.980000	73.730000	256.000000	0.000000	149.000000	49.000000	0.000000	0.000000
1.670000	63.980000	73.730000	305.000000	0.000000	149.000000	49.000000	0.000000	0.000000
1.680000	63.980000	73.730000	345.000000	0.000000	149.000000	49.000000	0.000000	0.000000
1.690000	63.980000	73.730000	368.000000	0.000000	151.000000	49.000000	0.000000	0.000000
1.700000	63.980000	73.730000	382.000000	0.000000	151.000000	49.000000	0.000000	0.000000
1.710000	63.980000	73.730000	381.000000	0.000000	151.000000	49.000000	0.000000	0.000000
1.720000	63.980000	73.350000	379.000000	0.000000	151.000000	49.000000	0.000000	-38.000000
1.730000	63.980000	73.140000	364.000000	0.000000	151.000000	49.000000	0.000000	-21.000000
1.740000	63.980000	72.940000	330.000000	0.000000	151.000000	49.000000	0.000000	-20.000000
1.750000	63.980000	72.730000	173.000000	0.000000	151.000000	49.000000	0.000000	-21.000000
1.760000	63.980000	72.730000	0.000000	1.000000	151.000000	49.000000	0.000000	0.000000
1.770000	64.040000	72.630000	0.000000	0.000000	151.000000	49.000000	6.000000	-10.000000
1.780000	64.130000	72.710000	0.000000	0.000000	151.000000	49.000000	9.000000	8.000000
1.790000	64.190000	72.930000	0.000000	0.000000	151.000000	49.000000	6.000000	22.000000
1.800000	64.250000	73.220000	0.000000	0.000000	151.000000	49.000000	6.000000	29.000000
1.810000	64.370000	73.570000	0.000000	0.000000	151.000000	49.000000	12.000000	35.000000
1.820000	64.570000	73.960000	0.000000	0.000000	151.000000	49.000000	20.000000	39.000000
1.830000	64.700000	74.370000	0.000000	0.000000	149.000000	49.000000	13.000000	41.000000
1.840000	64.770000	74.780000	0.000000	0.000000	149.000000	49.000000	7.000000	41.000000
1.850000	64.770000	75.150000	0.000000	0.000000	149.000000	49.000000	0.000000	37.000000
1.860000	64.770000	75.440000	0.000000	0.000000	149.000000	49.000000	0.000000	29.000000
1.870000	64.710000	75.620000	0.000000	0.000000	149.000000	49.000000	-6.000000	18.000000
1.880000	64.710000	75.620000	58.000000	1.000000	148.000000	50.000000	0.000000	0.000000
1.890000	64.710000	75.620000	39.000000	0.000000	148.000000	50.000000	0.000000	0.000000
1.900000	64.710000	75.620000	0.000000	1.000000	148.000000	50.000000	0.000000	0.000000
1.910000	64.710000	75.620000	0.000000	0.000000	148.000000	50.000000	0.000000	0.000000
1.920000	64.710000	75.620000	0.000000	0.000000	149.000000	51.000000	0.000000	0.000000
1.930000	64.710000	75.620000	0.000000	0.000000	149.000000	51.000000	0.000000	0.000000
1.940000	64.980000	75.750000	0.000000	0.000000	149.000000	51.000000	27.000000	13.000000
1.950000	65.120000	75.920000	0.000000	0.000000	149.000000	51.000000	14.000000	17.000000
1.960000	65.320000	76.100000	0.000000	0.000000	149.000000	51.000000	20.000000	18.000000
1.970000	65.560000	76.320000	0.000000	0.000000	149.000000	51.000000	24.000000	22.000000
1.980000	65.800000	76.470000	0.000000	0.000000	149.000000	51.000000	24.000000	15.000000
1.990000	65.970000	76.620000	0.000000	0.000000	149.000000	51.000000	17.000000	15.000000
2.000000	66.110000	76.620000	0.000000	0.000000	149.000000	51.000000	14.000000	0.000000
2.010000	66.170000	76.490000	0.000000	0.000000	150.000000	51.000000	6.000000	-13.000000
2.020000	66.230000	76.370000	0.000000	0.000000	150.000000	51.000000	6.000000	-12.000000
2.030000	66.230000	76.370000	67.000000	1.000000	150.000000	51.000000	0.000000	0.000000
2.040000	66.230000	76.060000	101.000000	0.000000	149.000000	52.000000	0.000000	-31.000000
2.050000	66.290000	75.830000	165.000000	0.000000	149.000000	52.000000	6.000000	-23.000000
2.060000	66.340000	75.490000	188.000000	0.000000	149.000000	52.000000	5.000000	-34.000000
2.070000	66.450000	75.120000	207.000000	0.000000	149.000000	52.000000	11.000000	-37.000000
2.080000	66.550000	74.730000	232.000000	0.000000	149.000000	52.000000	10.000000	-39.000000
2.090000	66.660000	74.350000	244.000000	0.000000	149.000000	52.000000	11.000000	-38.000000
2.100000	66.760000	74.050000	246.000000	0.000000	150.000000	52.000000	10.000000	-30.000000
2.110000	66.880000	73.800000	244.000000	0.000000	150.000000	52.000000	12.000000	-25.000000
2.120000	66.980000	73.700000	240.000000	0.000000	151.000000	51.000000	10.000000	-10.000000
2.130000	66.980000	73.700000	251.000000	0.000000	151.000000	51.000000	0.000000	0.000000
2.140000	66.980000	73.700000	242.000000	0.000000	151.000000	51.000000	0.000000	0.000000
2.150000	66.910000	73.810000	247.000000	0.000000	152.000000	51.000000	-7.000000	11.000000
2.160000	66.750000	73.940000	249.000000	0.000000	152.000000	51.000000	-16.000000	13.000000
2.170000	66.530000	74.070000	245.000000	0.000000	152.000000	51.000000	-22.000000	13.000000
2.180000	66.250000	74.210000	249.000000	0.000000	152.000000	51.000000	-28.000000	14.000000
2.190000	65.950000	74.330000	270.000000	0.000000	152.000000	51.000000	-30.000000	12.000000
2.200000	65.640000	74.330000	314.000000	0.000000	152.000000	51.000000	-31.000000	0.000000
2.210000	65.430000	74.330000	373.000000	0.000000	151.000000	50.000000	-21.000000	0.000000
2.220000	65.260000	74.250000	381.000000	0.000000	151.000000	50.000000	-17.000000	-8.000000
2.230000	65.170000	74.080000	396.000000	0.000000	151.000000	50.000000	-9.000000	-17.000000
