t	x	y	pressure	penup	azimuth	inclination	v_x	v_y
0.000000	52.570000	81.370000	172.000000	1.000000	136.000000	60.000000	0.000000	0.000000
0.010000	51.580000	80.960000	213.000000	0.000000	136.000000	60.000000	-99.000000	-41.000000
0.020000	50.740000	80.780000	279.000000	0.000000	139.000000	60.000000	-84.000000	-18.000000
0.030000	49.630000	80.360000	364.000000	0.000000	139.000000	60.000000	-111.000000	-42.000000
0.040000	48.340000	79.930000	460.000000	0.000000	141.000000	60.000000	-129.000000	-43.000000
0.050000	47.100000	79.610000	538.000000	0.000000	141.000000	60.000000	-124.000000	-32.000000
0.060000	46.270000	79.360000	589.000000	0.000000	139.000000	61.000000	-83.000000	-25.000000
0.070000	45.720000	79.300000	646.000000	0.000000	139.000000	61.000000	-55.000000	-6.000000
0.080000	45.770000	79.350000	702.000000	0.000000	139.000000	61.000000	5.000000	5.000000
0.090000	46.570000	79.480000	793.000000	0.000000	139.000000	61.000000	80.000000	13.000000
0.100000	47.860000	79.860000	854.000000	0.000000	139.000000	61.000000	129.000000	38.000000
0.110000	49.930000	80.520000	896.000000	0.000000	139.000000	61.000000	207.000000	66.000000
0.120000	52.490000	81.370000	921.000000	0.000000	139.000000	61.000000	256.000000	85.000000
0.130000	55.380000	82.130000	932.000000	0.000000	142.000000	61.000000	289.000000	76.000000
0.140000	58.230000	82.620000	941.000000	0.000000	142.000000	61.000000	285.000000	49.000000
0.150000	60.560000	82.930000	917.000000	0.000000	145.000000	60.000000	233.000000	31.000000
0.160000	62.530000	82.930000	902.000000	0.000000	145.000000	60.000000	197.000000	0.000000
0.170000	63.730000	82.800000	869.000000	0.000000	145.000000	60.000000	120.000000	-13.000000
0.180000	64.170000	82.500000	861.000000	0.000000	146.000000	60.000000	44.000000	-30.000000
0.190000	64.100000	81.980000	857.000000	0.000000	146.000000	60.000000	-7.000000	-52.000000
0.200000	63.520000	81.160000	817.000000	0.000000	146.000000	60.000000	-58.000000	-82.000000
0.210000	62.170000	80.140000	797.000000	0.000000	145.000000	60.000000	-135.000000	-102.000000
0.220000	60.310000	78.800000	799.000000	0.000000	145.000000	60.000000	-186.000000	-134.000000
0.230000	57.540000	77.400000	794.000000	0.000000	145.000000	60.000000	-277.000000	-140.000000
0.240000	54.240000	75.900000	790.000000	0.000000	145.000000	60.000000	-330.000000	-150.000000
0.250000	50.580000	74.550000	809.000000	0.000000	144.000000	60.000000	-366.000000	-135.000000
0.260000	47.340000	73.320000	855.000000	0.000000	144.000000	60.000000	-324.000000	-123.000000
0.270000	45.150000	72.700000	891.000000	0.000000	144.000000	60.000000	-219.000000	-62.000000
0.280000	43.650000	72.480000	912.000000	0.000000	144.000000	60.000000	-150.000000	-22.000000
0.290000	43.450000	72.480000	905.000000	0.000000	142.000000	59.000000	-20.000000	0.000000
0.300000	44.050000	72.730000	930.000000	0.000000	142.000000	59.000000	60.000000	25.000000
0.310000	45.170000	73.380000	947.000000	0.000000	142.000000	59.000000	112.000000	65.000000
0.320000	47.840000	74.320000	979.000000	0.000000	142.000000	58.000000	267.000000	94.000000
0.330000	51.160000	75.510000	991.000000	0.000000	141.000000	59.000000	332.000000	119.000000
0.340000	54.910000	76.730000	995.000000	0.000000	142.000000	59.000000	375.000000	122.000000
0.350000	59.200000	77.980000	982.000000	0.000000	142.000000	59.000000	429.000000	125.000000
0.360000	63.340000	79.230000	936.000000	0.000000	142.000000	59.000000	414.000000	125.000000
0.370000	67.380000	80.450000	915.000000	0.000000	142.000000	61.000000	404.000000	122.000000
0.380000	70.960000	81.370000	887.000000	0.000000	142.000000	61.000000	358.000000	92.000000
0.390000	73.440000	82.110000	826.000000	0.000000	144.000000	61.000000	248.000000	74.000000
0.400000	75.180000	82.450000	736.000000	0.000000	144.000000	61.000000	174.000000	34.000000
0.410000	75.570000	82.590000	617.000000	0.000000	144.000000	61.000000	39.000000	14.000000
0.420000	75.060000	82.590000	286.000000	0.000000	144.000000	61.000000	-51.000000	0.000000
0.430000	75.060000	82.590000	0.000000	1.000000	144.000000	61.000000	0.000000	0.000000
0.440000	72.450000	82.150000	0.000000	0.000000	144.000000	61.000000	-261.000000	-44.000000
0.450000	70.260000	81.820000	0.000000	0.000000	144.000000	61.000000	-219.000000	-33.000000
0.460000	67.620000	81.410000	0.000000	0.000000	143.000000	62.000000	-264.000000	-41.000000
0.470000	65.260000	81.000000	0.000000	0.000000	141.000000	61.000000	-236.000000	-41.000000
0.480000	63.500000	80.590000	0.000000	0.000000	141.000000	61.000000	-176.000000	-41.000000
0.490000	62.150000	80.210000	0.000000	0.000000	138.000000	61.000000	-135.000000	-38.000000
0.500000	61.450000	79.820000	0.000000	0.000000	137.000000	62.000000	-70.000000	-39.000000
0.510000	61.360000	79.510000	0.000000	0.000000	135.000000	62.000000	-9.000000	-31.000000
0.520000	61.670000	79.260000	0.000000	0.000000	132.000000	61.000000	31.000000	-25.000000
0.530000	62.130000	79.060000	0.000000	0.000000	132.000000	60.000000	46.000000	-20.000000
0.540000	62.610000	78.930000	0.000000	0.000000	131.000000	60.000000	48.000000	-13.000000
0.550000	63.140000	78.860000	0.000000	0.000000	131.000000	58.000000	53.000000	-7.000000
0.560000	63.580000	78.960000	0.000000	0.000000	132.000000	58.000000	44.000000	10.000000
0.570000	63.970000	79.060000	0.000000	0.000000	134.000000	57.000000	39.000000	10.000000
0.580000	64.250000	79.160000	0.000000	0.000000	135.000000	57.000000	28.000000	10.000000
0.590000	64.490000	79.310000	0.000000	0.000000	136.000000	56.000000	24.000000	15.000000
0.600000	64.700000	79.500000	0.000000	0.000000	136.000000	57.000000	21.000000	19.000000
0.610000	64.800000	79.670000	0.000000	0.000000	136.000000	57.000000	10.000000	17.000000
0.620000	64.880000	79.840000	0.000000	0.000000	134.000000	58.000000	8.000000	17.000000
0.630000	64.950000	80.020000	0.000000	0.000000	132.000000	59.000000	7.000000	18.000000
0.640000	65.010000	80.210000	0.000000	0.000000	131.000000	60.000000	6.000000	19.000000
0.650000	65.080000	80.210000	0.000000	0.000000	129.000000	60.000000	7.000000	0.000000
0.660000	65.080000	80.280000	0.000000	0.000000	129.000000	60.000000	0.000000	7.000000
0.670000	65.080000	80.280000	0.000000	0.000000	128.000000	61.000000	0.000000	0.000000
0.680000	65.080000	80.280000	0.000000	0.000000	128.000000	61.000000	0.000000	0.000000
0.690000	65.010000	80.280000	0.000000	0.000000	128.000000	61.000000	-7.000000	0.000000
0.700000	65.010000	80.220000	0.000000	0.000000	128.000000	61.000000	0.000000	-6.000000
0.710000	64.870000	80.130000	0.000000	0.000000	128.000000	61.000000	-14.000000	-9.000000
0.720000	64.800000	80.130000	0.000000	0.000000	128.000000	61.000000	-7.000000	0.000000
0.730000	64.800000	80.210000	0.000000	0.000000	128.000000	61.000000	0.000000	8.000000
0.740000	64.800000	80.210000	0.000000	0.000000	129.000000	60.000000	0.000000	0.000000
0.750000	64.850000	80.210000	0.000000	0.000000	129.000000	60.000000	5.000000	0.000000
0.760000	64.850000	80.210000	0.000000	0.000000	129.000000	60.000000	0.000000	0.000000
0.770000	65.020000	80.270000	0.000000	0.000000	129.000000	60.000000	17.000000	6.000000
0.780000	65.170000	80.360000	0.000000	0.000000	129.000000	60.000000	15.000000	9.000000
0.790000	65.360000	80.470000	0.000000	0.000000	131.000000	60.000000	19.000000	11.000000
0.800000	65.540000	80.580000	0.000000	0.000000	131.000000	60.000000	18.000000	11.000000
0.810000	65.700000	80.690000	0.000000	0.000000	131.000000	60.000000	16.000000	11.000000
0.820000	65.820000	80.780000	0.000000	0.000000	131.000000	60.000000	12.000000	9.000000
0.830000	65.820000	80.780000	49.000000	1.000000	131.000000	60.000000	0.000000	0.000000
0.840000	65.820000	80.780000	107.000000	0.000000	131.000000	60.000000	0.000000	0.000000
0.850000	65.820000	80.780000	185.000000	0.000000	132.000000	59.000000	0.000000	0.000000
0.860000	65.820000	80.780000	287.000000	0.000000	132.000000	59.000000	0.000000	0.000000
0.870000	65.820000	80.780000	344.000000	0.000000	132.000000	59.000000	0.000000	0.000000
0.880000	65.630000	81.090000	422.000000	0.000000	132.000000	59.000000	-19.000000	31.000000
0.890000	65.490000	81.090000	464.000000	0.000000	132.000000	59.000000	-14.000000	0.000000
0.900000	65.340000	81.150000	530.000000	0.000000	132.000000	59.000000	-15.000000	6.000000
0.910000	65.170000	81.150000	569.000000	0.000000	132.000000	59.000000	-17.000000	0.000000
0.920000	64.980000	81.150000	617.000000	0.000000	134.000000	58.000000	-19.000000	0.000000
0.930000	64.850000	81.150000	636.000000	0.000000	134.000000	58.000000	-13.000000	0.000000
0.940000	64.750000	81.030000	641.000000	0.000000	134.000000	58.000000	-10.000000	-12.000000
0.950000	64.700000	80.910000	644.000000	0.000000	134.000000	58.000000	-5.000000	-12.000000
0.960000	64.700000	80.740000	631.000000	0.000000	132.000000	58.000000	0.000000	-17.000000
0.970000	64.700000	80.510000	624.000000	0.000000	132.000000	58.000000	0.000000	-23.000000
0.980000	64.750000	80.270000	624.000000	0.000000	132.000000	58.000000	5.000000	-24.000000
0.990000	64.890000	80.050000	613.000000	0.000000	132.000000	58.000000	14.000000	-22.000000
1.000000	65.060000	79.850000	605.000000	0.000000	132.000000	58.000000	17.000000	-20.000000
1.010000	65.240000	79.720000	595.000000	0.000000	131.000000	58.000000	18.000000	-13.000000
1.020000	65.420000	79.610000	577.000000	0.000000	131.000000	58.000000	18.000000	-11.000000
1.030000	65.630000	79.530000	561.000000	0.000000	131.000000	58.000000	21.000000	-8.000000
1.040000	65.850000	79.530000	553.000000	0.000000	131.000000	58.000000	22.000000	0.000000
1.050000	66.100000	79.690000	546.000000	0.000000	131.000000	58.000000	25.000000	16.000000
1.060000	66.310000	79.900000	537.000000	0.000000	131.000000	58.000000	21.000000	21.000000
1.070000	66.470000	80.160000	535.000000	0.000000	131.000000	58.000000	16.000000	26.000000
1.080000	66.610000	80.460000	537.000000	0.000000	131.000000	58.000000	14.000000	30.000000
1.090000	66.610000	80.750000	551.000000	0.000000	131.000000	58.000000	0.000000	29.000000
1.100000	66.510000	81.050000	563.000000	0.000000	131.000000	58.000000	-10.000000	30.000000
1.110000	66.410000	81.330000	581.000000	0.000000	131.000000	58.000000	-10.000000	28.000000
1.120000	66.330000	81.540000	606.000000	0.000000	131.000000	58.000000	-8.000000	21.000000
1.130000	66.270000	81.630000	631.000000	0.000000	132.000000	58.000000	-6.000000	9.000000
1.140000	66.270000	81.630000	637.000000	0.000000	132.000000	58.000000	0.000000	0.000000
1.150000	66.270000	81.630000	640.000000	0.000000	132.000000	58.000000	0.000000	0.000000
1.160000	66.270000	81.550000	652.000000	0.000000	132.000000	58.000000	0.000000	-8.000000
1.170000	66.270000	81.410000	653.000000	0.000000	134.000000	57.000000	0.000000	-14.000000
1.180000	66.380000	81.180000	655.000000	0.000000	134.000000	57.000000	11.000000	-23.000000
1.190000	66.480000	80.890000	640.000000	0.000000	134.000000	57.000000	10.000000	-29.000000
1.200000	66.560000	80.600000	594.000000	0.000000	134.000000	57.000000	8.000000	-29.000000
1.210000	66.660000	80.350000	504.000000	0.000000	134.000000	57.000000	10.000000	-25.000000
1.220000	66.830000	80.240000	279.000000	0.000000	132.000000	58.000000	17.000000	-11.000000
1.230000	66.830000	80.240000	0.000000	1.000000	134.000000	58.000000	0.000000	0.000000
1.240000	67.390000	80.360000	0.000000	0.000000	134.000000	58.000000	56.000000	12.000000
1.250000	67.730000	80.570000	0.000000	0.000000	134.000000	58.000000	34.000000	21.000000
1.260000	68.030000	80.820000	0.000000	0.000000	134.000000	60.000000	30.000000	25.000000
1.270000	68.320000	81.050000	0.000000	0.000000	134.000000	60.000000	29.000000	23.000000
1.280000	68.670000	81.270000	0.000000	0.000000	135.000000	60.000000	35.000000	22.000000
1.290000	68.980000	81.450000	0.000000	0.000000	135.000000	60.000000	31.000000	18.000000
1.300000	69.130000	81.540000	0.000000	0.000000	135.000000	60.000000	15.000000	9.000000
1.310000	69.190000	81.540000	0.000000	0.000000	135.000000	60.000000	6.000000	0.000000
1.320000	69.060000	81.480000	0.000000	0.000000	135.000000	60.000000	-13.000000	-6.000000
1.330000	68.870000	81.430000	0.000000	0.000000	134.000000	60.000000	-19.000000	-5.000000
1.340000	68.650000	81.430000	0.000000	0.000000	134.000000	60.000000	-22.000000	0.000000
1.350000	68.390000	81.350000	0.000000	0.000000	134.000000	60.000000	-26.000000	-8.000000
1.360000	68.150000	81.350000	0.000000	0.000000	132.000000	59.000000	-24.000000	0.000000
1.370000	68.000000	81.280000	0.000000	0.000000	134.000000	60.000000	-15.000000	-7.000000
1.380000	67.910000	81.280000	0.000000	0.000000	134.000000	60.000000	-9.000000	0.000000
1.390000	67.910000	81.420000	0.000000	0.000000	134.000000	60.000000	0.000000	14.000000
1.400000	67.910000	81.420000	39.000000	1.000000	135.000000	60.000000	0.000000	0.000000
1.410000	67.910000	81.420000	101.000000	0.000000	136.000000	60.000000	0.000000	0.000000
1.420000	67.910000	81.760000	206.000000	0.000000	136.000000	60.000000	0.000000	34.000000
1.430000	67.910000	81.850000	314.000000	0.000000	136.000000	60.000000	0.000000	9.000000
1.440000	67.970000	81.910000	367.000000	0.000000	136.000000	60.000000	6.000000	6.000000
1.450000	67.970000	81.910000	412.000000	0.000000	135.000000	59.000000	0.000000	0.000000
1.460000	67.970000	81.860000	446.000000	0.000000	135.000000	59.000000	0.000000	-5.000000
1.470000	68.050000	81.770000	455.000000	0.000000	136.000000	58.000000	8.000000	-9.000000
1.480000	68.120000	81.600000	478.000000	0.000000	136.000000	58.000000	7.000000	-17.000000
1.490000	68.180000	81.410000	483.000000	0.000000	135.000000	58.000000	6.000000	-19.000000
1.500000	68.280000	81.200000	491.000000	0.000000	135.000000	58.000000	10.000000	-21.000000
1.510000	68.390000	81.000000	491.000000	0.000000	135.000000	58.000000	11.000000	-20.000000
1.520000	68.550000	80.870000	481.000000	0.000000	135.000000	59.000000	16.000000	-13.000000
1.530000	68.720000	80.800000	468.000000	0.000000	135.000000	59.000000	17.000000	-7.000000
1.540000	68.870000	80.860000	467.000000	0.000000	135.000000	59.000000	15.000000	6.000000
1.550000	69.100000	80.980000	468.000000	0.000000	136.000000	60.000000	23.000000	12.000000
1.560000	69.320000	81.130000	465.000000	0.000000	136.000000	60.000000	22.000000	15.000000
1.570000	69.520000	81.310000	464.000000	0.000000	136.000000	60.000000	20.000000	18.000000
1.580000	69.670000	81.520000	472.000000	0.000000	138.000000	60.000000	15.000000	21.000000
1.590000	69.760000	81.760000	481.000000	0.000000	138.000000	60.000000	9.000000	24.000000
1.600000	69.760000	81.950000	514.000000	0.000000	139.000000	61.000000	0.000000	19.000000
1.610000	69.760000	82.100000	550.000000	0.000000	139.000000	61.000000	0.000000	15.000000
1.620000	69.760000	82.150000	586.000000	0.000000	139.000000	61.000000	0.000000	5.000000
1.630000	69.760000	82.150000	613.000000	0.000000	141.000000	61.000000	0.000000	0.000000
1.640000	69.680000	82.150000	595.000000	0.000000	141.000000	61.000000	-8.000000	0.000000
1.650000	69.680000	82.070000	544.000000	0.000000	141.000000	61.000000	0.000000	-8.000000
1.660000	69.620000	81.960000	304.000000	0.000000	141.000000	61.000000	-6.000000	-11.000000
1.670000	69.620000	81.960000	0.000000	1.000000	141.000000	61.000000	0.000000	0.000000
1.680000	69.560000	81.700000	0.000000	0.000000	139.000000	61.000000	-6.000000	-26.000000
1.690000	69.560000	81.700000	0.000000	0.000000	139.000000	61.000000	0.000000	0.000000
1.700000	69.560000	81.700000	0.000000	0.000000	139.000000	61.000000	0.000000	0.000000
1.710000	69.730000	81.890000	0.000000	0.000000	139.000000	61.000000	17.000000	19.000000
1.720000	69.940000	82.100000	0.000000	0.000000	138.000000	60.000000	21.000000	21.000000
1.730000	70.180000	82.250000	0.000000	0.000000	136.000000	61.000000	24.000000	15.000000
1.740000	70.330000	82.390000	0.000000	0.000000	135.000000	60.000000	15.000000	14.000000
1.750000	70.430000	82.500000	0.000000	0.000000	135.000000	60.000000	10.000000	11.000000
1.760000	70.430000	82.590000	0.000000	0.000000	134.000000	60.000000	0.000000	9.000000
1.770000	70.490000	82.700000	0.000000	0.000000	134.000000	60.000000	6.000000	11.000000
1.780000	70.490000	82.700000	156.000000	1.000000	134.000000	60.000000	0.000000	0.000000
1.790000	70.490000	82.700000	301.000000	0.000000	134.000000	60.000000	0.000000	0.000000
1.800000	70.490000	82.700000	337.000000	0.000000	134.000000	60.000000	0.000000	0.000000
1.810000	70.490000	82.700000	396.000000	0.000000	136.000000	60.000000	0.000000	0.000000
1.820000	70.490000	82.700000	420.000000	0.000000	136.000000	60.000000	0.000000	0.000000
1.830000	70.490000	82.700000	445.000000	0.000000	136.000000	60.000000	0.000000	0.000000
1.840000	70.490000	82.700000	467.000000	0.000000	138.000000	60.000000	0.000000	0.000000
1.850000	70.490000	82.330000	512.000000	0.000000	138.000000	60.000000	0.000000	-37.000000
1.860000	70.490000	82.060000	540.000000	0.000000	138.000000	60.000000	0.000000	-27.000000
1.870000	70.490000	81.790000	546.000000	0.000000	139.000000	60.000000	0.000000	-27.000000
1.880000	70.490000	81.640000	498.000000	0.000000	139.000000	60.000000	0.000000	-15.000000
1.890000	70.550000	81.570000	291.000000	0.000000	138.000000	60.000000	6.000000	-7.000000
1.900000	70.550000	81.570000	0.000000	1.000000	138.000000	60.000000	0.000000	0.000000
1.910000	70.690000	81.670000	0.000000	0.000000	138.000000	60.000000	14.000000	10.000000
1.920000	70.760000	81.960000	0.000000	0.000000	138.000000	60.000000	7.000000	29.000000
1.930000	70.830000	82.310000	0.000000	0.000000	138.000000	60.000000	7.000000	35.000000
1.940000	70.900000	82.760000	0.000000	0.000000	138.000000	60.000000	7.000000	45.000000
1.950000	71.050000	83.280000	0.000000	0.000000	138.000000	60.000000	15.000000	52.000000
1.960000	71.200000	83.770000	0.000000	0.000000	138.000000	60.000000	15.000000	49.000000
1.970000	71.360000	84.050000	0.000000	0.000000	136.000000	60.000000	16.000000	28.000000
1.980000	71.360000	84.200000	0.000000	0.000000	136.000000	60.000000	0.000000	15.000000
1.990000	71.360000	84.200000	477.000000	1.000000	136.000000	60.000000	0.000000	0.000000
2.000000	71.360000	84.200000	501.000000	0.000000	135.000000	59.000000	0.000000	0.000000
2.010000	71.360000	84.200000	568.000000	0.000000	135.000000	59.000000	0.000000	0.000000
2.020000	71.360000	84.200000	575.000000	0.000000	136.000000	60.000000	0.000000	0.000000
2.030000	71.360000	84.200000	546.000000	0.000000	136.000000	60.000000	0.000000	0.000000
2.040000	71.360000	84.200000	393.000000	0.000000	136.000000	60.000000	0.000000	0.000000
2.050000	71.360000	84.200000	0.000000	1.000000	136.000000	60.000000	0.000000	0.000000
2.060000	71.360000	84.200000	0.000000	0.000000	136.000000	60.000000	0.000000	0.000000
2.070000	71.630000	84.140000	0.000000	0.000000	136.000000	60.000000	27.000000	-6.000000
2.080000	71.700000	84.250000	0.000000	0.000000	136.000000	60.000000	7.000000	11.000000
2.090000	71.940000	84.400000	0.000000	0.000000	136.000000	60.000000	24.000000	15.000000
2.100000	72.210000	84.620000	0.000000	0.000000	136.000000	60.000000	27.000000	22.000000
2.110000	72.540000	84.890000	0.000000	0.000000	135.000000	59.000000	33.000000	27.000000
2.120000	72.730000	85.010000	0.000000	0.000000	135.000000	59.000000	19.000000	12.000000
2.130000	72.830000	85.100000	0.000000	0.000000	135.000000	59.000000	10.000000	9.000000
2.140000	72.830000	85.100000	98.000000	1.000000	135.000000	59.000000	0.000000	0.000000
2.150000	72.830000	85.100000	220.000000	0.000000	135.000000	60.000000	0.000000	0.000000
2.160000	72.830000	85.100000	212.000000	0.000000	135.000000	60.000000	0.000000	0.000000
2.170000	72.830000	85.100000	275.000000	0.000000	135.000000	60.000000	0.000000	0.000000
2.180000	72.830000	85.100000	312.000000	0.000000	135.000000	60.000000	0.000000	0.000000
2.190000	72.880000	84.690000	334.000000	0.000000	135.000000	60.000000	5.000000	-41.000000
2.200000	72.990000	84.470000	396.000000	0.000000	135.000000	60.000000	11.000000	-22.000000
2.210000	73.070000	84.140000	420.000000	0.000000	135.000000	60.000000	8.000000	-33.000000
2.220000	73.140000	83.760000	436.000000	0.000000	135.000000	60.000000	7.000000	-38.000000
