t	x	y	pressure	penup	azimuth	inclination	v_x	v_y
0.000000	47.990000	65.690000	317.000000	1.000000	151.000000	50.000000	0.000000	0.000000
0.010000	48.590000	65.520000	359.000000	0.000000	151.000000	50.000000	60.000000	-17.000000
0.020000	48.720000	66.130000	398.000000	0.000000	151.000000	50.000000	13.000000	61.000000
0.030000	49.150000	66.540000	492.000000	0.000000	150.000000	51.000000	43.000000	41.000000
0.040000	49.950000	66.820000	567.000000	0.000000	149.000000	51.000000	80.000000	28.000000
0.050000	51.000000	67.170000	627.000000	0.000000	149.000000	52.000000	105.000000	35.000000
0.060000	52.380000	67.470000	658.000000	0.000000	149.000000	52.000000	138.000000	30.000000
0.070000	53.840000	67.570000	673.000000	0.000000	148.000000	53.000000	146.000000	10.000000
0.080000	55.350000	67.570000	666.000000	0.000000	148.000000	53.000000	151.000000	0.000000
0.090000	56.660000	67.380000	675.000000	0.000000	149.000000	53.000000	131.000000	-19.000000
0.100000	57.760000	67.070000	664.000000	0.000000	149.000000	53.000000	110.000000	-31.000000
0.110000	58.720000	66.670000	673.000000	0.000000	149.000000	53.000000	96.000000	-40.000000
0.120000	59.090000	66.130000	664.000000	0.000000	149.000000	53.000000	37.000000	-54.000000
0.130000	58.810000	65.570000	687.000000	0.000000	149.000000	53.000000	-28.000000	-56.000000
0.140000	58.100000	64.740000	710.000000	0.000000	149.000000	53.000000	-71.000000	-83.000000
0.150000	56.560000	63.730000	721.000000	0.000000	149.000000	53.000000	-154.000000	-101.000000
0.160000	54.260000	62.610000	754.000000	0.000000	149.000000	53.000000	-230.000000	-112.000000
0.170000	51.460000	61.450000	746.000000	0.000000	150.000000	52.000000	-280.000000	-116.000000
0.180000	48.830000	60.420000	768.000000	0.000000	149.000000	52.000000	-263.000000	-103.000000
0.190000	46.460000	59.510000	791.000000	0.000000	148.000000	51.000000	-237.000000	-91.000000
0.200000	44.250000	59.190000	834.000000	0.000000	148.000000	51.000000	-221.000000	-32.000000
0.210000	43.010000	59.090000	891.000000	0.000000	147.000000	52.000000	-124.000000	-10.000000
0.220000	42.680000	59.140000	906.000000	0.000000	146.000000	52.000000	-33.000000	5.000000
0.230000	42.960000	59.340000	897.000000	0.000000	146.000000	52.000000	28.000000	20.000000
0.240000	44.180000	60.050000	914.000000	0.000000	146.000000	52.000000	122.000000	71.000000
0.250000	46.420000	61.110000	933.000000	0.000000	146.000000	52.000000	224.000000	106.000000
0.260000	49.350000	62.230000	939.000000	0.000000	146.000000	52.000000	293.000000	112.000000
0.270000	53.290000	63.500000	938.000000	0.000000	147.000000	52.000000	394.000000	127.000000
0.280000	57.850000	64.880000	948.000000	0.000000	147.000000	52.000000	456.000000	138.000000
0.290000	62.820000	66.220000	930.000000	0.000000	148.000000	53.000000	497.000000	134.000000
0.300000	67.920000	67.510000	939.000000	0.000000	150.000000	52.000000	510.000000	129.000000
0.310000	72.260000	68.420000	902.000000	0.000000	152.000000	53.000000	434.000000	91.000000
0.320000	76.100000	69.090000	827.000000	0.000000	153.000000	53.000000	384.000000	67.000000
0.330000	78.560000	69.620000	690.000000	0.000000	154.000000	53.000000	246.000000	53.000000
0.340000	79.550000	69.710000	466.000000	0.000000	156.000000	53.000000	99.000000	9.000000
0.350000	79.550000	69.510000	136.000000	0.000000	156.000000	53.000000	0.000000	-20.000000
0.360000	79.550000	69.510000	0.000000	1.000000	156.000000	53.000000	0.000000	0.000000
0.370000	76.150000	68.450000	0.000000	0.000000	157.000000	54.000000	-340.000000	-106.000000
0.380000	73.240000	67.920000	0.000000	0.000000	158.000000	53.000000	-291.000000	-53.000000
0.390000	69.800000	67.400000	0.000000	0.000000	158.000000	53.000000	-344.000000	-52.000000
0.400000	66.380000	66.860000	0.000000	0.000000	158.000000	53.000000	-342.000000	-54.000000
0.410000	62.970000	66.270000	0.000000	0.000000	156.000000	53.000000	-341.000000	-59.000000
0.420000	59.940000	65.540000	0.000000	0.000000	156.000000	51.000000	-303.000000	-73.000000
0.430000	57.800000	64.770000	0.000000	0.000000	156.000000	51.000000	-214.000000	-77.000000
0.440000	56.260000	64.250000	0.000000	0.000000	155.000000	50.000000	-154.000000	-52.000000
0.450000	56.050000	63.890000	0.000000	0.000000	154.000000	50.000000	-21.000000	-36.000000
0.460000	56.430000	63.890000	0.000000	0.000000	154.000000	49.000000	38.000000	0.000000
0.470000	57.200000	63.980000	0.000000	0.000000	153.000000	49.000000	77.000000	9.000000
0.480000	57.880000	64.090000	0.000000	0.000000	153.000000	49.000000	68.000000	11.000000
0.490000	58.550000	64.290000	0.000000	0.000000	153.000000	49.000000	67.000000	20.000000
0.500000	59.200000	64.530000	0.000000	0.000000	152.000000	49.000000	65.000000	24.000000
0.510000	59.830000	64.810000	0.000000	0.000000	153.000000	50.000000	63.000000	28.000000
0.520000	60.120000	65.080000	0.000000	0.000000	152.000000	51.000000	29.000000	27.000000
0.530000	60.420000	65.330000	0.000000	0.000000	152.000000	51.000000	30.000000	25.000000
0.540000	60.550000	65.540000	0.000000	0.000000	151.000000	50.000000	13.000000	21.000000
0.550000	60.550000	65.710000	0.000000	0.000000	151.000000	50.000000	0.000000	17.000000
0.560000	60.550000	65.840000	0.000000	0.000000	151.000000	50.000000	0.000000	13.000000
0.570000	60.390000	65.910000	0.000000	0.000000	150.000000	50.000000	-16.000000	7.000000
0.580000	60.200000	65.960000	0.000000	0.000000	150.000000	50.000000	-19.000000	5.000000
0.590000	59.960000	65.960000	0.000000	0.000000	149.000000	51.000000	-24.000000	0.000000
0.600000	59.750000	65.960000	0.000000	0.000000	149.000000	51.000000	-21.000000	0.000000
0.610000	59.590000	65.960000	0.000000	0.000000	150.000000	51.000000	-16.000000	0.000000
0.620000	59.450000	66.080000	0.000000	0.000000	150.000000	51.000000	-14.000000	12.000000
0.630000	59.330000	66.150000	0.000000	0.000000	150.000000	51.000000	-12.000000	7.000000
0.640000	59.210000	66.240000	0.000000	0.000000	151.000000	51.000000	-12.000000	9.000000
0.650000	59.140000	66.340000	0.000000	0.000000	150.000000	52.000000	-7.000000	10.000000
0.660000	59.140000	66.450000	0.000000	0.000000	152.000000	53.000000	0.000000	11.000000
0.670000	59.220000	66.510000	0.000000	0.000000	152.000000	53.000000	8.000000	6.000000
0.680000	59.400000	66.570000	0.000000	0.000000	152.000000	54.000000	18.000000	6.000000
0.690000	59.650000	66.630000	0.000000	0.000000	152.000000	54.000000	25.000000	6.000000
0.700000	59.930000	66.690000	0.000000	0.000000	152.000000	54.000000	28.000000	6.000000
0.710000	60.220000	66.740000	0.000000	0.000000	151.000000	54.000000	29.000000	5.000000
0.720000	60.500000	66.740000	0.000000	0.000000	151.000000	54.000000	28.000000	0.000000
0.730000	60.770000	66.740000	0.000000	0.000000	151.000000	54.000000	27.000000	0.000000
0.740000	60.770000	66.740000	34.000000	1.000000	151.000000	54.000000	0.000000	0.000000
0.750000	61.190000	66.740000	81.000000	0.000000	150.000000	55.000000	42.000000	0.000000
0.760000	61.290000	66.740000	139.000000	0.000000	150.000000	55.000000	10.000000	0.000000
0.770000	61.360000	66.740000	210.000000	0.000000	150.000000	55.000000	7.000000	0.000000
0.780000	61.360000	66.740000	242.000000	0.000000	150.000000	55.000000	0.000000	0.000000
0.790000	61.290000	66.890000	312.000000	0.000000	149.000000	55.000000	-7.000000	15.000000
0.800000	61.230000	67.000000	339.000000	0.000000	149.000000	55.000000	-6.000000	11.000000
0.810000	61.110000	67.100000	379.000000	0.000000	148.000000	54.000000	-12.000000	10.000000
0.820000	60.970000	67.180000	388.000000	0.000000	147.000000	53.000000	-14.000000	8.000000
0.830000	60.810000	67.240000	404.000000	0.000000	147.000000	53.000000	-16.000000	6.000000
0.840000	60.550000	67.240000	435.000000	0.000000	146.000000	53.000000	-26.000000	0.000000
0.850000	60.280000	67.240000	453.000000	0.000000	145.000000	53.000000	-27.000000	0.000000
0.860000	60.000000	67.160000	485.000000	0.000000	145.000000	53.000000	-28.000000	-8.000000
0.870000	59.780000	67.050000	491.000000	0.000000	145.000000	53.000000	-22.000000	-11.000000
0.880000	59.670000	66.910000	494.000000	0.000000	143.000000	52.000000	-11.000000	-14.000000
0.890000	59.670000	66.740000	492.000000	0.000000	143.000000	52.000000	0.000000	-17.000000
0.900000	59.550000	66.480000	492.000000	0.000000	143.000000	52.000000	-12.000000	-26.000000
0.910000	59.550000	66.170000	492.000000	0.000000	143.000000	52.000000	0.000000	-31.000000
0.920000	59.550000	65.850000	496.000000	0.000000	142.000000	52.000000	0.000000	-32.000000
0.930000	59.790000	65.540000	486.000000	0.000000	142.000000	52.000000	24.000000	-31.000000
0.940000	60.070000	65.420000	493.000000	0.000000	142.000000	52.000000	28.000000	-12.000000
0.950000	60.320000	65.360000	498.000000	0.000000	142.000000	52.000000	25.000000	-6.000000
0.960000	60.600000	65.360000	488.000000	0.000000	142.000000	52.000000	28.000000	0.000000
0.970000	60.910000	65.510000	489.000000	0.000000	142.000000	52.000000	31.000000	15.000000
0.980000	61.220000	65.750000	502.000000	0.000000	142.000000	52.000000	31.000000	24.000000
0.990000	61.540000	66.050000	515.000000	0.000000	143.000000	52.000000	32.000000	30.000000
1.000000	61.660000	66.260000	510.000000	0.000000	143.000000	52.000000	12.000000	21.000000
1.010000	61.660000	66.510000	529.000000	0.000000	143.000000	52.000000	0.000000	25.000000
1.020000	61.590000	66.780000	544.000000	0.000000	143.000000	52.000000	-7.000000	27.000000
1.030000	61.530000	66.960000	564.000000	0.000000	143.000000	52.000000	-6.000000	18.000000
1.040000	61.460000	67.100000	580.000000	0.000000	143.000000	52.000000	-7.000000	14.000000
1.050000	61.460000	67.100000	591.000000	0.000000	143.000000	52.000000	0.000000	0.000000
1.060000	61.400000	67.100000	591.000000	0.000000	143.000000	52.000000	-6.000000	0.000000
1.070000	61.400000	67.100000	591.000000	0.000000	143.000000	52.000000	0.000000	0.000000
1.080000	61.450000	67.100000	594.000000	0.000000	143.000000	52.000000	5.000000	0.000000
1.090000	61.500000	66.990000	595.000000	0.000000	143.000000	52.000000	5.000000	-11.000000
1.100000	61.550000	66.840000	591.000000	0.000000	143.000000	52.000000	5.000000	-15.000000
1.110000	61.610000	66.640000	586.000000	0.000000	143.000000	52.000000	6.000000	-20.000000
1.120000	61.690000	66.420000	562.000000	0.000000	143.000000	52.000000	8.000000	-22.000000
1.130000	61.830000	66.190000	453.000000	0.000000	143.000000	52.000000	14.000000	-23.000000
1.140000	61.960000	66.010000	284.000000	0.000000	143.000000	52.000000	13.000000	-18.000000
1.150000	61.960000	66.010000	0.000000	1.000000	143.000000	52.000000	0.000000	0.000000
1.160000	62.270000	65.830000	0.000000	0.000000	145.000000	53.000000	31.000000	-18.000000
1.170000	62.520000	65.990000	0.000000	0.000000	145.000000	53.000000	25.000000	16.000000
1.180000	62.760000	66.280000	0.000000	0.000000	145.000000	53.000000	24.000000	29.000000
1.190000	62.970000	66.670000	0.000000	0.000000	145.000000	53.000000	21.000000	39.000000
1.200000	63.220000	66.990000	0.000000	0.000000	145.000000	53.000000	25.000000	32.000000
1.210000	63.470000	67.300000	0.000000	0.000000	146.000000	53.000000	25.000000	31.000000
1.220000	63.610000	67.560000	0.000000	0.000000	146.000000	53.000000	14.000000	26.000000
1.230000	63.680000	67.680000	0.000000	0.000000	147.000000	52.000000	7.000000	12.000000
1.240000	63.580000	67.680000	0.000000	0.000000	147.000000	52.000000	-10.000000	0.000000
1.250000	63.420000	67.680000	0.000000	0.000000	147.000000	52.000000	-16.000000	0.000000
1.260000	63.230000	67.680000	0.000000	0.000000	146.000000	52.000000	-19.000000	0.000000
1.270000	63.030000	67.610000	0.000000	0.000000	146.000000	52.000000	-20.000000	-7.000000
1.280000	63.030000	67.610000	15.000000	1.000000	146.000000	52.000000	0.000000	0.000000
1.290000	62.710000	67.610000	44.000000	0.000000	146.000000	52.000000	-32.000000	0.000000
1.300000	62.640000	67.610000	58.000000	0.000000	147.000000	52.000000	-7.000000	0.000000
1.310000	62.640000	67.610000	109.000000	0.000000	147.000000	52.000000	0.000000	0.000000
1.320000	62.580000	67.530000	122.000000	0.000000	147.000000	52.000000	-6.000000	-8.000000
1.330000	62.580000	67.480000	144.000000	0.000000	147.000000	52.000000	0.000000	-5.000000
1.340000	62.580000	67.420000	222.000000	0.000000	147.000000	52.000000	0.000000	-6.000000
1.350000	62.660000	67.350000	260.000000	0.000000	146.000000	52.000000	8.000000	-7.000000
1.360000	62.720000	67.280000	302.000000	0.000000	146.000000	52.000000	6.000000	-7.000000
1.370000	62.780000	67.170000	329.000000	0.000000	145.000000	53.000000	6.000000	-11.000000
1.380000	62.850000	67.040000	349.000000	0.000000	145.000000	53.000000	7.000000	-13.000000
1.390000	62.850000	67.040000	361.000000	0.000000	145.000000	53.000000	0.000000	0.000000
1.400000	63.100000	66.680000	386.000000	0.000000	145.000000	53.000000	25.000000	-36.000000
1.410000	63.260000	66.450000	387.000000	0.000000	143.000000	53.000000	16.000000	-23.000000
1.420000	63.420000	66.320000	394.000000	0.000000	143.000000	53.000000	16.000000	-13.000000
1.430000	63.550000	66.250000	417.000000	0.000000	143.000000	53.000000	13.000000	-7.000000
1.440000	63.690000	66.250000	420.000000	0.000000	143.000000	53.000000	14.000000	0.000000
1.450000	63.830000	66.320000	447.000000	0.000000	143.000000	53.000000	14.000000	7.000000
1.460000	64.050000	66.540000	518.000000	0.000000	145.000000	54.000000	22.000000	22.000000
1.470000	64.220000	66.750000	532.000000	0.000000	145.000000	54.000000	17.000000	21.000000
1.480000	64.350000	67.020000	538.000000	0.000000	145.000000	54.000000	13.000000	27.000000
1.490000	64.480000	67.330000	564.000000	0.000000	145.000000	54.000000	13.000000	31.000000
1.500000	64.590000	67.590000	570.000000	0.000000	145.000000	54.000000	11.000000	26.000000
1.510000	64.590000	67.820000	580.000000	0.000000	145.000000	54.000000	0.000000	23.000000
1.520000	64.590000	67.980000	572.000000	0.000000	146.000000	53.000000	0.000000	16.000000
1.530000	64.590000	68.060000	564.000000	0.000000	146.000000	53.000000	0.000000	8.000000
1.540000	64.590000	68.060000	507.000000	0.000000	147.000000	52.000000	0.000000	0.000000
1.550000	64.590000	68.060000	369.000000	0.000000	147.000000	52.000000	0.000000	0.000000
1.560000	64.590000	68.010000	142.000000	0.000000	147.000000	52.000000	0.000000	-5.000000
1.570000	64.590000	68.010000	0.000000	1.000000	147.000000	51.000000	0.000000	0.000000
1.580000	64.510000	67.760000	0.000000	0.000000	147.000000	51.000000	-8.000000	-25.000000
1.590000	64.510000	67.760000	0.000000	0.000000	146.000000	52.000000	0.000000	0.000000
1.600000	64.510000	67.760000	0.000000	0.000000	146.000000	52.000000	0.000000	0.000000
1.610000	64.510000	67.760000	0.000000	0.000000	146.000000	52.000000	0.000000	0.000000
1.620000	64.830000	68.030000	0.000000	0.000000	146.000000	52.000000	32.000000	27.000000
1.630000	64.990000	68.150000	0.000000	0.000000	146.000000	52.000000	16.000000	12.000000
1.640000	65.120000	68.230000	0.000000	0.000000	146.000000	52.000000	13.000000	8.000000
1.650000	65.230000	68.300000	0.000000	0.000000	146.000000	52.000000	11.000000	7.000000
1.660000	65.230000	68.350000	0.000000	0.000000	147.000000	52.000000	0.000000	5.000000
1.670000	65.230000	68.350000	185.000000	1.000000	147.000000	52.000000	0.000000	0.000000
1.680000	65.230000	68.350000	247.000000	0.000000	148.000000	51.000000	0.000000	0.000000
1.690000	65.230000	68.350000	310.000000	0.000000	148.000000	51.000000	0.000000	0.000000
1.700000	65.230000	68.350000	341.000000	0.000000	148.000000	51.000000	0.000000	0.000000
1.710000	65.230000	68.350000	389.000000	0.000000	148.000000	51.000000	0.000000	0.000000
1.720000	65.230000	68.350000	425.000000	0.000000	148.000000	51.000000	0.000000	0.000000
1.730000	65.350000	68.000000	450.000000	0.000000	148.000000	51.000000	12.000000	-35.000000
1.740000	65.350000	67.700000	485.000000	0.000000	148.000000	51.000000	0.000000	-30.000000
1.750000	65.230000	67.360000	491.000000	0.000000	148.000000	51.000000	-12.000000	-34.000000
1.760000	65.170000	67.090000	468.000000	0.000000	147.000000	52.000000	-6.000000	-27.000000
1.770000	65.170000	66.850000	392.000000	0.000000	147.000000	52.000000	0.000000	-24.000000
1.780000	65.170000	66.850000	233.000000	0.000000	147.000000	52.000000	0.000000	0.000000
1.790000	65.170000	66.850000	0.000000	1.000000	146.000000	53.000000	0.000000	0.000000
1.800000	65.270000	66.850000	0.000000	0.000000	146.000000	53.000000	10.000000	0.000000
1.810000	65.370000	67.270000	0.000000	0.000000	146.000000	53.000000	10.000000	42.000000
1.820000	65.500000	67.710000	0.000000	0.000000	146.000000	53.000000	13.000000	44.000000
1.830000	65.700000	68.180000	0.000000	0.000000	146.000000	53.000000	20.000000	47.000000
1.840000	65.900000	68.680000	0.000000	0.000000	146.000000	53.000000	20.000000	50.000000
1.850000	66.090000	69.140000	0.000000	0.000000	146.000000	53.000000	19.000000	46.000000
1.860000	66.180000	69.490000	0.000000	0.000000	147.000000	52.000000	9.000000	35.000000
1.870000	66.180000	69.490000	134.000000	1.000000	147.000000	52.000000	0.000000	0.000000
1.880000	66.180000	69.870000	314.000000	0.000000	148.000000	51.000000	0.000000	38.000000
1.890000	66.070000	69.950000	369.000000	0.000000	149.000000	51.000000	-11.000000	8.000000
1.900000	65.980000	69.950000	404.000000	0.000000	149.000000	51.000000	-9.000000	0.000000
1.910000	65.980000	69.950000	407.000000	0.000000	149.000000	51.000000	0.000000	0.000000
1.920000	65.980000	69.900000	369.000000	0.000000	150.000000	50.000000	0.000000	-5.000000
1.930000	65.980000	69.780000	249.000000	0.000000	150.000000	50.000000	0.000000	-12.000000
1.940000	65.980000	69.780000	0.000000	1.000000	150.000000	50.000000	0.000000	0.000000
1.950000	66.180000	69.480000	0.000000	0.000000	150.000000	50.000000	20.000000	-30.000000
1.960000	66.310000	69.530000	0.000000	0.000000	150.000000	50.000000	13.000000	5.000000
1.970000	66.460000	69.690000	0.000000	0.000000	150.000000	50.000000	15.000000	16.000000
1.980000	66.640000	69.950000	0.000000	0.000000	149.000000	51.000000	18.000000	26.000000
1.990000	66.910000	70.200000	0.000000	0.000000	150.000000	51.000000	27.000000	25.000000
2.000000	67.200000	70.470000	0.000000	0.000000	150.000000	51.000000	29.000000	27.000000
2.010000	67.530000	70.760000	0.000000	0.000000	150.000000	51.000000	33.000000	29.000000
2.020000	67.780000	70.910000	0.000000	0.000000	150.000000	51.000000	25.000000	15.000000
2.030000	67.970000	71.000000	0.000000	0.000000	151.000000	51.000000	19.000000	9.000000
2.040000	67.970000	71.000000	81.000000	1.000000	151.000000	51.000000	0.000000	0.000000
2.050000	67.970000	71.000000	109.000000	0.000000	152.000000	51.000000	0.000000	0.000000
2.060000	67.970000	71.000000	134.000000	0.000000	152.000000	51.000000	0.000000	0.000000
2.070000	67.970000	71.000000	195.000000	0.000000	152.000000	51.000000	0.000000	0.000000
2.080000	67.970000	71.000000	247.000000	0.000000	153.000000	50.000000	0.000000	0.000000
2.090000	67.940000	70.460000	274.000000	0.000000	153.000000	50.000000	-3.000000	-54.000000
2.100000	67.890000	70.080000	314.000000	0.000000	153.000000	50.000000	-5.000000	-38.000000
2.110000	67.820000	69.570000	337.000000	0.000000	152.000000	51.000000	-7.000000	-51.000000
2.120000	67.730000	69.140000	345.000000	0.000000	152.000000	51.000000	-9.000000	-43.000000
2.130000	67.620000	68.770000	336.000000	0.000000	152.000000	51.000000	-11.000000	-37.000000
2.140000	67.620000	68.450000	343.000000	0.000000	151.000000	51.000000	0.000000	-32.000000
2.150000	67.550000	68.270000	341.000000	0.000000	151.000000	51.000000	-7.000000	-18.000000
2.160000	67.550000	68.180000	346.000000	0.000000	151.000000	51.000000	0.000000	-9.000000
2.170000	67.550000	68.230000	353.000000	0.000000	150.000000	52.000000	0.000000	5.000000
2.180000	67.550000	68.280000	353.000000	0.000000	150.000000	52.000000	0.000000	5.000000
2.190000	67.550000	68.420000	353.000000	0.000000	150.000000	52.000000	0.000000	14.000000
2.200000	67.490000	68.610000	348.000000	0.000000	150.000000	52.000000	-6.000000	19.000000
2.210000	67.390000	68.740000	356.000000	0.000000	150.000000	52.000000	-10.000000	13.000000
2.220000	67.240000	68.810000	364.000000	0.000000	150.000000	52.000000	-15.000000	7.000000
