t	x	y	pressure	penup	azimuth	inclination	v_x	v_y
0.000000	8.950000	81.260000	39.000000	1.000000	141.000000	68.000000	0.000000	0.000000
0.010000	8.340000	81.010000	148.000000	0.000000	141.000000	68.000000	-61.000000	-25.000000
0.020000	8.070000	81.010000	309.000000	0.000000	143.000000	69.000000	-27.000000	0.000000
0.030000	7.980000	81.010000	400.000000	0.000000	145.000000	68.000000	-9.000000	0.000000
0.040000	7.980000	81.110000	502.000000	0.000000	147.000000	69.000000	0.000000	10.000000
0.050000	8.160000	81.350000	594.000000	0.000000	147.000000	69.000000	18.000000	24.000000
0.060000	8.740000	81.680000	652.000000	0.000000	147.000000	69.000000	58.000000	33.000000
0.070000	9.600000	82.190000	700.000000	0.000000	147.000000	69.000000	86.000000	51.000000
0.080000	11.160000	82.710000	730.000000	0.000000	147.000000	69.000000	156.000000	52.000000
0.090000	12.830000	83.250000	746.000000	0.000000	147.000000	69.000000	167.000000	54.000000
0.100000	14.570000	83.690000	748.000000	0.000000	146.000000	67.000000	174.000000	44.000000
0.110000	16.430000	83.930000	743.000000	0.000000	146.000000	67.000000	186.000000	24.000000
0.120000	18.140000	84.040000	730.000000	0.000000	146.000000	66.000000	171.000000	11.000000
0.130000	19.760000	83.960000	697.000000	0.000000	146.000000	66.000000	162.000000	-8.000000
0.140000	20.980000	83.820000	691.000000	0.000000	145.000000	65.000000	122.000000	-14.000000
0.150000	21.690000	83.570000	673.000000	0.000000	145.000000	65.000000	71.000000	-25.000000
0.160000	22.070000	83.200000	675.000000	0.000000	143.000000	64.000000	38.000000	-37.000000
0.170000	21.890000	82.750000	685.000000	0.000000	145.000000	64.000000	-18.000000	-45.000000
0.180000	21.090000	82.060000	699.000000	0.000000	145.000000	64.000000	-80.000000	-69.000000
0.190000	19.880000	81.190000	727.000000	0.000000	143.000000	63.000000	-121.000000	-87.000000
0.200000	18.050000	80.200000	739.000000	0.000000	143.000000	63.000000	-183.000000	-99.000000
0.210000	15.720000	78.910000	746.000000	0.000000	143.000000	63.000000	-233.000000	-129.000000
0.220000	13.060000	77.620000	749.000000	0.000000	141.000000	64.000000	-266.000000	-129.000000
0.230000	10.360000	76.550000	746.000000	0.000000	141.000000	64.000000	-270.000000	-107.000000
0.240000	8.130000	75.640000	763.000000	0.000000	140.000000	63.000000	-223.000000	-91.000000
0.250000	6.200000	75.160000	770.000000	0.000000	138.000000	64.000000	-193.000000	-48.000000
0.260000	5.410000	74.990000	783.000000	0.000000	138.000000	64.000000	-79.000000	-17.000000
0.270000	5.290000	75.040000	783.000000	0.000000	135.000000	64.000000	-12.000000	5.000000
0.280000	5.610000	75.210000	788.000000	0.000000	135.000000	64.000000	32.000000	17.000000
0.290000	6.500000	75.710000	797.000000	0.000000	135.000000	64.000000	89.000000	50.000000
0.300000	8.420000	76.440000	812.000000	0.000000	133.000000	63.000000	192.000000	73.000000
0.310000	11.020000	77.370000	852.000000	0.000000	133.000000	63.000000	260.000000	93.000000
0.320000	14.160000	78.570000	861.000000	0.000000	133.000000	63.000000	314.000000	120.000000
0.330000	17.840000	79.960000	884.000000	0.000000	135.000000	64.000000	368.000000	139.000000
0.340000	21.890000	81.280000	887.000000	0.000000	135.000000	64.000000	405.000000	132.000000
0.350000	26.030000	82.570000	881.000000	0.000000	135.000000	64.000000	414.000000	129.000000
0.360000	29.980000	83.830000	852.000000	0.000000	137.000000	65.000000	395.000000	126.000000
0.370000	33.790000	84.810000	783.000000	0.000000	138.000000	64.000000	381.000000	98.000000
0.380000	36.450000	85.440000	708.000000	0.000000	140.000000	65.000000	266.000000	63.000000
0.390000	37.970000	85.830000	399.000000	0.000000	141.000000	64.000000	152.000000	39.000000
0.400000	37.970000	85.830000	0.000000	1.000000	141.000000	64.000000	0.000000	0.000000
0.410000	38.170000	85.760000	0.000000	0.000000	141.000000	64.000000	20.000000	-7.000000
0.420000	37.090000	85.430000	0.000000	0.000000	143.000000	63.000000	-108.000000	-33.000000
0.430000	35.670000	85.070000	0.000000	0.000000	141.000000	63.000000	-142.000000	-36.000000
0.440000	33.830000	84.610000	0.000000	0.000000	140.000000	62.000000	-184.000000	-46.000000
0.450000	31.670000	84.090000	0.000000	0.000000	138.000000	61.000000	-216.000000	-52.000000
0.460000	29.300000	83.490000	0.000000	0.000000	138.000000	61.000000	-237.000000	-60.000000
0.470000	27.250000	82.890000	0.000000	0.000000	136.000000	61.000000	-205.000000	-60.000000
0.480000	25.750000	82.400000	0.000000	0.000000	135.000000	62.000000	-150.000000	-49.000000
0.490000	24.620000	82.000000	0.000000	0.000000	135.000000	62.000000	-113.000000	-40.000000
0.500000	24.260000	81.780000	0.000000	0.000000	135.000000	62.000000	-36.000000	-22.000000
0.510000	24.310000	81.720000	0.000000	0.000000	133.000000	62.000000	5.000000	-6.000000
0.520000	24.630000	81.720000	0.000000	0.000000	133.000000	62.000000	32.000000	0.000000
0.530000	25.040000	81.820000	0.000000	0.000000	133.000000	63.000000	41.000000	10.000000
0.540000	25.490000	81.880000	0.000000	0.000000	133.000000	63.000000	45.000000	6.000000
0.550000	26.030000	82.000000	0.000000	0.000000	133.000000	63.000000	54.000000	12.000000
0.560000	26.610000	82.160000	0.000000	0.000000	133.000000	63.000000	58.000000	16.000000
0.570000	27.010000	82.310000	0.000000	0.000000	133.000000	63.000000	40.000000	15.000000
0.580000	27.280000	82.430000	0.000000	0.000000	133.000000	63.000000	27.000000	12.000000
0.590000	27.200000	82.430000	0.000000	0.000000	133.000000	63.000000	-8.000000	0.000000
0.600000	26.900000	82.430000	0.000000	0.000000	132.000000	63.000000	-30.000000	0.000000
0.610000	26.460000	82.430000	0.000000	0.000000	132.000000	63.000000	-44.000000	0.000000
0.620000	25.960000	82.430000	0.000000	0.000000	132.000000	63.000000	-50.000000	0.000000
0.630000	25.340000	82.430000	0.000000	0.000000	130.000000	62.000000	-62.000000	0.000000
0.640000	24.650000	82.430000	0.000000	0.000000	130.000000	62.000000	-69.000000	0.000000
0.650000	23.970000	82.430000	0.000000	0.000000	130.000000	62.000000	-68.000000	0.000000
0.660000	23.290000	82.430000	0.000000	0.000000	129.000000	61.000000	-68.000000	0.000000
0.670000	22.610000	82.430000	0.000000	0.000000	129.000000	61.000000	-68.000000	0.000000
0.680000	22.150000	82.430000	0.000000	0.000000	129.000000	61.000000	-46.000000	0.000000
0.690000	21.830000	82.490000	0.000000	0.000000	129.000000	61.000000	-32.000000	6.000000
0.700000	21.830000	82.540000	0.000000	0.000000	129.000000	61.000000	0.000000	5.000000
0.710000	21.830000	82.600000	0.000000	0.000000	128.000000	61.000000	0.000000	6.000000
0.720000	22.070000	82.660000	0.000000	0.000000	128.000000	61.000000	24.000000	6.000000
0.730000	22.350000	82.750000	0.000000	0.000000	128.000000	61.000000	28.000000	9.000000
0.740000	22.660000	82.870000	0.000000	0.000000	128.000000	61.000000	31.000000	12.000000
0.750000	22.660000	82.870000	46.000000	1.000000	128.000000	61.000000	0.000000	0.000000
0.760000	23.320000	83.100000	60.000000	0.000000	128.000000	61.000000	66.000000	23.000000
0.770000	23.630000	83.190000	120.000000	0.000000	128.000000	61.000000	31.000000	9.000000
0.780000	23.950000	83.290000	134.000000	0.000000	128.000000	61.000000	32.000000	10.000000
0.790000	24.240000	83.380000	193.000000	0.000000	128.000000	61.000000	29.000000	9.000000
0.800000	24.540000	83.470000	249.000000	0.000000	131.000000	61.000000	30.000000	9.000000
0.810000	24.640000	83.550000	359.000000	0.000000	131.000000	61.000000	10.000000	8.000000
0.820000	24.640000	83.550000	443.000000	0.000000	131.000000	61.000000	0.000000	0.000000
0.830000	24.540000	83.600000	483.000000	0.000000	131.000000	61.000000	-10.000000	5.000000
0.840000	24.370000	83.600000	564.000000	0.000000	132.000000	61.000000	-17.000000	0.000000
0.850000	24.140000	83.600000	577.000000	0.000000	132.000000	61.000000	-23.000000	0.000000
0.860000	23.840000	83.600000	591.000000	0.000000	132.000000	61.000000	-30.000000	0.000000
0.870000	23.540000	83.490000	600.000000	0.000000	132.000000	61.000000	-30.000000	-11.000000
0.880000	23.250000	83.420000	620.000000	0.000000	132.000000	61.000000	-29.000000	-7.000000
0.890000	23.150000	83.360000	620.000000	0.000000	132.000000	61.000000	-10.000000	-6.000000
0.900000	23.050000	83.230000	613.000000	0.000000	132.000000	61.000000	-10.000000	-13.000000
0.910000	22.960000	82.990000	613.000000	0.000000	132.000000	61.000000	-9.000000	-24.000000
0.920000	22.960000	82.670000	614.000000	0.000000	132.000000	61.000000	0.000000	-32.000000
0.930000	23.090000	82.430000	620.000000	0.000000	132.000000	61.000000	13.000000	-24.000000
0.940000	23.280000	82.190000	611.000000	0.000000	132.000000	61.000000	19.000000	-24.000000
0.950000	23.500000	81.970000	620.000000	0.000000	132.000000	61.000000	22.000000	-22.000000
0.960000	23.780000	81.900000	619.000000	0.000000	132.000000	61.000000	28.000000	-7.000000
0.970000	24.010000	81.900000	616.000000	0.000000	132.000000	61.000000	23.000000	0.000000
0.980000	24.200000	81.900000	606.000000	0.000000	132.000000	61.000000	19.000000	0.000000
0.990000	24.460000	82.070000	597.000000	0.000000	132.000000	61.000000	26.000000	17.000000
1.000000	24.700000	82.280000	591.000000	0.000000	132.000000	61.000000	24.000000	21.000000
1.010000	24.880000	82.450000	588.000000	0.000000	132.000000	61.000000	18.000000	17.000000
1.020000	25.010000	82.650000	589.000000	0.000000	132.000000	61.000000	13.000000	20.000000
1.030000	25.010000	82.860000	595.000000	0.000000	132.000000	61.000000	0.000000	21.000000
1.040000	24.960000	83.060000	595.000000	0.000000	132.000000	61.000000	-5.000000	20.000000
1.050000	24.880000	83.190000	620.000000	0.000000	132.000000	61.000000	-8.000000	13.000000
1.060000	24.780000	83.320000	611.000000	0.000000	132.000000	61.000000	-10.000000	13.000000
1.070000	24.670000	83.410000	622.000000	0.000000	132.000000	61.000000	-11.000000	9.000000
1.080000	24.540000	83.410000	628.000000	0.000000	132.000000	61.000000	-13.000000	0.000000
1.090000	24.540000	83.460000	627.000000	0.000000	132.000000	61.000000	0.000000	5.000000
1.100000	24.610000	83.460000	628.000000	0.000000	132.000000	61.000000	7.000000	0.000000
1.110000	24.660000	83.370000	641.000000	0.000000	134.000000	61.000000	5.000000	-9.000000
1.120000	24.780000	83.260000	642.000000	0.000000	134.000000	61.000000	12.000000	-11.000000
1.130000	24.920000	83.140000	642.000000	0.000000	134.000000	61.000000	14.000000	-12.000000
1.140000	25.060000	83.020000	638.000000	0.000000	134.000000	61.000000	14.000000	-12.000000
1.150000	25.190000	82.910000	610.000000	0.000000	134.000000	61.000000	13.000000	-11.000000
1.160000	25.350000	82.810000	545.000000	0.000000	134.000000	61.000000	16.000000	-10.000000
1.170000	25.560000	82.730000	404.000000	0.000000	135.000000	62.000000	21.000000	-8.000000
1.180000	25.770000	82.620000	58.000000	0.000000	135.000000	62.000000	21.000000	-11.000000
1.190000	25.770000	82.620000	0.000000	1.000000	135.000000	62.000000	0.000000	0.000000
1.200000	26.200000	82.710000	0.000000	0.000000	135.000000	62.000000	43.000000	9.000000
1.210000	26.420000	82.820000	0.000000	0.000000	135.000000	62.000000	22.000000	11.000000
1.220000	26.590000	82.960000	0.000000	0.000000	135.000000	62.000000	17.000000	14.000000
1.230000	26.730000	83.130000	0.000000	0.000000	133.000000	62.000000	14.000000	17.000000
1.240000	26.820000	83.240000	0.000000	0.000000	133.000000	62.000000	9.000000	11.000000
1.250000	26.820000	83.350000	0.000000	0.000000	133.000000	62.000000	0.000000	11.000000
1.260000	26.710000	83.430000	0.000000	0.000000	133.000000	62.000000	-11.000000	8.000000
1.270000	26.570000	83.430000	0.000000	0.000000	133.000000	62.000000	-14.000000	0.000000
1.280000	26.390000	83.430000	0.000000	0.000000	132.000000	61.000000	-18.000000	0.000000
1.290000	26.190000	83.360000	0.000000	0.000000	132.000000	61.000000	-20.000000	-7.000000
1.300000	26.190000	83.360000	90.000000	1.000000	132.000000	61.000000	0.000000	0.000000
1.310000	26.190000	83.360000	151.000000	0.000000	133.000000	62.000000	0.000000	0.000000
1.320000	26.190000	83.360000	259.000000	0.000000	133.000000	62.000000	0.000000	0.000000
1.330000	26.190000	83.360000	361.000000	0.000000	133.000000	62.000000	0.000000	0.000000
1.340000	26.190000	83.360000	447.000000	0.000000	133.000000	62.000000	0.000000	0.000000
1.350000	26.190000	83.360000	488.000000	0.000000	133.000000	62.000000	0.000000	0.000000
1.360000	26.190000	83.360000	502.000000	0.000000	133.000000	62.000000	0.000000	0.000000
1.370000	26.190000	83.360000	521.000000	0.000000	133.000000	62.000000	0.000000	0.000000
1.380000	26.190000	83.360000	538.000000	0.000000	133.000000	62.000000	0.000000	0.000000
1.390000	26.190000	83.360000	559.000000	0.000000	133.000000	62.000000	0.000000	0.000000
1.400000	26.190000	83.360000	563.000000	0.000000	135.000000	62.000000	0.000000	0.000000
1.410000	26.370000	83.070000	570.000000	0.000000	135.000000	62.000000	18.000000	-29.000000
1.420000	26.480000	82.840000	570.000000	0.000000	135.000000	62.000000	11.000000	-23.000000
1.430000	26.550000	82.750000	569.000000	0.000000	135.000000	62.000000	7.000000	-9.000000
1.440000	26.610000	82.750000	566.000000	0.000000	135.000000	62.000000	6.000000	0.000000
1.450000	26.700000	82.750000	566.000000	0.000000	135.000000	62.000000	9.000000	0.000000
1.460000	26.820000	82.890000	572.000000	0.000000	135.000000	62.000000	12.000000	14.000000
1.470000	27.010000	83.050000	580.000000	0.000000	135.000000	62.000000	19.000000	16.000000
1.480000	27.160000	83.330000	583.000000	0.000000	135.000000	62.000000	15.000000	28.000000
1.490000	27.270000	83.600000	595.000000	0.000000	134.000000	61.000000	11.000000	27.000000
1.500000	27.350000	83.850000	616.000000	0.000000	132.000000	61.000000	8.000000	25.000000
1.510000	27.400000	84.080000	622.000000	0.000000	132.000000	61.000000	5.000000	23.000000
1.520000	27.400000	84.260000	631.000000	0.000000	132.000000	61.000000	0.000000	18.000000
1.530000	27.400000	84.320000	627.000000	0.000000	132.000000	61.000000	0.000000	6.000000
1.540000	27.400000	84.320000	599.000000	0.000000	132.000000	61.000000	0.000000	0.000000
1.550000	27.400000	84.230000	544.000000	0.000000	132.000000	61.000000	0.000000	-9.000000
1.560000	27.400000	84.130000	335.000000	0.000000	132.000000	61.000000	0.000000	-10.000000
1.570000	27.400000	84.130000	0.000000	1.000000	132.000000	61.000000	0.000000	0.000000
1.580000	27.400000	83.730000	0.000000	0.000000	132.000000	61.000000	0.000000	-40.000000
1.590000	27.400000	83.640000	0.000000	0.000000	132.000000	61.000000	0.000000	-9.000000
1.600000	27.520000	83.640000	0.000000	0.000000	132.000000	61.000000	12.000000	0.000000
1.610000	27.690000	83.780000	0.000000	0.000000	132.000000	61.000000	17.000000	14.000000
1.620000	27.970000	84.020000	0.000000	0.000000	132.000000	61.000000	28.000000	24.000000
1.630000	28.300000	84.340000	0.000000	0.000000	132.000000	61.000000	33.000000	32.000000
1.640000	28.590000	84.660000	0.000000	0.000000	132.000000	61.000000	29.000000	32.000000
1.650000	28.740000	84.970000	0.000000	0.000000	132.000000	61.000000	15.000000	31.000000
1.660000	28.800000	85.240000	0.000000	0.000000	132.000000	61.000000	6.000000	27.000000
1.670000	28.800000	85.490000	0.000000	0.000000	132.000000	61.000000	0.000000	25.000000
1.680000	28.800000	85.760000	0.000000	0.000000	132.000000	61.000000	0.000000	27.000000
1.690000	28.800000	85.760000	137.000000	1.000000	132.000000	61.000000	0.000000	0.000000
1.700000	28.690000	86.130000	225.000000	0.000000	130.000000	62.000000	-11.000000	37.000000
1.710000	28.690000	86.220000	309.000000	0.000000	130.000000	62.000000	0.000000	9.000000
1.720000	28.690000	86.220000	387.000000	0.000000	130.000000	62.000000	0.000000	0.000000
1.730000	28.690000	86.220000	433.000000	0.000000	130.000000	62.000000	0.000000	0.000000
1.740000	28.690000	86.110000	465.000000	0.000000	130.000000	62.000000	0.000000	-11.000000
1.750000	28.740000	85.950000	486.000000	0.000000	130.000000	62.000000	5.000000	-16.000000
1.760000	28.740000	85.660000	491.000000	0.000000	130.000000	62.000000	0.000000	-29.000000
1.770000	28.740000	85.290000	464.000000	0.000000	130.000000	62.000000	0.000000	-37.000000
1.780000	28.670000	85.000000	391.000000	0.000000	130.000000	62.000000	-7.000000	-29.000000
1.790000	28.670000	84.690000	195.000000	0.000000	132.000000	63.000000	0.000000	-31.000000
1.800000	28.670000	84.690000	0.000000	1.000000	132.000000	63.000000	0.000000	0.000000
1.810000	28.530000	84.170000	0.000000	0.000000	132.000000	63.000000	-14.000000	-52.000000
1.820000	28.530000	84.100000	0.000000	0.000000	132.000000	63.000000	0.000000	-7.000000
1.830000	28.590000	84.230000	0.000000	0.000000	132.000000	63.000000	6.000000	13.000000
1.840000	28.720000	84.500000	0.000000	0.000000	133.000000	62.000000	13.000000	27.000000
1.850000	28.950000	84.870000	0.000000	0.000000	133.000000	62.000000	23.000000	37.000000
1.860000	29.280000	85.400000	0.000000	0.000000	132.000000	61.000000	33.000000	53.000000
1.870000	29.540000	85.930000	0.000000	0.000000	132.000000	61.000000	26.000000	53.000000
1.880000	29.750000	86.460000	0.000000	0.000000	131.000000	61.000000	21.000000	53.000000
1.890000	29.850000	86.970000	0.000000	0.000000	131.000000	61.000000	10.000000	51.000000
1.900000	29.850000	87.480000	0.000000	0.000000	129.000000	60.000000	0.000000	51.000000
1.910000	29.850000	87.820000	0.000000	0.000000	129.000000	60.000000	0.000000	34.000000
1.920000	29.750000	88.160000	0.000000	0.000000	129.000000	59.000000	-10.000000	34.000000
1.930000	29.750000	88.470000	0.000000	0.000000	128.000000	59.000000	0.000000	31.000000
1.940000	29.690000	88.750000	0.000000	0.000000	128.000000	59.000000	-6.000000	28.000000
1.950000	29.690000	88.860000	0.000000	0.000000	129.000000	60.000000	0.000000	11.000000
1.960000	29.740000	88.860000	0.000000	0.000000	129.000000	60.000000	5.000000	0.000000
1.970000	29.740000	88.860000	0.000000	0.000000	129.000000	60.000000	0.000000	0.000000
1.980000	29.820000	88.780000	0.000000	0.000000	131.000000	61.000000	8.000000	-8.000000
1.990000	29.820000	88.660000	0.000000	0.000000	131.000000	61.000000	0.000000	-12.000000
2.000000	29.820000	88.540000	0.000000	0.000000	131.000000	61.000000	0.000000	-12.000000
2.010000	29.820000	88.460000	0.000000	0.000000	131.000000	61.000000	0.000000	-8.000000
2.020000	29.890000	88.410000	0.000000	0.000000	131.000000	61.000000	7.000000	-5.000000
2.030000	29.890000	88.410000	32.000000	1.000000	131.000000	61.000000	0.000000	0.000000
2.040000	29.890000	88.410000	48.000000	0.000000	129.000000	61.000000	0.000000	0.000000
2.050000	29.890000	88.410000	144.000000	0.000000	129.000000	61.000000	0.000000	0.000000
2.060000	30.170000	88.570000	211.000000	0.000000	129.000000	61.000000	28.000000	16.000000
2.070000	30.250000	88.640000	245.000000	0.000000	129.000000	61.000000	8.000000	7.000000
2.080000	30.320000	88.640000	291.000000	0.000000	129.000000	61.000000	7.000000	0.000000
2.090000	30.370000	88.640000	309.000000	0.000000	131.000000	61.000000	5.000000	0.000000
2.100000	30.420000	88.580000	339.000000	0.000000	131.000000	61.000000	5.000000	-6.000000
2.110000	30.420000	88.460000	351.000000	0.000000	131.000000	61.000000	0.000000	-12.000000
2.120000	30.500000	88.310000	359.000000	0.000000	131.000000	61.000000	8.000000	-15.000000
2.130000	30.500000	88.070000	364.000000	0.000000	129.000000	61.000000	0.000000	-24.000000
2.140000	30.550000	87.680000	363.000000	0.000000	129.000000	61.000000	5.000000	-39.000000
2.150000	30.550000	87.200000	359.000000	0.000000	129.000000	61.000000	0.000000	-48.000000
2.160000	30.550000	86.600000	358.000000	0.000000	129.000000	61.000000	0.000000	-60.000000
2.170000	30.550000	85.980000	363.000000	0.000000	129.000000	61.000000	0.000000	-62.000000
2.180000	30.610000	85.480000	363.000000	0.000000	129.000000	61.000000	6.000000	-50.000000
2.190000	30.660000	85.060000	371.000000	0.000000	129.000000	61.000000	5.000000	-42.000000
2.200000	30.720000	84.890000	391.000000	0.000000	129.000000	61.000000	6.000000	-17.000000
2.210000	30.770000	84.840000	466.000000	0.000000	129.000000	61.000000	5.000000	-5.000000
2.220000	30.770000	84.840000	512.000000	0.000000	129.000000	61.000000	0.000000	0.000000
