t	x	y	pressure	penup	azimuth	inclination	v_x	v_y
0.000000	8.640000	64.580000	63.000000	1.000000	144.000000	57.000000	0.000000	0.000000
0.010000	8.160000	64.420000	149.000000	0.000000	144.000000	57.000000	-48.000000	-16.000000
0.020000	7.910000	64.420000	214.000000	0.000000	144.000000	57.000000	-25.000000	0.000000
0.030000	7.760000	64.420000	314.000000	0.000000	143.000000	56.000000	-15.000000	0.000000
0.040000	7.760000	64.470000	412.000000	0.000000	142.000000	57.000000	0.000000	5.000000
0.050000	7.810000	64.610000	466.000000	0.000000	140.000000	56.000000	5.000000	14.000000
0.060000	8.340000	65.080000	541.000000	0.000000	140.000000	56.000000	53.000000	47.000000
0.070000	9.160000	65.760000	586.000000	0.000000	139.000000	56.000000	82.000000	68.000000
0.080000	10.810000	66.530000	645.000000	0.000000	138.000000	55.000000	165.000000	77.000000
0.090000	12.470000	67.310000	653.000000	0.000000	138.000000	55.000000	166.000000	78.000000
0.100000	14.190000	68.090000	656.000000	0.000000	138.000000	55.000000	172.000000	78.000000
0.110000	15.930000	68.730000	650.000000	0.000000	138.000000	55.000000	174.000000	64.000000
0.120000	17.760000	69.160000	645.000000	0.000000	139.000000	56.000000	183.000000	43.000000
0.130000	19.300000	69.460000	611.000000	0.000000	140.000000	55.000000	154.000000	30.000000
0.140000	20.660000	69.460000	564.000000	0.000000	143.000000	55.000000	136.000000	0.000000
0.150000	21.420000	69.190000	512.000000	0.000000	145.000000	55.000000	76.000000	-27.000000
0.160000	21.660000	68.740000	505.000000	0.000000	146.000000	55.000000	24.000000	-45.000000
0.170000	21.560000	68.190000	512.000000	0.000000	146.000000	55.000000	-10.000000	-55.000000
0.180000	20.780000	67.440000	516.000000	0.000000	146.000000	55.000000	-78.000000	-75.000000
0.190000	19.540000	66.560000	542.000000	0.000000	146.000000	55.000000	-124.000000	-88.000000
0.200000	17.980000	65.230000	559.000000	0.000000	145.000000	56.000000	-156.000000	-133.000000
0.210000	15.870000	63.970000	551.000000	0.000000	145.000000	56.000000	-211.000000	-126.000000
0.220000	13.490000	62.760000	561.000000	0.000000	145.000000	56.000000	-238.000000	-121.000000
0.230000	10.920000	61.350000	561.000000	0.000000	143.000000	56.000000	-257.000000	-141.000000
0.240000	8.410000	60.390000	588.000000	0.000000	143.000000	56.000000	-251.000000	-96.000000
0.250000	7.030000	59.730000	605.000000	0.000000	141.000000	56.000000	-138.000000	-66.000000
0.260000	6.400000	59.550000	639.000000	0.000000	140.000000	55.000000	-63.000000	-18.000000
0.270000	6.530000	59.710000	646.000000	0.000000	140.000000	55.000000	13.000000	16.000000
0.280000	7.600000	60.100000	669.000000	0.000000	140.000000	54.000000	107.000000	39.000000
0.290000	9.290000	61.050000	694.000000	0.000000	140.000000	54.000000	169.000000	95.000000
0.300000	12.110000	62.350000	728.000000	0.000000	140.000000	54.000000	282.000000	130.000000
0.310000	14.950000	63.890000	760.000000	0.000000	140.000000	54.000000	284.000000	154.000000
0.320000	18.500000	65.430000	760.000000	0.000000	141.000000	55.000000	355.000000	154.000000
0.330000	22.510000	66.970000	754.000000	0.000000	141.000000	55.000000	401.000000	154.000000
0.340000	26.670000	68.520000	740.000000	0.000000	143.000000	55.000000	416.000000	155.000000
0.350000	30.840000	70.170000	690.000000	0.000000	145.000000	55.000000	417.000000	165.000000
0.360000	34.780000	71.470000	645.000000	0.000000	146.000000	55.000000	394.000000	130.000000
0.370000	38.560000	72.530000	548.000000	0.000000	149.000000	55.000000	378.000000	106.000000
0.380000	40.740000	73.220000	299.000000	0.000000	151.000000	54.000000	218.000000	69.000000
0.390000	40.740000	73.220000	0.000000	1.000000	153.000000	55.000000	0.000000	0.000000
0.400000	42.360000	72.980000	0.000000	0.000000	153.000000	54.000000	162.000000	-24.000000
0.410000	41.260000	73.230000	0.000000	0.000000	154.000000	53.000000	-110.000000	25.000000
0.420000	39.550000	72.910000	0.000000	0.000000	155.000000	52.000000	-171.000000	-32.000000
0.430000	37.430000	72.210000	0.000000	0.000000	154.000000	52.000000	-212.000000	-70.000000
0.440000	34.730000	71.560000	0.000000	0.000000	154.000000	52.000000	-270.000000	-65.000000
0.450000	32.080000	70.790000	0.000000	0.000000	153.000000	52.000000	-265.000000	-77.000000
0.460000	29.560000	69.930000	0.000000	0.000000	150.000000	52.000000	-252.000000	-86.000000
0.470000	27.110000	69.030000	0.000000	0.000000	148.000000	53.000000	-245.000000	-90.000000
0.480000	24.990000	68.360000	0.000000	0.000000	148.000000	53.000000	-212.000000	-67.000000
0.490000	23.670000	67.840000	0.000000	0.000000	146.000000	53.000000	-132.000000	-52.000000
0.500000	22.890000	67.540000	0.000000	0.000000	145.000000	54.000000	-78.000000	-30.000000
0.510000	22.540000	67.400000	0.000000	0.000000	143.000000	53.000000	-35.000000	-14.000000
0.520000	22.540000	67.400000	0.000000	0.000000	142.000000	54.000000	0.000000	0.000000
0.530000	22.820000	67.400000	0.000000	0.000000	142.000000	54.000000	28.000000	0.000000
0.540000	23.120000	67.460000	0.000000	0.000000	141.000000	53.000000	30.000000	6.000000
0.550000	23.430000	67.570000	0.000000	0.000000	141.000000	53.000000	31.000000	11.000000
0.560000	23.770000	67.720000	0.000000	0.000000	141.000000	53.000000	34.000000	15.000000
0.570000	23.890000	67.780000	0.000000	0.000000	141.000000	53.000000	12.000000	6.000000
0.580000	23.890000	67.780000	0.000000	0.000000	140.000000	54.000000	0.000000	0.000000
0.590000	23.620000	67.780000	0.000000	0.000000	140.000000	54.000000	-27.000000	0.000000
0.600000	23.300000	67.670000	0.000000	0.000000	139.000000	55.000000	-32.000000	-11.000000
0.610000	22.930000	67.590000	0.000000	0.000000	139.000000	55.000000	-37.000000	-8.000000
0.620000	22.590000	67.590000	0.000000	0.000000	139.000000	55.000000	-34.000000	0.000000
0.630000	22.300000	67.590000	0.000000	0.000000	138.000000	55.000000	-29.000000	0.000000
0.640000	22.130000	67.670000	0.000000	0.000000	138.000000	55.000000	-17.000000	8.000000
0.650000	22.040000	67.770000	0.000000	0.000000	138.000000	55.000000	-9.000000	10.000000
0.660000	22.100000	67.890000	0.000000	0.000000	138.000000	55.000000	6.000000	12.000000
0.670000	22.260000	68.010000	0.000000	0.000000	138.000000	55.000000	16.000000	12.000000
0.680000	22.540000	68.140000	0.000000	0.000000	138.000000	55.000000	28.000000	13.000000
0.690000	22.850000	68.270000	0.000000	0.000000	138.000000	55.000000	31.000000	13.000000
0.700000	23.200000	68.370000	0.000000	0.000000	138.000000	55.000000	35.000000	10.000000
0.710000	23.550000	68.460000	0.000000	0.000000	138.000000	55.000000	35.000000	9.000000
0.720000	23.830000	68.560000	0.000000	0.000000	139.000000	55.000000	28.000000	10.000000
0.730000	23.830000	68.560000	37.000000	1.000000	139.000000	55.000000	0.000000	0.000000
0.740000	24.160000	68.670000	110.000000	0.000000	140.000000	55.000000	33.000000	11.000000
0.750000	24.160000	68.670000	173.000000	0.000000	140.000000	55.000000	0.000000	0.000000
0.760000	24.160000	68.670000	274.000000	0.000000	141.000000	55.000000	0.000000	0.000000
0.770000	24.160000	68.670000	314.000000	0.000000	141.000000	55.000000	0.000000	0.000000
0.780000	23.870000	68.670000	363.000000	0.000000	143.000000	55.000000	-29.000000	0.000000
0.790000	23.650000	68.670000	389.000000	0.000000	143.000000	55.000000	-22.000000	0.000000
0.800000	23.370000	68.670000	428.000000	0.000000	143.000000	55.000000	-28.000000	0.000000
0.810000	23.100000	68.670000	447.000000	0.000000	143.000000	55.000000	-27.000000	0.000000
0.820000	22.840000	68.600000	469.000000	0.000000	143.000000	55.000000	-26.000000	-7.000000
0.830000	22.570000	68.480000	477.000000	0.000000	143.000000	55.000000	-27.000000	-12.000000
0.840000	22.360000	68.350000	483.000000	0.000000	143.000000	55.000000	-21.000000	-13.000000
0.850000	22.220000	68.230000	485.000000	0.000000	141.000000	55.000000	-14.000000	-12.000000
0.860000	22.130000	68.030000	488.000000	0.000000	141.000000	55.000000	-9.000000	-20.000000
0.870000	22.130000	67.830000	495.000000	0.000000	140.000000	55.000000	0.000000	-20.000000
0.880000	22.250000	67.640000	496.000000	0.000000	140.000000	55.000000	12.000000	-19.000000
0.890000	22.380000	67.450000	494.000000	0.000000	140.000000	55.000000	13.000000	-19.000000
0.900000	22.550000	67.330000	514.000000	0.000000	140.000000	55.000000	17.000000	-12.000000
0.910000	22.800000	67.240000	520.000000	0.000000	140.000000	55.000000	25.000000	-9.000000
0.920000	23.080000	67.330000	515.000000	0.000000	139.000000	56.000000	28.000000	9.000000
0.930000	23.350000	67.450000	516.000000	0.000000	139.000000	56.000000	27.000000	12.000000
0.940000	23.580000	67.580000	512.000000	0.000000	139.000000	56.000000	23.000000	13.000000
0.950000	23.730000	67.720000	522.000000	0.000000	139.000000	56.000000	15.000000	14.000000
0.960000	23.820000	67.870000	512.000000	0.000000	139.000000	56.000000	9.000000	15.000000
0.970000	23.900000	68.020000	512.000000	0.000000	139.000000	56.000000	8.000000	15.000000
0.980000	23.960000	68.210000	516.000000	0.000000	140.000000	55.000000	6.000000	19.000000
0.990000	24.020000	68.430000	529.000000	0.000000	140.000000	55.000000	6.000000	22.000000
1.000000	24.090000	68.700000	556.000000	0.000000	140.000000	55.000000	7.000000	27.000000
1.010000	24.090000	68.920000	569.000000	0.000000	140.000000	55.000000	0.000000	22.000000
1.020000	24.090000	69.050000	592.000000	0.000000	140.000000	55.000000	0.000000	13.000000
1.030000	24.040000	69.050000	592.000000	0.000000	141.000000	55.000000	-5.000000	0.000000
1.040000	24.040000	69.050000	595.000000	0.000000	141.000000	55.000000	0.000000	0.000000
1.050000	24.040000	68.820000	594.000000	0.000000	141.000000	55.000000	0.000000	-23.000000
1.060000	24.090000	68.580000	583.000000	0.000000	142.000000	54.000000	5.000000	-24.000000
1.070000	24.160000	68.300000	529.000000	0.000000	142.000000	54.000000	7.000000	-28.000000
1.080000	24.260000	68.060000	423.000000	0.000000	142.000000	54.000000	10.000000	-24.000000
1.090000	24.390000	67.860000	120.000000	0.000000	141.000000	55.000000	13.000000	-20.000000
1.100000	24.390000	67.860000	0.000000	1.000000	141.000000	55.000000	0.000000	0.000000
1.110000	24.770000	67.750000	0.000000	0.000000	141.000000	55.000000	38.000000	-11.000000
1.120000	24.970000	67.870000	0.000000	0.000000	140.000000	55.000000	20.000000	12.000000
1.130000	25.150000	68.100000	0.000000	0.000000	140.000000	55.000000	18.000000	23.000000
1.140000	25.330000	68.330000	0.000000	0.000000	140.000000	55.000000	18.000000	23.000000
1.150000	25.490000	68.570000	0.000000	0.000000	140.000000	55.000000	16.000000	24.000000
1.160000	25.490000	68.810000	0.000000	0.000000	140.000000	55.000000	0.000000	24.000000
1.170000	25.490000	68.910000	0.000000	0.000000	140.000000	55.000000	0.000000	10.000000
1.180000	25.390000	68.910000	0.000000	0.000000	140.000000	55.000000	-10.000000	0.000000
1.190000	25.300000	68.990000	0.000000	0.000000	143.000000	55.000000	-9.000000	8.000000
1.200000	25.240000	69.060000	0.000000	0.000000	143.000000	55.000000	-6.000000	7.000000
1.210000	25.240000	69.060000	98.000000	1.000000	143.000000	55.000000	0.000000	0.000000
1.220000	25.190000	69.310000	122.000000	0.000000	144.000000	54.000000	-5.000000	25.000000
1.230000	25.130000	69.430000	220.000000	0.000000	144.000000	54.000000	-6.000000	12.000000
1.240000	25.180000	69.510000	274.000000	0.000000	144.000000	54.000000	5.000000	8.000000
1.250000	25.180000	69.580000	310.000000	0.000000	144.000000	54.000000	0.000000	7.000000
1.260000	25.180000	69.580000	324.000000	0.000000	143.000000	53.000000	0.000000	0.000000
1.270000	25.180000	69.580000	334.000000	0.000000	143.000000	53.000000	0.000000	0.000000
1.280000	25.280000	69.470000	367.000000	0.000000	143.000000	53.000000	10.000000	-11.000000
1.290000	25.380000	69.290000	381.000000	0.000000	143.000000	53.000000	10.000000	-18.000000
1.300000	25.470000	69.010000	387.000000	0.000000	143.000000	53.000000	9.000000	-28.000000
1.310000	25.530000	68.750000	391.000000	0.000000	143.000000	53.000000	6.000000	-26.000000
1.320000	25.600000	68.520000	398.000000	0.000000	143.000000	53.000000	7.000000	-23.000000
1.330000	25.690000	68.370000	387.000000	0.000000	142.000000	54.000000	9.000000	-15.000000
1.340000	25.760000	68.320000	381.000000	0.000000	142.000000	54.000000	7.000000	-5.000000
1.350000	25.820000	68.320000	381.000000	0.000000	142.000000	54.000000	6.000000	0.000000
1.360000	25.980000	68.400000	377.000000	0.000000	144.000000	54.000000	16.000000	8.000000
1.370000	26.180000	68.600000	369.000000	0.000000	143.000000	55.000000	20.000000	20.000000
1.380000	26.430000	68.900000	372.000000	0.000000	143.000000	55.000000	25.000000	30.000000
1.390000	26.590000	69.240000	374.000000	0.000000	143.000000	55.000000	16.000000	34.000000
1.400000	26.700000	69.520000	377.000000	0.000000	143.000000	55.000000	11.000000	28.000000
1.410000	26.700000	69.700000	387.000000	0.000000	144.000000	54.000000	0.000000	18.000000
1.420000	26.700000	69.820000	398.000000	0.000000	142.000000	54.000000	0.000000	12.000000
1.430000	26.700000	69.870000	386.000000	0.000000	142.000000	54.000000	0.000000	5.000000
1.440000	26.700000	69.870000	335.000000	0.000000	141.000000	53.000000	0.000000	0.000000
1.450000	26.700000	69.780000	132.000000	0.000000	141.000000	53.000000	0.000000	-9.000000
1.460000	26.700000	69.780000	0.000000	1.000000	141.000000	52.000000	0.000000	0.000000
1.470000	26.880000	69.560000	0.000000	0.000000	141.000000	52.000000	18.000000	-22.000000
1.480000	27.060000	69.560000	0.000000	0.000000	141.000000	52.000000	18.000000	0.000000
1.490000	27.270000	69.740000	0.000000	0.000000	141.000000	52.000000	21.000000	18.000000
1.500000	27.540000	69.920000	0.000000	0.000000	142.000000	53.000000	27.000000	18.000000
1.510000	27.850000	70.090000	0.000000	0.000000	142.000000	53.000000	31.000000	17.000000
1.520000	28.140000	70.260000	0.000000	0.000000	143.000000	53.000000	29.000000	17.000000
1.530000	28.270000	70.260000	0.000000	0.000000	145.000000	54.000000	13.000000	0.000000
1.540000	28.270000	70.320000	0.000000	0.000000	146.000000	54.000000	0.000000	6.000000
1.550000	28.270000	70.320000	0.000000	0.000000	146.000000	54.000000	0.000000	0.000000
1.560000	28.200000	70.270000	0.000000	0.000000	147.000000	55.000000	-7.000000	-5.000000
1.570000	28.200000	70.270000	153.000000	1.000000	147.000000	55.000000	0.000000	0.000000
1.580000	28.200000	70.270000	221.000000	0.000000	147.000000	55.000000	0.000000	0.000000
1.590000	27.920000	70.450000	312.000000	0.000000	147.000000	53.000000	-28.000000	18.000000
1.600000	27.920000	70.450000	368.000000	0.000000	146.000000	53.000000	0.000000	0.000000
1.610000	27.860000	70.450000	391.000000	0.000000	146.000000	53.000000	-6.000000	0.000000
1.620000	27.860000	70.450000	413.000000	0.000000	145.000000	53.000000	0.000000	0.000000
1.630000	27.860000	70.380000	438.000000	0.000000	143.000000	52.000000	0.000000	-7.000000
1.640000	27.860000	70.240000	447.000000	0.000000	143.000000	52.000000	0.000000	-14.000000
1.650000	27.860000	70.030000	468.000000	0.000000	141.000000	52.000000	0.000000	-21.000000
1.660000	27.860000	69.750000	474.000000	0.000000	141.000000	52.000000	0.000000	-28.000000
1.670000	27.860000	69.430000	443.000000	0.000000	141.000000	52.000000	0.000000	-32.000000
1.680000	27.790000	69.080000	344.000000	0.000000	141.000000	52.000000	-7.000000	-35.000000
1.690000	27.790000	68.860000	153.000000	0.000000	141.000000	52.000000	0.000000	-22.000000
1.700000	27.790000	68.860000	0.000000	1.000000	141.000000	52.000000	0.000000	0.000000
1.710000	27.960000	69.000000	0.000000	0.000000	141.000000	53.000000	17.000000	14.000000
1.720000	28.120000	69.380000	0.000000	0.000000	141.000000	53.000000	16.000000	38.000000
1.730000	28.240000	69.760000	0.000000	0.000000	142.000000	54.000000	12.000000	38.000000
1.740000	28.370000	70.140000	0.000000	0.000000	142.000000	54.000000	13.000000	38.000000
1.750000	28.530000	70.550000	0.000000	0.000000	144.000000	54.000000	16.000000	41.000000
1.760000	28.650000	70.980000	0.000000	0.000000	144.000000	54.000000	12.000000	43.000000
1.770000	28.740000	71.350000	0.000000	0.000000	146.000000	54.000000	9.000000	37.000000
1.780000	28.740000	71.350000	3.000000	0.000000	147.000000	55.000000	0.000000	0.000000
1.790000	28.590000	71.900000	254.000000	1.000000	147.000000	55.000000	0.000000	0.000000
1.800000	28.360000	72.050000	292.000000	0.000000	148.000000	54.000000	-23.000000	15.000000
1.810000	28.360000	72.000000	309.000000	0.000000	148.000000	54.000000	0.000000	-5.000000
1.820000	28.360000	72.000000	314.000000	0.000000	148.000000	53.000000	0.000000	0.000000
1.830000	28.360000	71.950000	304.000000	0.000000	148.000000	53.000000	0.000000	-5.000000
1.840000	28.360000	71.900000	240.000000	0.000000	147.000000	52.000000	0.000000	-5.000000
1.850000	28.420000	71.840000	44.000000	0.000000	147.000000	51.000000	6.000000	-6.000000
1.860000	28.420000	71.840000	0.000000	1.000000	147.000000	51.000000	0.000000	0.000000
1.870000	28.750000	71.760000	0.000000	0.000000	147.000000	51.000000	33.000000	-8.000000
1.880000	29.030000	71.840000	0.000000	0.000000	146.000000	52.000000	28.000000	8.000000
1.890000	29.260000	71.980000	0.000000	0.000000	146.000000	52.000000	23.000000	14.000000
1.900000	29.530000	72.180000	0.000000	0.000000	147.000000	52.000000	27.000000	20.000000
1.910000	29.840000	72.410000	0.000000	0.000000	147.000000	52.000000	31.000000	23.000000
1.920000	30.150000	72.670000	0.000000	0.000000	148.000000	53.000000	31.000000	26.000000
1.930000	30.460000	72.900000	0.000000	0.000000	148.000000	53.000000	31.000000	23.000000
1.940000	30.620000	73.030000	0.000000	0.000000	149.000000	52.000000	16.000000	13.000000
1.950000	30.670000	73.100000	0.000000	0.000000	149.000000	52.000000	5.000000	7.000000
1.960000	30.670000	73.100000	94.000000	1.000000	149.000000	52.000000	0.000000	0.000000
1.970000	30.670000	73.100000	113.000000	0.000000	149.000000	52.000000	0.000000	0.000000
1.980000	30.670000	73.100000	139.000000	0.000000	149.000000	52.000000	0.000000	0.000000
1.990000	30.670000	73.100000	168.000000	0.000000	149.000000	52.000000	0.000000	0.000000
2.000000	30.670000	73.100000	222.000000	0.000000	149.000000	52.000000	0.000000	0.000000
2.010000	30.600000	72.840000	233.000000	0.000000	149.000000	52.000000	-7.000000	-26.000000
2.020000	30.600000	72.490000	242.000000	0.000000	148.000000	51.000000	0.000000	-35.000000
2.030000	30.670000	72.090000	247.000000	0.000000	148.000000	51.000000	7.000000	-40.000000
2.040000	30.720000	71.720000	242.000000	0.000000	148.000000	51.000000	5.000000	-37.000000
2.050000	30.820000	71.420000	269.000000	0.000000	147.000000	52.000000	10.000000	-30.000000
2.060000	30.920000	71.150000	275.000000	0.000000	147.000000	52.000000	10.000000	-27.000000
2.070000	30.980000	71.060000	280.000000	0.000000	147.000000	52.000000	6.000000	-9.000000
2.080000	30.980000	71.010000	280.000000	0.000000	147.000000	52.000000	0.000000	-5.000000
2.090000	30.980000	71.010000	285.000000	0.000000	147.000000	52.000000	0.000000	0.000000
2.100000	30.980000	71.010000	279.000000	0.000000	147.000000	52.000000	0.000000	0.000000
2.110000	30.910000	71.060000	282.000000	0.000000	147.000000	52.000000	-7.000000	5.000000
2.120000	30.750000	71.130000	292.000000	0.000000	147.000000	52.000000	-16.000000	7.000000
2.130000	30.490000	71.130000	307.000000	0.000000	147.000000	52.000000	-26.000000	0.000000
2.140000	30.170000	71.130000	366.000000	0.000000	147.000000	52.000000	-32.000000	0.000000
2.150000	29.810000	71.130000	415.000000	0.000000	147.000000	52.000000	-36.000000	0.000000
2.160000	29.530000	71.020000	468.000000	0.000000	147.000000	52.000000	-28.000000	-11.000000
2.170000	29.240000	70.830000	519.000000	0.000000	147.000000	52.000000	-29.000000	-19.000000
2.180000	28.990000	70.570000	565.000000	0.000000	147.000000	52.000000	-25.000000	-26.000000
2.190000	28.870000	70.300000	583.000000	0.000000	147.000000	52.000000	-12.000000	-27.000000
2.200000	28.870000	70.040000	594.000000	0.000000	146.000000	52.000000	0.000000	-26.000000
2.210000	28.870000	69.790000	586.000000	0.000000	146.000000	52.000000	0.000000	-25.000000
2.220000	28.870000	69.570000	540.000000	0.000000	146.000000	52.000000	0.000000	-22.000000
