t	x	y	pressure	penup	azimuth	inclination	v_x	v_y
0.000000	9.700000	8.300000	53.000000	1.000000	143.000000	69.000000	0.000000	0.000000
0.010000	9.100000	7.180000	369.000000	0.000000	145.000000	70.000000	-60.000000	-112.000000
0.020000	8.890000	6.750000	436.000000	0.000000	147.000000	69.000000	-21.000000	-43.000000
0.030000	8.730000	6.410000	512.000000	0.000000	147.000000	69.000000	-16.000000	-34.000000
0.040000	8.730000	6.270000	599.000000	0.000000	151.000000	68.000000	0.000000	-14.000000
0.050000	8.730000	6.270000	652.000000	0.000000	151.000000	68.000000	0.000000	0.000000
0.060000	8.730000	6.320000	694.000000	0.000000	153.000000	69.000000	0.000000	5.000000
0.070000	8.810000	6.610000	750.000000	0.000000	154.000000	68.000000	8.000000	29.000000
0.080000	8.910000	7.070000	773.000000	0.000000	153.000000	69.000000	10.000000	46.000000
0.090000	9.050000	7.930000	796.000000	0.000000	153.000000	69.000000	14.000000	86.000000
0.100000	9.260000	9.130000	796.000000	0.000000	152.000000	70.000000	21.000000	120.000000
0.110000	9.630000	10.550000	783.000000	0.000000	148.000000	70.000000	37.000000	142.000000
0.120000	10.100000	12.530000	785.000000	0.000000	143.000000	70.000000	47.000000	198.000000
0.130000	10.490000	14.300000	790.000000	0.000000	139.000000	69.000000	39.000000	177.000000
0.140000	10.760000	15.920000	812.000000	0.000000	135.000000	69.000000	27.000000	162.000000
0.150000	10.950000	16.720000	831.000000	0.000000	129.000000	68.000000	19.000000	80.000000
0.160000	11.060000	16.830000	854.000000	0.000000	125.000000	68.000000	11.000000	11.000000
0.170000	11.110000	16.470000	899.000000	0.000000	120.000000	67.000000	5.000000	-36.000000
0.180000	11.110000	14.840000	914.000000	0.000000	119.000000	66.000000	0.000000	-163.000000
0.190000	10.880000	12.680000	924.000000	0.000000	119.000000	66.000000	-23.000000	-216.000000
0.200000	10.640000	10.180000	938.000000	0.000000	119.000000	66.000000	-24.000000	-250.000000
0.210000	10.410000	7.990000	949.000000	0.000000	119.000000	66.000000	-23.000000	-219.000000
0.220000	10.190000	6.210000	967.000000	0.000000	122.000000	68.000000	-22.000000	-178.000000
0.230000	10.140000	4.700000	973.000000	0.000000	123.000000	69.000000	-5.000000	-151.000000
0.240000	10.190000	3.710000	962.000000	0.000000	127.000000	70.000000	5.000000	-99.000000
0.250000	10.480000	3.200000	929.000000	0.000000	128.000000	71.000000	29.000000	-51.000000
0.260000	10.760000	3.010000	905.000000	0.000000	130.000000	73.000000	28.000000	-19.000000
0.270000	11.020000	3.180000	892.000000	0.000000	130.000000	75.000000	26.000000	17.000000
0.280000	11.320000	3.920000	888.000000	0.000000	129.000000	76.000000	30.000000	74.000000
0.290000	11.640000	5.040000	872.000000	0.000000	129.000000	76.000000	32.000000	112.000000
0.300000	11.830000	6.470000	869.000000	0.000000	126.000000	77.000000	19.000000	143.000000
0.310000	11.920000	7.680000	872.000000	0.000000	129.000000	76.000000	9.000000	121.000000
0.320000	11.920000	8.740000	887.000000	0.000000	127.000000	75.000000	0.000000	106.000000
0.330000	11.990000	9.090000	897.000000	0.000000	130.000000	75.000000	7.000000	35.000000
0.340000	11.990000	9.240000	903.000000	0.000000	130.000000	73.000000	0.000000	15.000000
0.350000	11.990000	9.240000	903.000000	0.000000	130.000000	72.000000	0.000000	0.000000
0.360000	11.990000	9.170000	902.000000	0.000000	131.000000	71.000000	0.000000	-7.000000
0.370000	11.990000	8.630000	894.000000	0.000000	131.000000	71.000000	0.000000	-54.000000
0.380000	12.070000	7.790000	897.000000	0.000000	133.000000	70.000000	8.000000	-84.000000
0.390000	12.150000	6.910000	902.000000	0.000000	131.000000	69.000000	8.000000	-88.000000
0.400000	12.320000	6.070000	896.000000	0.000000	133.000000	70.000000	17.000000	-84.000000
0.410000	12.500000	5.530000	893.000000	0.000000	133.000000	70.000000	18.000000	-54.000000
0.420000	12.710000	5.190000	905.000000	0.000000	131.000000	71.000000	21.000000	-34.000000
0.430000	12.920000	4.960000	888.000000	0.000000	133.000000	71.000000	21.000000	-23.000000
0.440000	13.080000	4.960000	896.000000	0.000000	130.000000	72.000000	16.000000	0.000000
0.450000	13.220000	5.100000	890.000000	0.000000	133.000000	73.000000	14.000000	14.000000
0.460000	13.430000	5.530000	884.000000	0.000000	130.000000	73.000000	21.000000	43.000000
0.470000	13.580000	6.060000	887.000000	0.000000	127.000000	74.000000	15.000000	53.000000
0.480000	13.640000	6.660000	884.000000	0.000000	127.000000	74.000000	6.000000	60.000000
0.490000	13.640000	7.090000	885.000000	0.000000	127.000000	74.000000	0.000000	43.000000
0.500000	13.640000	7.240000	899.000000	0.000000	130.000000	73.000000	0.000000	15.000000
0.510000	13.640000	7.240000	899.000000	0.000000	133.000000	73.000000	0.000000	0.000000
0.520000	13.640000	6.820000	905.000000	0.000000	135.000000	72.000000	0.000000	-42.000000
0.530000	13.640000	6.240000	903.000000	0.000000	135.000000	72.000000	0.000000	-58.000000
0.540000	13.640000	5.520000	909.000000	0.000000	135.000000	72.000000	0.000000	-72.000000
0.550000	13.640000	5.100000	892.000000	0.000000	137.000000	73.000000	0.000000	-42.000000
0.560000	13.820000	4.820000	876.000000	0.000000	137.000000	73.000000	18.000000	-28.000000
0.570000	13.940000	4.630000	797.000000	0.000000	135.000000	73.000000	12.000000	-19.000000
0.580000	14.020000	4.630000	628.000000	0.000000	135.000000	75.000000	8.000000	0.000000
0.590000	14.070000	4.720000	301.000000	0.000000	132.000000	75.000000	5.000000	9.000000
0.600000	14.070000	4.720000	0.000000	1.000000	129.000000	76.000000	0.000000	0.000000
0.610000	14.280000	5.070000	0.000000	0.000000	129.000000	76.000000	21.000000	35.000000
0.620000	14.280000	5.180000	0.000000	0.000000	132.000000	77.000000	0.000000	11.000000
0.630000	14.200000	5.180000	0.000000	0.000000	132.000000	77.000000	-8.000000	0.000000
0.640000	14.200000	5.060000	0.000000	0.000000	135.000000	76.000000	0.000000	-12.000000
0.650000	14.200000	4.870000	0.000000	0.000000	141.000000	76.000000	0.000000	-19.000000
0.660000	14.250000	4.750000	0.000000	0.000000	141.000000	76.000000	5.000000	-12.000000
0.670000	14.350000	4.680000	0.000000	0.000000	143.000000	75.000000	10.000000	-7.000000
0.680000	14.470000	4.680000	0.000000	0.000000	149.000000	75.000000	12.000000	0.000000
0.690000	14.620000	4.680000	0.000000	0.000000	151.000000	74.000000	15.000000	0.000000
0.700000	14.780000	4.790000	0.000000	0.000000	154.000000	74.000000	16.000000	11.000000
0.710000	14.870000	4.910000	0.000000	0.000000	155.000000	74.000000	9.000000	12.000000
0.720000	14.930000	4.990000	0.000000	0.000000	155.000000	74.000000	6.000000	8.000000
0.730000	14.930000	5.120000	0.000000	0.000000	155.000000	74.000000	0.000000	13.000000
0.740000	15.000000	5.310000	0.000000	0.000000	155.000000	74.000000	7.000000	19.000000
0.750000	15.000000	5.400000	0.000000	0.000000	155.000000	74.000000	0.000000	9.000000
0.760000	15.000000	5.550000	0.000000	0.000000	155.000000	74.000000	0.000000	15.000000
0.770000	15.050000	5.740000	0.000000	0.000000	157.000000	73.000000	5.000000	19.000000
0.780000	15.050000	5.820000	0.000000	0.000000	157.000000	73.000000	0.000000	8.000000
0.790000	15.050000	5.890000	0.000000	0.000000	157.000000	73.000000	0.000000	7.000000
0.800000	15.050000	5.890000	0.000000	0.000000	158.000000	72.000000	0.000000	0.000000
0.810000	15.050000	5.890000	0.000000	0.000000	158.000000	72.000000	0.000000	0.000000
0.820000	15.050000	5.780000	0.000000	0.000000	158.000000	72.000000	0.000000	-11.000000
0.830000	14.990000	5.710000	0.000000	0.000000	159.000000	71.000000	-6.000000	-7.000000
0.840000	14.930000	5.620000	0.000000	0.000000	159.000000	71.000000	-6.000000	-9.000000
0.850000	14.930000	5.620000	0.000000	0.000000	159.000000	71.000000	0.000000	0.000000
0.860000	14.930000	5.560000	0.000000	0.000000	159.000000	71.000000	0.000000	-6.000000
0.870000	14.880000	5.560000	0.000000	0.000000	159.000000	71.000000	-5.000000	0.000000
0.880000	14.880000	5.560000	0.000000	0.000000	159.000000	71.000000	0.000000	0.000000
0.890000	14.940000	5.560000	0.000000	0.000000	159.000000	71.000000	6.000000	0.000000
0.900000	14.940000	5.400000	0.000000	0.000000	158.000000	72.000000	0.000000	-16.000000
0.910000	14.940000	5.310000	0.000000	0.000000	158.000000	72.000000	0.000000	-9.000000
0.920000	14.940000	5.260000	0.000000	0.000000	155.000000	71.000000	0.000000	-5.000000
0.930000	14.940000	5.260000	0.000000	0.000000	154.000000	72.000000	0.000000	0.000000
0.940000	15.030000	5.410000	0.000000	0.000000	157.000000	73.000000	9.000000	15.000000
0.950000	15.090000	5.600000	0.000000	0.000000	157.000000	73.000000	6.000000	19.000000
0.960000	15.170000	5.890000	0.000000	0.000000	157.000000	73.000000	8.000000	29.000000
0.970000	15.230000	6.240000	0.000000	0.000000	157.000000	73.000000	6.000000	35.000000
0.980000	15.230000	6.580000	0.000000	0.000000	158.000000	72.000000	0.000000	34.000000
0.990000	15.170000	6.940000	0.000000	0.000000	158.000000	72.000000	-6.000000	36.000000
1.000000	15.080000	7.340000	0.000000	0.000000	155.000000	71.000000	-9.000000	40.000000
1.010000	15.000000	7.770000	0.000000	0.000000	154.000000	72.000000	-8.000000	43.000000
1.020000	14.920000	8.160000	0.000000	0.000000	154.000000	72.000000	-8.000000	39.000000
1.030000	14.850000	8.570000	0.000000	0.000000	151.000000	72.000000	-7.000000	41.000000
1.040000	14.780000	8.990000	0.000000	0.000000	149.000000	73.000000	-7.000000	42.000000
1.050000	14.710000	9.430000	0.000000	0.000000	147.000000	72.000000	-7.000000	44.000000
1.060000	14.710000	9.430000	17.000000	1.000000	145.000000	73.000000	0.000000	0.000000
1.070000	14.660000	9.740000	151.000000	0.000000	142.000000	72.000000	-5.000000	31.000000
1.080000	14.600000	9.650000	215.000000	0.000000	140.000000	73.000000	-6.000000	-9.000000
1.090000	14.600000	9.010000	314.000000	0.000000	140.000000	73.000000	0.000000	-64.000000
1.100000	14.680000	7.970000	420.000000	0.000000	137.000000	73.000000	8.000000	-104.000000
1.110000	14.760000	6.670000	519.000000	0.000000	137.000000	73.000000	8.000000	-130.000000
1.120000	14.760000	5.270000	613.000000	0.000000	140.000000	73.000000	0.000000	-140.000000
1.130000	14.810000	4.120000	700.000000	0.000000	138.000000	74.000000	5.000000	-115.000000
1.140000	14.750000	3.130000	768.000000	0.000000	135.000000	75.000000	-6.000000	-99.000000
1.150000	14.750000	2.360000	788.000000	0.000000	135.000000	76.000000	0.000000	-77.000000
1.160000	14.750000	1.860000	803.000000	0.000000	135.000000	77.000000	0.000000	-50.000000
1.170000	14.750000	1.530000	800.000000	0.000000	132.000000	78.000000	0.000000	-33.000000
1.180000	14.750000	1.480000	788.000000	0.000000	131.000000	79.000000	0.000000	-5.000000
1.190000	14.750000	1.700000	797.000000	0.000000	122.000000	81.000000	0.000000	22.000000
1.200000	14.700000	2.090000	784.000000	0.000000	120.000000	82.000000	-5.000000	39.000000
1.210000	14.700000	2.920000	757.000000	0.000000	120.000000	82.000000	0.000000	83.000000
1.220000	14.700000	4.050000	754.000000	0.000000	120.000000	82.000000	0.000000	113.000000
1.230000	14.700000	5.390000	731.000000	0.000000	122.000000	81.000000	0.000000	134.000000
1.240000	14.650000	7.030000	739.000000	0.000000	127.000000	80.000000	-5.000000	164.000000
1.250000	14.650000	8.310000	739.000000	0.000000	128.000000	79.000000	0.000000	128.000000
1.260000	14.710000	9.340000	751.000000	0.000000	132.000000	78.000000	6.000000	103.000000
1.270000	14.800000	9.630000	755.000000	0.000000	132.000000	77.000000	9.000000	29.000000
1.280000	14.920000	9.630000	768.000000	0.000000	132.000000	75.000000	12.000000	0.000000
1.290000	15.070000	9.510000	787.000000	0.000000	132.000000	75.000000	15.000000	-12.000000
1.300000	15.280000	9.000000	796.000000	0.000000	135.000000	75.000000	21.000000	-51.000000
1.310000	15.470000	8.240000	799.000000	0.000000	132.000000	74.000000	19.000000	-76.000000
1.320000	15.550000	7.320000	815.000000	0.000000	135.000000	73.000000	8.000000	-92.000000
1.330000	15.550000	6.580000	823.000000	0.000000	138.000000	74.000000	0.000000	-74.000000
1.340000	15.550000	5.960000	823.000000	0.000000	138.000000	74.000000	0.000000	-62.000000
1.350000	15.450000	5.420000	817.000000	0.000000	138.000000	74.000000	-10.000000	-54.000000
1.360000	15.330000	4.890000	803.000000	0.000000	140.000000	75.000000	-12.000000	-53.000000
1.370000	15.230000	4.690000	794.000000	0.000000	138.000000	75.000000	-10.000000	-20.000000
1.380000	15.140000	4.690000	721.000000	0.000000	138.000000	75.000000	-9.000000	0.000000
1.390000	15.140000	4.690000	634.000000	0.000000	138.000000	75.000000	0.000000	0.000000
1.400000	15.070000	4.690000	413.000000	0.000000	135.000000	76.000000	-7.000000	0.000000
1.410000	15.070000	4.780000	179.000000	0.000000	135.000000	77.000000	0.000000	9.000000
1.420000	15.070000	4.780000	0.000000	1.000000	135.000000	77.000000	0.000000	0.000000
1.430000	15.260000	5.190000	0.000000	0.000000	135.000000	77.000000	19.000000	41.000000
1.440000	15.260000	5.190000	0.000000	0.000000	135.000000	77.000000	0.000000	0.000000
1.450000	15.520000	5.640000	0.000000	0.000000	138.000000	78.000000	26.000000	45.000000
1.460000	15.750000	5.850000	0.000000	0.000000	141.000000	77.000000	23.000000	21.000000
1.470000	15.980000	6.040000	0.000000	0.000000	144.000000	77.000000	23.000000	19.000000
1.480000	16.200000	6.130000	0.000000	0.000000	147.000000	76.000000	22.000000	9.000000
1.490000	16.200000	6.130000	68.000000	1.000000	146.000000	74.000000	0.000000	0.000000
1.500000	16.460000	6.060000	206.000000	0.000000	140.000000	73.000000	26.000000	-7.000000
1.510000	16.550000	5.960000	315.000000	0.000000	137.000000	73.000000	9.000000	-10.000000
1.520000	16.600000	5.770000	392.000000	0.000000	135.000000	71.000000	5.000000	-19.000000
1.530000	16.600000	5.510000	458.000000	0.000000	129.000000	70.000000	0.000000	-26.000000
1.540000	16.720000	5.240000	491.000000	0.000000	125.000000	68.000000	12.000000	-27.000000
1.550000	16.790000	5.040000	541.000000	0.000000	122.000000	68.000000	7.000000	-20.000000
1.560000	16.790000	4.930000	545.000000	0.000000	118.000000	68.000000	0.000000	-11.000000
1.570000	16.930000	4.930000	554.000000	0.000000	117.000000	67.000000	14.000000	0.000000
1.580000	17.020000	5.000000	553.000000	0.000000	115.000000	67.000000	9.000000	7.000000
1.590000	17.130000	5.180000	551.000000	0.000000	114.000000	68.000000	11.000000	18.000000
1.600000	17.260000	5.430000	545.000000	0.000000	114.000000	68.000000	13.000000	25.000000
1.610000	17.340000	5.740000	538.000000	0.000000	114.000000	68.000000	8.000000	31.000000
1.620000	17.340000	6.010000	538.000000	0.000000	114.000000	68.000000	0.000000	27.000000
1.630000	17.390000	6.060000	540.000000	0.000000	116.000000	68.000000	5.000000	5.000000
1.640000	17.390000	5.960000	537.000000	0.000000	116.000000	68.000000	0.000000	-10.000000
1.650000	17.390000	5.810000	544.000000	0.000000	116.000000	68.000000	0.000000	-15.000000
1.660000	17.390000	5.640000	540.000000	0.000000	118.000000	68.000000	0.000000	-17.000000
1.670000	17.460000	5.480000	538.000000	0.000000	118.000000	68.000000	7.000000	-16.000000
1.680000	17.570000	5.360000	519.000000	0.000000	118.000000	68.000000	11.000000	-12.000000
1.690000	17.730000	5.250000	502.000000	0.000000	118.000000	68.000000	16.000000	-11.000000
1.700000	17.940000	5.250000	456.000000	0.000000	117.000000	69.000000	21.000000	0.000000
1.710000	18.110000	5.250000	335.000000	0.000000	117.000000	69.000000	17.000000	0.000000
1.720000	18.240000	5.250000	58.000000	0.000000	117.000000	69.000000	13.000000	0.000000
1.730000	18.240000	5.250000	0.000000	1.000000	117.000000	69.000000	0.000000	0.000000
1.740000	18.340000	5.310000	0.000000	0.000000	117.000000	69.000000	10.000000	6.000000
1.750000	18.340000	5.240000	0.000000	0.000000	116.000000	68.000000	0.000000	-7.000000
1.760000	18.400000	5.160000	0.000000	0.000000	116.000000	68.000000	6.000000	-8.000000
1.770000	18.470000	5.090000	0.000000	0.000000	116.000000	68.000000	7.000000	-7.000000
1.780000	18.590000	5.040000	0.000000	0.000000	116.000000	68.000000	12.000000	-5.000000
1.790000	18.590000	5.040000	137.000000	1.000000	116.000000	68.000000	0.000000	0.000000
1.800000	18.590000	5.040000	344.000000	0.000000	116.000000	68.000000	0.000000	0.000000
1.810000	18.590000	5.040000	465.000000	0.000000	116.000000	68.000000	0.000000	0.000000
1.820000	18.590000	5.040000	550.000000	0.000000	114.000000	68.000000	0.000000	0.000000
1.830000	18.590000	5.040000	606.000000	0.000000	114.000000	68.000000	0.000000	0.000000
1.840000	18.590000	5.040000	667.000000	0.000000	114.000000	68.000000	0.000000	0.000000
1.850000	18.590000	5.040000	702.000000	0.000000	114.000000	68.000000	0.000000	0.000000
1.860000	18.590000	5.040000	694.000000	0.000000	111.000000	69.000000	0.000000	0.000000
1.870000	18.590000	5.040000	640.000000	0.000000	111.000000	69.000000	0.000000	0.000000
1.880000	18.590000	5.040000	498.000000	0.000000	111.000000	69.000000	0.000000	0.000000
1.890000	18.590000	5.040000	215.000000	0.000000	111.000000	69.000000	0.000000	0.000000
1.900000	18.590000	5.040000	0.000000	1.000000	114.000000	68.000000	0.000000	0.000000
1.910000	18.830000	5.330000	0.000000	0.000000	114.000000	68.000000	24.000000	29.000000
1.920000	18.890000	5.330000	0.000000	0.000000	114.000000	68.000000	6.000000	0.000000
1.930000	18.940000	5.330000	0.000000	0.000000	114.000000	68.000000	5.000000	0.000000
1.940000	18.940000	5.330000	32.000000	1.000000	114.000000	68.000000	0.000000	0.000000
1.950000	18.990000	5.040000	163.000000	0.000000	114.000000	68.000000	5.000000	-29.000000
1.960000	18.990000	4.820000	253.000000	0.000000	114.000000	68.000000	0.000000	-22.000000
1.970000	18.990000	4.600000	301.000000	0.000000	114.000000	68.000000	0.000000	-22.000000
1.980000	18.990000	4.450000	396.000000	0.000000	114.000000	68.000000	0.000000	-15.000000
1.990000	18.990000	4.340000	490.000000	0.000000	111.000000	69.000000	0.000000	-11.000000
2.000000	18.990000	4.290000	570.000000	0.000000	112.000000	70.000000	0.000000	-5.000000
2.010000	19.040000	4.290000	658.000000	0.000000	112.000000	70.000000	5.000000	0.000000
2.020000	19.040000	4.370000	725.000000	0.000000	110.000000	70.000000	0.000000	8.000000
2.030000	19.040000	4.540000	754.000000	0.000000	110.000000	70.000000	0.000000	17.000000
2.040000	19.040000	4.810000	805.000000	0.000000	110.000000	70.000000	0.000000	27.000000
2.050000	19.040000	5.150000	818.000000	0.000000	110.000000	70.000000	0.000000	34.000000
2.060000	19.040000	5.650000	830.000000	0.000000	110.000000	70.000000	0.000000	50.000000
2.070000	18.980000	6.280000	825.000000	0.000000	112.000000	70.000000	-6.000000	63.000000
2.080000	18.930000	7.010000	819.000000	0.000000	112.000000	70.000000	-5.000000	73.000000
2.090000	19.050000	7.290000	809.000000	0.000000	115.000000	69.000000	12.000000	28.000000
2.100000	19.130000	7.410000	731.000000	0.000000	117.000000	69.000000	8.000000	12.000000
2.110000	19.180000	7.410000	627.000000	0.000000	118.000000	68.000000	5.000000	0.000000
2.120000	19.320000	7.320000	391.000000	0.000000	120.000000	67.000000	14.000000	-9.000000
2.130000	19.320000	7.320000	0.000000	1.000000	122.000000	67.000000	0.000000	0.000000
2.140000	19.890000	6.980000	0.000000	0.000000	122.000000	67.000000	57.000000	-34.000000
2.150000	20.030000	6.780000	0.000000	0.000000	122.000000	67.000000	14.000000	-20.000000
2.160000	20.150000	6.590000	0.000000	0.000000	124.000000	66.000000	12.000000	-19.000000
2.170000	20.260000	6.380000	0.000000	0.000000	123.000000	65.000000	11.000000	-21.000000
2.180000	20.350000	6.150000	0.000000	0.000000	123.000000	65.000000	9.000000	-23.000000
2.190000	20.350000	5.810000	0.000000	0.000000	123.000000	65.000000	0.000000	-34.000000
2.200000	20.350000	5.810000	294.000000	1.000000	123.000000	65.000000	0.000000	0.000000
2.210000	20.350000	5.170000	396.000000	0.000000	121.000000	66.000000	0.000000	-64.000000
2.220000	20.350000	4.970000	494.000000	0.000000	119.000000	66.000000	0.000000	-20.000000
2.230000	20.350000	4.820000	521.000000	0.000000	119.000000	66.000000	0.000000	-15.000000
2.240000	20.350000	4.820000	518.000000	0.000000	118.000000	68.000000	0.000000	0.000000
2.250000	20.400000	4.760000	501.000000	0.000000	116.000000	68.000000	5.000000	-6.000000
