t	x	y	pressure	penup	azimuth	inclination	v_x	v_y
0.000000	110.470000	65.930000	554.000000	1.000000	192.000000	63.000000	0.000000	0.000000
0.010000	115.700000	66.970000	497.000000	0.000000	192.000000	63.000000	523.000000	104.000000
0.020000	118.190000	67.290000	458.000000	0.000000	192.000000	63.000000	249.000000	32.000000
0.030000	120.360000	67.200000	438.000000	0.000000	192.000000	63.000000	217.000000	-9.000000
0.040000	122.320000	66.760000	441.000000	0.000000	193.000000	64.000000	196.000000	-44.000000
0.050000	123.310000	66.090000	448.000000	0.000000	193.000000	64.000000	99.000000	-67.000000
0.060000	123.310000	65.500000	475.000000	0.000000	195.000000	65.000000	0.000000	-59.000000
0.070000	122.680000	64.870000	518.000000	0.000000	196.000000	66.000000	-63.000000	-63.000000
0.080000	120.750000	64.150000	560.000000	0.000000	198.000000	66.000000	-193.000000	-72.000000
0.090000	117.480000	63.380000	619.000000	0.000000	200.000000	66.000000	-327.000000	-77.000000
0.100000	113.310000	62.850000	666.000000	0.000000	200.000000	65.000000	-417.000000	-53.000000
0.110000	108.350000	62.390000	714.000000	0.000000	202.000000	64.000000	-496.000000	-46.000000
0.120000	102.700000	61.990000	733.000000	0.000000	201.000000	64.000000	-565.000000	-40.000000
0.130000	96.590000	61.540000	721.000000	0.000000	200.000000	63.000000	-611.000000	-45.000000
0.140000	90.470000	61.100000	727.000000	0.000000	200.000000	63.000000	-612.000000	-44.000000
0.150000	85.230000	60.640000	685.000000	0.000000	199.000000	62.000000	-524.000000	-46.000000
0.160000	80.570000	60.450000	662.000000	0.000000	197.000000	61.000000	-466.000000	-19.000000
0.170000	77.760000	60.450000	636.000000	0.000000	195.000000	61.000000	-281.000000	0.000000
0.180000	76.630000	60.900000	537.000000	0.000000	193.000000	61.000000	-113.000000	45.000000
0.190000	76.630000	61.730000	422.000000	0.000000	191.000000	61.000000	0.000000	83.000000
0.200000	77.760000	62.810000	301.000000	0.000000	189.000000	61.000000	113.000000	108.000000
0.210000	80.440000	64.450000	312.000000	0.000000	185.000000	61.000000	268.000000	164.000000
0.220000	84.150000	66.300000	351.000000	0.000000	184.000000	61.000000	371.000000	185.000000
0.230000	88.980000	68.290000	396.000000	0.000000	182.000000	61.000000	483.000000	199.000000
0.240000	94.190000	70.070000	491.000000	0.000000	182.000000	61.000000	521.000000	178.000000
0.250000	99.650000	70.670000	512.000000	0.000000	182.000000	61.000000	546.000000	60.000000
0.260000	103.800000	70.480000	491.000000	0.000000	182.000000	60.000000	415.000000	-19.000000
0.270000	106.370000	69.280000	498.000000	0.000000	182.000000	60.000000	257.000000	-120.000000
0.280000	107.890000	67.610000	492.000000	0.000000	184.000000	61.000000	152.000000	-167.000000
0.290000	107.810000	65.640000	519.000000	0.000000	184.000000	61.000000	-8.000000	-197.000000
0.300000	106.340000	63.740000	564.000000	0.000000	184.000000	61.000000	-147.000000	-190.000000
0.310000	103.930000	61.970000	585.000000	0.000000	184.000000	62.000000	-241.000000	-177.000000
0.320000	100.650000	60.290000	591.000000	0.000000	184.000000	62.000000	-328.000000	-168.000000
0.330000	96.730000	58.540000	588.000000	0.000000	184.000000	63.000000	-392.000000	-175.000000
0.340000	92.370000	57.120000	556.000000	0.000000	184.000000	64.000000	-436.000000	-142.000000
0.350000	88.430000	55.920000	562.000000	0.000000	182.000000	65.000000	-394.000000	-120.000000
0.360000	85.550000	55.360000	502.000000	0.000000	180.000000	66.000000	-288.000000	-56.000000
0.370000	83.380000	55.590000	465.000000	0.000000	180.000000	66.000000	-217.000000	23.000000
0.380000	82.240000	56.360000	428.000000	0.000000	178.000000	67.000000	-114.000000	77.000000
0.390000	81.720000	57.990000	351.000000	0.000000	175.000000	67.000000	-52.000000	163.000000
0.400000	81.620000	60.230000	469.000000	0.000000	173.000000	67.000000	-10.000000	224.000000
0.410000	81.900000	62.880000	481.000000	0.000000	171.000000	67.000000	28.000000	265.000000
0.420000	82.500000	65.790000	485.000000	0.000000	171.000000	67.000000	60.000000	291.000000
0.430000	83.310000	68.640000	488.000000	0.000000	169.000000	66.000000	81.000000	285.000000
0.440000	84.510000	71.450000	522.000000	0.000000	167.000000	64.000000	120.000000	281.000000
0.450000	85.750000	72.330000	524.000000	0.000000	168.000000	63.000000	124.000000	88.000000
0.460000	86.670000	73.160000	521.000000	0.000000	167.000000	61.000000	92.000000	83.000000
0.470000	87.360000	72.740000	533.000000	0.000000	168.000000	59.000000	69.000000	-42.000000
0.480000	87.800000	71.520000	543.000000	0.000000	167.000000	58.000000	44.000000	-122.000000
0.490000	87.970000	69.620000	546.000000	0.000000	167.000000	57.000000	17.000000	-190.000000
0.500000	87.970000	67.400000	562.000000	0.000000	166.000000	57.000000	0.000000	-222.000000
0.510000	87.790000	64.960000	564.000000	0.000000	166.000000	57.000000	-18.000000	-244.000000
0.520000	87.630000	62.780000	556.000000	0.000000	166.000000	57.000000	-16.000000	-218.000000
0.530000	87.510000	61.080000	542.000000	0.000000	165.000000	58.000000	-12.000000	-170.000000
0.540000	87.400000	59.710000	519.000000	0.000000	165.000000	59.000000	-11.000000	-137.000000
0.550000	87.300000	58.600000	501.000000	0.000000	164.000000	60.000000	-10.000000	-111.000000
0.560000	87.240000	57.900000	446.000000	0.000000	163.000000	62.000000	-6.000000	-70.000000
0.570000	87.240000	57.470000	386.000000	0.000000	162.000000	63.000000	0.000000	-43.000000
0.580000	87.360000	57.470000	364.000000	0.000000	161.000000	64.000000	12.000000	0.000000
0.590000	87.660000	57.970000	333.000000	0.000000	160.000000	65.000000	30.000000	50.000000
0.600000	88.090000	58.830000	319.000000	0.000000	160.000000	65.000000	43.000000	86.000000
0.610000	88.660000	60.160000	354.000000	0.000000	160.000000	65.000000	57.000000	133.000000
0.620000	89.240000	61.460000	428.000000	0.000000	160.000000	65.000000	58.000000	130.000000
0.630000	89.790000	62.750000	495.000000	0.000000	160.000000	65.000000	55.000000	129.000000
0.640000	90.030000	63.100000	501.000000	0.000000	162.000000	65.000000	24.000000	35.000000
0.650000	90.030000	62.940000	546.000000	0.000000	163.000000	64.000000	0.000000	-16.000000
0.660000	90.030000	62.440000	580.000000	0.000000	164.000000	63.000000	0.000000	-50.000000
0.670000	89.750000	61.450000	581.000000	0.000000	164.000000	63.000000	-28.000000	-99.000000
0.680000	89.330000	60.310000	586.000000	0.000000	164.000000	63.000000	-42.000000	-114.000000
0.690000	88.980000	59.070000	561.000000	0.000000	164.000000	63.000000	-35.000000	-124.000000
0.700000	88.830000	58.180000	551.000000	0.000000	164.000000	63.000000	-15.000000	-89.000000
0.710000	88.830000	57.690000	518.000000	0.000000	164.000000	63.000000	0.000000	-49.000000
0.720000	88.930000	57.460000	510.000000	0.000000	163.000000	64.000000	10.000000	-23.000000
0.730000	89.090000	57.530000	501.000000	0.000000	162.000000	65.000000	16.000000	7.000000
0.740000	89.450000	58.010000	477.000000	0.000000	162.000000	65.000000	36.000000	48.000000
0.750000	89.920000	58.760000	485.000000	0.000000	162.000000	65.000000	47.000000	75.000000
0.760000	90.290000	59.750000	492.000000	0.000000	165.000000	65.000000	37.000000	99.000000
0.770000	90.540000	60.440000	545.000000	0.000000	165.000000	65.000000	25.000000	69.000000
0.780000	90.700000	60.930000	569.000000	0.000000	165.000000	65.000000	16.000000	49.000000
0.790000	90.700000	60.770000	603.000000	0.000000	165.000000	65.000000	0.000000	-16.000000
0.800000	90.620000	60.160000	611.000000	0.000000	165.000000	65.000000	-8.000000	-61.000000
0.810000	90.470000	59.240000	599.000000	0.000000	165.000000	64.000000	-15.000000	-92.000000
0.820000	90.240000	58.050000	535.000000	0.000000	167.000000	64.000000	-23.000000	-119.000000
0.830000	90.060000	57.040000	324.000000	0.000000	167.000000	65.000000	-18.000000	-101.000000
0.840000	90.060000	57.040000	0.000000	1.000000	167.000000	65.000000	0.000000	0.000000
0.850000	90.000000	55.930000	0.000000	0.000000	167.000000	65.000000	-6.000000	-111.000000
0.860000	90.130000	55.990000	0.000000	0.000000	166.000000	66.000000	13.000000	6.000000
0.870000	90.270000	56.320000	0.000000	0.000000	166.000000	66.000000	14.000000	33.000000
0.880000	90.480000	56.840000	0.000000	0.000000	166.000000	66.000000	21.000000	52.000000
0.890000	90.690000	57.350000	0.000000	0.000000	166.000000	66.000000	21.000000	51.000000
0.900000	90.900000	57.820000	0.000000	0.000000	164.000000	66.000000	21.000000	47.000000
0.910000	91.000000	58.200000	0.000000	0.000000	165.000000	65.000000	10.000000	38.000000
0.920000	91.000000	58.550000	0.000000	0.000000	165.000000	64.000000	0.000000	35.000000
0.930000	91.000000	58.640000	0.000000	0.000000	163.000000	64.000000	0.000000	9.000000
0.940000	90.920000	58.570000	0.000000	0.000000	163.000000	64.000000	-8.000000	-7.000000
0.950000	90.780000	58.450000	0.000000	0.000000	164.000000	63.000000	-14.000000	-12.000000
0.960000	90.620000	58.280000	0.000000	0.000000	164.000000	63.000000	-16.000000	-17.000000
0.970000	90.430000	58.030000	0.000000	0.000000	163.000000	64.000000	-19.000000	-25.000000
0.980000	90.270000	57.870000	0.000000	0.000000	163.000000	64.000000	-16.000000	-16.000000
0.990000	90.270000	57.790000	0.000000	0.000000	165.000000	64.000000	0.000000	-8.000000
1.000000	90.350000	57.720000	0.000000	0.000000	165.000000	65.000000	8.000000	-7.000000
1.010000	90.420000	57.720000	0.000000	0.000000	167.000000	65.000000	7.000000	0.000000
1.020000	90.420000	57.720000	51.000000	1.000000	169.000000	66.000000	0.000000	0.000000
1.030000	90.420000	57.720000	173.000000	0.000000	169.000000	66.000000	0.000000	0.000000
1.040000	90.620000	58.110000	277.000000	0.000000	171.000000	66.000000	20.000000	39.000000
1.050000	90.620000	58.310000	336.000000	0.000000	171.000000	66.000000	0.000000	20.000000
1.060000	90.710000	58.580000	413.000000	0.000000	171.000000	66.000000	9.000000	27.000000
1.070000	90.760000	58.880000	450.000000	0.000000	171.000000	66.000000	5.000000	30.000000
1.080000	90.860000	59.210000	461.000000	0.000000	171.000000	66.000000	10.000000	33.000000
1.090000	91.040000	59.570000	465.000000	0.000000	171.000000	66.000000	18.000000	36.000000
1.100000	91.270000	59.890000	486.000000	0.000000	171.000000	66.000000	23.000000	32.000000
1.110000	91.520000	60.010000	504.000000	0.000000	169.000000	66.000000	25.000000	12.000000
1.120000	91.650000	60.010000	535.000000	0.000000	169.000000	66.000000	13.000000	0.000000
1.130000	91.700000	59.920000	542.000000	0.000000	169.000000	65.000000	5.000000	-9.000000
1.140000	91.830000	59.620000	553.000000	0.000000	167.000000	64.000000	13.000000	-30.000000
1.150000	91.830000	59.180000	564.000000	0.000000	167.000000	64.000000	0.000000	-44.000000
1.160000	91.780000	58.440000	564.000000	0.000000	167.000000	64.000000	-5.000000	-74.000000
1.170000	91.580000	57.700000	561.000000	0.000000	167.000000	65.000000	-20.000000	-74.000000
1.180000	91.390000	56.980000	560.000000	0.000000	169.000000	66.000000	-19.000000	-72.000000
1.190000	91.240000	56.430000	562.000000	0.000000	169.000000	66.000000	-15.000000	-55.000000
1.200000	91.120000	55.990000	529.000000	0.000000	168.000000	67.000000	-12.000000	-44.000000
1.210000	91.120000	55.800000	502.000000	0.000000	171.000000	67.000000	0.000000	-19.000000
1.220000	91.170000	55.860000	464.000000	0.000000	170.000000	68.000000	5.000000	6.000000
1.230000	91.380000	56.090000	449.000000	0.000000	170.000000	68.000000	21.000000	23.000000
1.240000	91.700000	56.520000	438.000000	0.000000	170.000000	69.000000	32.000000	43.000000
1.250000	92.020000	56.950000	449.000000	0.000000	170.000000	69.000000	32.000000	43.000000
1.260000	92.270000	57.370000	465.000000	0.000000	170.000000	69.000000	25.000000	42.000000
1.270000	92.480000	57.790000	519.000000	0.000000	170.000000	69.000000	21.000000	42.000000
1.280000	92.560000	57.940000	538.000000	0.000000	172.000000	69.000000	8.000000	15.000000
1.290000	92.560000	57.940000	543.000000	0.000000	173.000000	68.000000	0.000000	0.000000
1.300000	92.560000	57.940000	548.000000	0.000000	173.000000	68.000000	0.000000	0.000000
1.310000	92.560000	57.710000	548.000000	0.000000	173.000000	68.000000	0.000000	-23.000000
1.320000	92.450000	57.380000	501.000000	0.000000	173.000000	67.000000	-11.000000	-33.000000
1.330000	92.340000	56.970000	249.000000	0.000000	173.000000	67.000000	-11.000000	-41.000000
1.340000	92.340000	56.970000	0.000000	1.000000	173.000000	67.000000	0.000000	0.000000
1.350000	92.290000	56.670000	0.000000	0.000000	173.000000	67.000000	-5.000000	-30.000000
1.360000	92.290000	56.730000	0.000000	0.000000	171.000000	67.000000	0.000000	6.000000
1.370000	92.360000	56.960000	0.000000	0.000000	171.000000	67.000000	7.000000	23.000000
1.380000	92.590000	57.170000	0.000000	0.000000	171.000000	67.000000	23.000000	21.000000
1.390000	92.820000	57.340000	0.000000	0.000000	171.000000	67.000000	23.000000	17.000000
1.400000	92.820000	57.340000	464.000000	1.000000	171.000000	67.000000	0.000000	0.000000
1.410000	92.820000	57.340000	636.000000	0.000000	168.000000	67.000000	0.000000	0.000000
1.420000	92.820000	57.340000	667.000000	0.000000	168.000000	67.000000	0.000000	0.000000
1.430000	92.530000	57.430000	731.000000	0.000000	168.000000	67.000000	-29.000000	9.000000
1.440000	92.440000	57.360000	719.000000	0.000000	171.000000	67.000000	-9.000000	-7.000000
1.450000	92.440000	57.360000	646.000000	0.000000	171.000000	67.000000	0.000000	0.000000
1.460000	92.520000	57.360000	414.000000	0.000000	171.000000	67.000000	8.000000	0.000000
1.470000	92.520000	57.360000	0.000000	1.000000	170.000000	68.000000	0.000000	0.000000
1.480000	92.860000	57.560000	0.000000	0.000000	170.000000	68.000000	34.000000	20.000000
1.490000	93.180000	57.820000	0.000000	0.000000	170.000000	68.000000	32.000000	26.000000
1.500000	93.420000	58.370000	0.000000	0.000000	170.000000	68.000000	24.000000	55.000000
1.510000	93.720000	59.140000	0.000000	0.000000	171.000000	67.000000	30.000000	77.000000
1.520000	93.960000	60.050000	0.000000	0.000000	171.000000	67.000000	24.000000	91.000000
1.530000	94.150000	61.180000	0.000000	0.000000	168.000000	67.000000	19.000000	113.000000
1.540000	94.150000	62.290000	0.000000	0.000000	169.000000	66.000000	0.000000	111.000000
1.550000	94.150000	62.290000	448.000000	1.000000	169.000000	66.000000	0.000000	0.000000
1.560000	93.900000	64.630000	489.000000	0.000000	167.000000	64.000000	-25.000000	234.000000
1.570000	93.710000	65.190000	501.000000	0.000000	168.000000	63.000000	-19.000000	56.000000
1.580000	93.540000	64.750000	574.000000	0.000000	168.000000	63.000000	-17.000000	-44.000000
1.590000	93.400000	63.870000	636.000000	0.000000	168.000000	63.000000	-14.000000	-88.000000
1.600000	93.250000	62.370000	678.000000	0.000000	170.000000	63.000000	-15.000000	-150.000000
1.610000	93.180000	60.600000	693.000000	0.000000	171.000000	62.000000	-7.000000	-177.000000
1.620000	93.180000	58.650000	699.000000	0.000000	170.000000	63.000000	0.000000	-195.000000
1.630000	93.000000	57.020000	690.000000	0.000000	170.000000	63.000000	-18.000000	-163.000000
1.640000	92.880000	55.690000	673.000000	0.000000	170.000000	64.000000	-12.000000	-133.000000
1.650000	92.780000	54.570000	620.000000	0.000000	170.000000	64.000000	-10.000000	-112.000000
1.660000	92.720000	53.770000	560.000000	0.000000	169.000000	65.000000	-6.000000	-80.000000
1.670000	92.660000	53.330000	521.000000	0.000000	169.000000	66.000000	-6.000000	-44.000000
1.680000	92.600000	53.140000	491.000000	0.000000	168.000000	67.000000	-6.000000	-19.000000
1.690000	92.520000	53.280000	463.000000	0.000000	171.000000	67.000000	-8.000000	14.000000
1.700000	92.460000	53.680000	452.000000	0.000000	170.000000	68.000000	-6.000000	40.000000
1.710000	92.460000	54.260000	441.000000	0.000000	170.000000	68.000000	0.000000	58.000000
1.720000	92.530000	54.980000	430.000000	0.000000	170.000000	68.000000	7.000000	72.000000
1.730000	92.650000	55.780000	448.000000	0.000000	170.000000	68.000000	12.000000	80.000000
1.740000	92.840000	56.630000	461.000000	0.000000	170.000000	68.000000	19.000000	85.000000
1.750000	93.100000	57.350000	491.000000	0.000000	170.000000	68.000000	26.000000	72.000000
1.760000	93.330000	57.760000	537.000000	0.000000	170.000000	68.000000	23.000000	41.000000
1.770000	93.520000	57.960000	561.000000	0.000000	170.000000	68.000000	19.000000	20.000000
1.780000	93.670000	57.960000	592.000000	0.000000	170.000000	68.000000	15.000000	0.000000
1.790000	93.820000	57.960000	614.000000	0.000000	170.000000	68.000000	15.000000	0.000000
1.800000	93.920000	57.750000	608.000000	0.000000	171.000000	67.000000	10.000000	-21.000000
1.810000	93.980000	57.390000	577.000000	0.000000	171.000000	67.000000	6.000000	-36.000000
1.820000	93.980000	56.950000	499.000000	0.000000	171.000000	67.000000	0.000000	-44.000000
1.830000	93.920000	56.530000	332.000000	0.000000	171.000000	67.000000	-6.000000	-42.000000
1.840000	93.920000	56.530000	0.000000	1.000000	170.000000	68.000000	0.000000	0.000000
1.850000	93.790000	55.940000	0.000000	0.000000	170.000000	68.000000	-13.000000	-59.000000
1.860000	93.880000	55.940000	0.000000	0.000000	170.000000	68.000000	9.000000	0.000000
1.870000	94.060000	56.090000	0.000000	0.000000	170.000000	68.000000	18.000000	15.000000
1.880000	94.290000	56.380000	0.000000	0.000000	170.000000	68.000000	23.000000	29.000000
1.890000	94.290000	56.380000	103.000000	1.000000	170.000000	68.000000	0.000000	0.000000
1.900000	94.800000	57.080000	299.000000	0.000000	170.000000	68.000000	51.000000	70.000000
1.910000	94.930000	57.460000	358.000000	0.000000	168.000000	68.000000	13.000000	38.000000
1.920000	94.930000	57.760000	445.000000	0.000000	168.000000	68.000000	0.000000	30.000000
1.930000	94.930000	57.880000	472.000000	0.000000	168.000000	68.000000	0.000000	12.000000
1.940000	94.930000	57.880000	448.000000	0.000000	168.000000	68.000000	0.000000	0.000000
1.950000	94.930000	57.830000	369.000000	0.000000	168.000000	68.000000	0.000000	-5.000000
1.960000	94.980000	57.720000	142.000000	0.000000	168.000000	67.000000	5.000000	-11.000000
1.970000	94.980000	57.720000	0.000000	1.000000	168.000000	67.000000	0.000000	0.000000
1.980000	95.100000	57.160000	0.000000	0.000000	168.000000	67.000000	12.000000	-56.000000
1.990000	95.240000	56.950000	0.000000	0.000000	168.000000	67.000000	14.000000	-21.000000
2.000000	95.390000	56.830000	0.000000	0.000000	168.000000	67.000000	15.000000	-12.000000
2.010000	95.660000	56.780000	0.000000	0.000000	168.000000	67.000000	27.000000	-5.000000
2.020000	96.020000	56.780000	0.000000	0.000000	168.000000	67.000000	36.000000	0.000000
2.030000	96.370000	56.890000	0.000000	0.000000	168.000000	67.000000	35.000000	11.000000
2.040000	96.650000	57.020000	0.000000	0.000000	168.000000	67.000000	28.000000	13.000000
2.050000	96.880000	57.240000	0.000000	0.000000	168.000000	67.000000	23.000000	22.000000
2.060000	96.880000	57.240000	207.000000	1.000000	168.000000	67.000000	0.000000	0.000000
2.070000	97.180000	57.850000	287.000000	0.000000	171.000000	67.000000	30.000000	61.000000
2.080000	97.180000	58.130000	399.000000	0.000000	171.000000	67.000000	0.000000	28.000000
2.090000	97.180000	58.400000	542.000000	0.000000	171.000000	67.000000	0.000000	27.000000
2.100000	97.020000	58.510000	620.000000	0.000000	171.000000	67.000000	-16.000000	11.000000
2.110000	96.820000	58.510000	663.000000	0.000000	171.000000	67.000000	-20.000000	0.000000
2.120000	96.520000	58.440000	693.000000	0.000000	171.000000	67.000000	-30.000000	-7.000000
2.130000	96.240000	58.220000	690.000000	0.000000	171.000000	66.000000	-28.000000	-22.000000
2.140000	96.000000	57.900000	694.000000	0.000000	171.000000	66.000000	-24.000000	-32.000000
2.150000	95.770000	57.400000	673.000000	0.000000	171.000000	66.000000	-23.000000	-50.000000
2.160000	95.560000	56.880000	641.000000	0.000000	171.000000	67.000000	-21.000000	-52.000000
2.170000	95.460000	56.350000	562.000000	0.000000	171.000000	67.000000	-10.000000	-53.000000
2.180000	95.460000	55.840000	448.000000	0.000000	171.000000	67.000000	0.000000	-51.000000
2.190000	95.540000	55.560000	302.000000	0.000000	168.000000	68.000000	8.000000	-28.000000
