t	x	y	pressure	penup	azimuth	inclination	v_x	v_y
0.000000	72.610000	66.840000	260.000000	1.000000	198.000000	65.000000	0.000000	0.000000
0.010000	77.530000	66.860000	304.000000	0.000000	200.000000	65.000000	492.000000	2.000000
0.020000	79.710000	66.750000	366.000000	0.000000	203.000000	65.000000	218.000000	-11.000000
0.030000	81.710000	66.400000	412.000000	0.000000	205.000000	65.000000	200.000000	-35.000000
0.040000	82.890000	65.880000	415.000000	0.000000	207.000000	65.000000	118.000000	-52.000000
0.050000	83.070000	65.310000	469.000000	0.000000	207.000000	65.000000	18.000000	-57.000000
0.060000	82.580000	64.720000	520.000000	0.000000	207.000000	65.000000	-49.000000	-59.000000
0.070000	80.780000	64.020000	543.000000	0.000000	209.000000	64.000000	-180.000000	-70.000000
0.080000	77.480000	63.260000	606.000000	0.000000	209.000000	64.000000	-330.000000	-76.000000
0.090000	73.180000	62.600000	638.000000	0.000000	209.000000	64.000000	-430.000000	-66.000000
0.100000	67.920000	62.020000	659.000000	0.000000	209.000000	64.000000	-526.000000	-58.000000
0.110000	62.380000	61.500000	678.000000	0.000000	209.000000	64.000000	-554.000000	-52.000000
0.120000	56.650000	61.040000	665.000000	0.000000	206.000000	64.000000	-573.000000	-46.000000
0.130000	52.050000	60.850000	652.000000	0.000000	204.000000	64.000000	-460.000000	-19.000000
0.140000	48.740000	60.850000	594.000000	0.000000	202.000000	64.000000	-331.000000	0.000000
0.150000	46.290000	60.970000	543.000000	0.000000	200.000000	65.000000	-245.000000	12.000000
0.160000	45.320000	61.400000	440.000000	0.000000	198.000000	65.000000	-97.000000	43.000000
0.170000	45.880000	62.030000	327.000000	0.000000	195.000000	65.000000	56.000000	63.000000
0.180000	47.450000	63.000000	363.000000	0.000000	193.000000	65.000000	157.000000	97.000000
0.190000	50.810000	64.240000	455.000000	0.000000	191.000000	66.000000	336.000000	124.000000
0.200000	55.360000	65.650000	448.000000	0.000000	191.000000	66.000000	455.000000	141.000000
0.210000	60.710000	66.860000	491.000000	0.000000	191.000000	66.000000	535.000000	121.000000
0.220000	66.380000	67.390000	521.000000	0.000000	191.000000	66.000000	567.000000	53.000000
0.230000	71.120000	67.480000	539.000000	0.000000	193.000000	65.000000	474.000000	9.000000
0.240000	75.250000	66.770000	535.000000	0.000000	195.000000	65.000000	413.000000	-71.000000
0.250000	77.250000	65.620000	529.000000	0.000000	198.000000	65.000000	200.000000	-115.000000
0.260000	77.750000	64.180000	538.000000	0.000000	200.000000	65.000000	50.000000	-144.000000
0.270000	77.250000	62.640000	542.000000	0.000000	202.000000	64.000000	-50.000000	-154.000000
0.280000	75.550000	61.090000	540.000000	0.000000	202.000000	64.000000	-170.000000	-155.000000
0.290000	72.520000	59.480000	561.000000	0.000000	203.000000	65.000000	-303.000000	-161.000000
0.300000	68.600000	57.910000	620.000000	0.000000	203.000000	65.000000	-392.000000	-157.000000
0.310000	64.400000	56.400000	617.000000	0.000000	201.000000	67.000000	-420.000000	-151.000000
0.320000	60.400000	55.610000	642.000000	0.000000	200.000000	68.000000	-400.000000	-79.000000
0.330000	56.520000	55.380000	633.000000	0.000000	199.000000	69.000000	-388.000000	-23.000000
0.340000	53.260000	55.520000	606.000000	0.000000	194.000000	70.000000	-326.000000	14.000000
0.350000	50.570000	56.150000	559.000000	0.000000	192.000000	72.000000	-269.000000	63.000000
0.360000	48.250000	57.330000	536.000000	0.000000	187.000000	73.000000	-232.000000	118.000000
0.370000	46.530000	58.880000	520.000000	0.000000	183.000000	73.000000	-172.000000	155.000000
0.380000	45.750000	60.740000	501.000000	0.000000	180.000000	73.000000	-78.000000	186.000000
0.390000	45.600000	62.900000	522.000000	0.000000	173.000000	73.000000	-15.000000	216.000000
0.400000	46.030000	65.250000	501.000000	0.000000	170.000000	73.000000	43.000000	235.000000
0.410000	47.070000	67.750000	530.000000	0.000000	168.000000	72.000000	104.000000	250.000000
0.420000	48.520000	70.230000	545.000000	0.000000	166.000000	70.000000	145.000000	248.000000
0.430000	50.070000	71.660000	545.000000	0.000000	167.000000	69.000000	155.000000	143.000000
0.440000	51.530000	72.400000	543.000000	0.000000	166.000000	66.000000	146.000000	74.000000
0.450000	52.540000	72.450000	542.000000	0.000000	167.000000	65.000000	101.000000	5.000000
0.460000	53.280000	72.020000	567.000000	0.000000	170.000000	64.000000	74.000000	-43.000000
0.470000	53.430000	71.280000	595.000000	0.000000	170.000000	63.000000	15.000000	-74.000000
0.480000	53.290000	69.890000	616.000000	0.000000	170.000000	63.000000	-14.000000	-139.000000
0.490000	52.950000	68.170000	631.000000	0.000000	171.000000	62.000000	-34.000000	-172.000000
0.500000	52.480000	66.220000	627.000000	0.000000	170.000000	63.000000	-47.000000	-195.000000
0.510000	51.960000	64.450000	619.000000	0.000000	170.000000	63.000000	-52.000000	-177.000000
0.520000	51.410000	62.950000	609.000000	0.000000	168.000000	63.000000	-55.000000	-150.000000
0.530000	51.030000	61.630000	581.000000	0.000000	167.000000	65.000000	-38.000000	-132.000000
0.540000	50.800000	60.750000	540.000000	0.000000	166.000000	66.000000	-23.000000	-88.000000
0.550000	50.660000	60.150000	512.000000	0.000000	163.000000	67.000000	-14.000000	-60.000000
0.560000	50.660000	59.740000	489.000000	0.000000	161.000000	69.000000	0.000000	-41.000000
0.570000	50.590000	59.640000	501.000000	0.000000	158.000000	70.000000	-7.000000	-10.000000
0.580000	50.530000	59.760000	505.000000	0.000000	158.000000	70.000000	-6.000000	12.000000
0.590000	50.530000	60.040000	527.000000	0.000000	157.000000	71.000000	0.000000	28.000000
0.600000	50.460000	60.570000	536.000000	0.000000	154.000000	70.000000	-7.000000	53.000000
0.610000	50.400000	61.280000	565.000000	0.000000	154.000000	70.000000	-6.000000	71.000000
0.620000	50.490000	62.120000	588.000000	0.000000	154.000000	70.000000	9.000000	84.000000
0.630000	50.600000	62.630000	616.000000	0.000000	154.000000	70.000000	11.000000	51.000000
0.640000	50.740000	62.820000	613.000000	0.000000	155.000000	69.000000	14.000000	19.000000
0.650000	50.880000	62.820000	628.000000	0.000000	155.000000	69.000000	14.000000	0.000000
0.660000	51.020000	62.510000	642.000000	0.000000	155.000000	69.000000	14.000000	-31.000000
0.670000	51.230000	61.960000	641.000000	0.000000	156.000000	68.000000	21.000000	-55.000000
0.680000	51.290000	61.230000	642.000000	0.000000	156.000000	68.000000	6.000000	-73.000000
0.690000	51.290000	60.540000	633.000000	0.000000	156.000000	68.000000	0.000000	-69.000000
0.700000	51.290000	59.870000	611.000000	0.000000	155.000000	69.000000	0.000000	-67.000000
0.710000	51.290000	59.330000	585.000000	0.000000	155.000000	69.000000	0.000000	-54.000000
0.720000	51.240000	58.870000	561.000000	0.000000	153.000000	69.000000	-5.000000	-46.000000
0.730000	51.290000	58.670000	535.000000	0.000000	152.000000	70.000000	5.000000	-20.000000
0.740000	51.350000	58.670000	526.000000	0.000000	152.000000	70.000000	6.000000	0.000000
0.750000	51.470000	58.770000	516.000000	0.000000	150.000000	71.000000	12.000000	10.000000
0.760000	51.650000	59.160000	499.000000	0.000000	150.000000	71.000000	18.000000	39.000000
0.770000	51.920000	59.700000	509.000000	0.000000	150.000000	71.000000	27.000000	54.000000
0.780000	52.210000	60.340000	512.000000	0.000000	150.000000	71.000000	29.000000	64.000000
0.790000	52.480000	60.870000	589.000000	0.000000	148.000000	70.000000	27.000000	53.000000
0.800000	52.610000	61.050000	617.000000	0.000000	148.000000	70.000000	13.000000	18.000000
0.810000	52.670000	61.000000	662.000000	0.000000	150.000000	71.000000	6.000000	-5.000000
0.820000	52.620000	60.750000	697.000000	0.000000	152.000000	70.000000	-5.000000	-25.000000
0.830000	52.560000	60.250000	700.000000	0.000000	152.000000	70.000000	-6.000000	-50.000000
0.840000	52.490000	59.580000	662.000000	0.000000	152.000000	70.000000	-7.000000	-67.000000
0.850000	52.490000	58.780000	540.000000	0.000000	152.000000	70.000000	0.000000	-80.000000
0.860000	52.490000	58.130000	269.000000	0.000000	152.000000	70.000000	0.000000	-65.000000
0.870000	52.490000	58.130000	0.000000	1.000000	149.000000	69.000000	0.000000	0.000000
0.880000	52.770000	57.320000	0.000000	0.000000	148.000000	70.000000	28.000000	-81.000000
0.890000	52.990000	57.370000	0.000000	0.000000	148.000000	70.000000	22.000000	5.000000
0.900000	53.210000	57.620000	0.000000	0.000000	148.000000	70.000000	22.000000	25.000000
0.910000	53.520000	57.900000	0.000000	0.000000	148.000000	70.000000	31.000000	28.000000
0.920000	53.800000	58.150000	0.000000	0.000000	148.000000	70.000000	28.000000	25.000000
0.930000	53.940000	58.320000	0.000000	0.000000	148.000000	70.000000	14.000000	17.000000
0.940000	53.990000	58.410000	0.000000	0.000000	149.000000	69.000000	5.000000	9.000000
0.950000	53.900000	58.410000	0.000000	0.000000	151.000000	68.000000	-9.000000	0.000000
0.960000	53.760000	58.410000	0.000000	0.000000	152.000000	68.000000	-14.000000	0.000000
0.970000	53.590000	58.410000	0.000000	0.000000	152.000000	68.000000	-17.000000	0.000000
0.980000	53.400000	58.480000	0.000000	0.000000	152.000000	68.000000	-19.000000	7.000000
0.990000	53.230000	58.480000	0.000000	0.000000	152.000000	68.000000	-17.000000	0.000000
1.000000	53.120000	58.480000	0.000000	0.000000	152.000000	68.000000	-11.000000	0.000000
1.010000	53.120000	58.480000	0.000000	0.000000	153.000000	69.000000	0.000000	0.000000
1.020000	53.120000	58.480000	25.000000	1.000000	152.000000	70.000000	0.000000	0.000000
1.030000	53.120000	58.480000	34.000000	0.000000	150.000000	71.000000	0.000000	0.000000
1.040000	53.120000	58.480000	67.000000	0.000000	150.000000	71.000000	0.000000	0.000000
1.050000	53.120000	58.480000	86.000000	0.000000	148.000000	71.000000	0.000000	0.000000
1.060000	53.120000	58.480000	122.000000	0.000000	148.000000	71.000000	0.000000	0.000000
1.070000	53.120000	58.480000	207.000000	0.000000	148.000000	71.000000	0.000000	0.000000
1.080000	53.340000	58.850000	277.000000	0.000000	150.000000	71.000000	22.000000	37.000000
1.090000	53.410000	59.110000	324.000000	0.000000	150.000000	71.000000	7.000000	26.000000
1.100000	53.490000	59.450000	396.000000	0.000000	150.000000	71.000000	8.000000	34.000000
1.110000	53.610000	59.870000	423.000000	0.000000	150.000000	71.000000	12.000000	42.000000
1.120000	53.750000	60.290000	483.000000	0.000000	150.000000	71.000000	14.000000	42.000000
1.130000	53.960000	60.690000	529.000000	0.000000	152.000000	70.000000	21.000000	40.000000
1.140000	54.140000	60.870000	572.000000	0.000000	152.000000	70.000000	18.000000	18.000000
1.150000	54.270000	60.870000	613.000000	0.000000	152.000000	70.000000	13.000000	0.000000
1.160000	54.370000	60.870000	633.000000	0.000000	153.000000	69.000000	10.000000	0.000000
1.170000	54.420000	60.570000	645.000000	0.000000	153.000000	69.000000	5.000000	-30.000000
1.180000	54.420000	60.190000	641.000000	0.000000	153.000000	69.000000	0.000000	-38.000000
1.190000	54.420000	59.460000	637.000000	0.000000	154.000000	68.000000	0.000000	-73.000000
1.200000	54.330000	58.730000	636.000000	0.000000	153.000000	69.000000	-9.000000	-73.000000
1.210000	54.330000	57.990000	634.000000	0.000000	153.000000	69.000000	0.000000	-74.000000
1.220000	54.330000	57.430000	620.000000	0.000000	153.000000	69.000000	0.000000	-56.000000
1.230000	54.330000	56.980000	594.000000	0.000000	152.000000	70.000000	0.000000	-45.000000
1.240000	54.410000	56.750000	564.000000	0.000000	150.000000	71.000000	8.000000	-23.000000
1.250000	54.490000	56.680000	544.000000	0.000000	148.000000	71.000000	8.000000	-7.000000
1.260000	54.550000	56.680000	527.000000	0.000000	148.000000	71.000000	6.000000	0.000000
1.270000	54.700000	56.880000	521.000000	0.000000	147.000000	72.000000	15.000000	20.000000
1.280000	54.870000	57.190000	537.000000	0.000000	147.000000	72.000000	17.000000	31.000000
1.290000	55.080000	57.600000	577.000000	0.000000	147.000000	72.000000	21.000000	41.000000
1.300000	55.200000	57.970000	628.000000	0.000000	147.000000	72.000000	12.000000	37.000000
1.310000	55.260000	58.290000	678.000000	0.000000	147.000000	72.000000	6.000000	32.000000
1.320000	55.260000	58.510000	708.000000	0.000000	147.000000	72.000000	0.000000	22.000000
1.330000	55.260000	58.510000	724.000000	0.000000	149.000000	73.000000	0.000000	0.000000
1.340000	55.260000	58.460000	727.000000	0.000000	149.000000	73.000000	0.000000	-5.000000
1.350000	55.350000	58.290000	722.000000	0.000000	151.000000	72.000000	9.000000	-17.000000
1.360000	55.400000	57.990000	702.000000	0.000000	151.000000	72.000000	5.000000	-30.000000
1.370000	55.450000	57.610000	670.000000	0.000000	151.000000	72.000000	5.000000	-38.000000
1.380000	55.450000	57.270000	574.000000	0.000000	151.000000	72.000000	0.000000	-34.000000
1.390000	55.530000	57.070000	319.000000	0.000000	151.000000	72.000000	8.000000	-20.000000
1.400000	55.530000	57.070000	0.000000	1.000000	151.000000	72.000000	0.000000	0.000000
1.410000	55.750000	57.060000	0.000000	0.000000	151.000000	72.000000	22.000000	-1.000000
1.420000	55.980000	57.390000	0.000000	0.000000	151.000000	72.000000	23.000000	33.000000
1.430000	56.240000	57.880000	0.000000	0.000000	151.000000	72.000000	26.000000	49.000000
1.440000	56.510000	58.370000	0.000000	0.000000	151.000000	72.000000	27.000000	49.000000
1.450000	56.630000	58.590000	0.000000	0.000000	154.000000	72.000000	12.000000	22.000000
1.460000	56.630000	58.590000	486.000000	1.000000	154.000000	72.000000	0.000000	0.000000
1.470000	56.630000	58.590000	561.000000	0.000000	154.000000	72.000000	0.000000	0.000000
1.480000	56.290000	58.450000	560.000000	0.000000	158.000000	72.000000	-34.000000	-14.000000
1.490000	56.060000	58.450000	572.000000	0.000000	158.000000	72.000000	-23.000000	0.000000
1.500000	56.000000	58.390000	551.000000	0.000000	158.000000	72.000000	-6.000000	-6.000000
1.510000	56.000000	58.390000	353.000000	0.000000	158.000000	72.000000	0.000000	0.000000
1.520000	56.000000	58.390000	0.000000	1.000000	158.000000	72.000000	0.000000	0.000000
1.530000	56.060000	58.540000	0.000000	0.000000	155.000000	71.000000	6.000000	15.000000
1.540000	56.220000	58.970000	0.000000	0.000000	155.000000	71.000000	16.000000	43.000000
1.550000	56.440000	59.600000	0.000000	0.000000	155.000000	71.000000	22.000000	63.000000
1.560000	56.640000	60.560000	0.000000	0.000000	158.000000	72.000000	20.000000	96.000000
1.570000	56.820000	62.000000	0.000000	0.000000	159.000000	71.000000	18.000000	144.000000
1.580000	56.960000	63.760000	0.000000	0.000000	159.000000	71.000000	14.000000	176.000000
1.590000	56.960000	63.760000	448.000000	1.000000	163.000000	70.000000	0.000000	0.000000
1.600000	57.120000	67.340000	497.000000	0.000000	164.000000	69.000000	16.000000	358.000000
1.610000	57.040000	68.110000	546.000000	0.000000	167.000000	69.000000	-8.000000	77.000000
1.620000	57.040000	67.860000	641.000000	0.000000	168.000000	68.000000	0.000000	-25.000000
1.630000	57.040000	67.180000	717.000000	0.000000	168.000000	67.000000	0.000000	-68.000000
1.640000	56.830000	66.210000	762.000000	0.000000	168.000000	67.000000	-21.000000	-97.000000
1.650000	56.690000	64.430000	796.000000	0.000000	169.000000	66.000000	-14.000000	-178.000000
1.660000	56.590000	62.350000	817.000000	0.000000	169.000000	66.000000	-10.000000	-208.000000
1.670000	56.460000	60.070000	858.000000	0.000000	166.000000	66.000000	-13.000000	-228.000000
1.680000	56.290000	58.130000	864.000000	0.000000	166.000000	66.000000	-17.000000	-194.000000
1.690000	56.170000	56.680000	848.000000	0.000000	165.000000	67.000000	-12.000000	-145.000000
1.700000	56.050000	55.570000	834.000000	0.000000	162.000000	68.000000	-12.000000	-111.000000
1.710000	55.950000	54.780000	827.000000	0.000000	161.000000	69.000000	-10.000000	-79.000000
1.720000	55.890000	54.350000	809.000000	0.000000	158.000000	70.000000	-6.000000	-43.000000
1.730000	55.820000	54.150000	797.000000	0.000000	157.000000	71.000000	-7.000000	-20.000000
1.740000	55.740000	54.220000	767.000000	0.000000	153.000000	71.000000	-8.000000	7.000000
1.750000	55.740000	54.590000	751.000000	0.000000	151.000000	72.000000	0.000000	37.000000
1.760000	55.740000	55.150000	727.000000	0.000000	151.000000	72.000000	0.000000	56.000000
1.770000	56.000000	55.840000	667.000000	0.000000	147.000000	72.000000	26.000000	69.000000
1.780000	56.350000	56.660000	662.000000	0.000000	147.000000	72.000000	35.000000	82.000000
1.790000	56.530000	57.570000	668.000000	0.000000	147.000000	72.000000	18.000000	91.000000
1.800000	56.820000	58.270000	663.000000	0.000000	149.000000	73.000000	29.000000	70.000000
1.810000	57.190000	58.680000	690.000000	0.000000	151.000000	72.000000	37.000000	41.000000
1.820000	57.500000	58.910000	728.000000	0.000000	151.000000	72.000000	31.000000	23.000000
1.830000	57.680000	58.810000	757.000000	0.000000	154.000000	72.000000	18.000000	-10.000000
1.840000	57.680000	58.810000	757.000000	0.000000	155.000000	71.000000	0.000000	0.000000
1.850000	57.850000	58.440000	751.000000	0.000000	158.000000	72.000000	17.000000	-37.000000
1.860000	57.850000	58.110000	722.000000	0.000000	158.000000	72.000000	0.000000	-33.000000
1.870000	57.850000	57.690000	685.000000	0.000000	159.000000	71.000000	0.000000	-42.000000
1.880000	57.750000	57.330000	572.000000	0.000000	159.000000	71.000000	-10.000000	-36.000000
1.890000	57.750000	57.100000	287.000000	0.000000	158.000000	72.000000	0.000000	-23.000000
1.900000	57.750000	57.100000	0.000000	1.000000	158.000000	72.000000	0.000000	0.000000
1.910000	57.870000	57.050000	0.000000	0.000000	158.000000	72.000000	12.000000	-5.000000
1.920000	58.100000	57.320000	0.000000	0.000000	158.000000	72.000000	23.000000	27.000000
1.930000	58.310000	57.720000	0.000000	0.000000	158.000000	72.000000	21.000000	40.000000
1.940000	58.510000	58.160000	0.000000	0.000000	158.000000	72.000000	20.000000	44.000000
1.950000	58.510000	58.160000	259.000000	1.000000	158.000000	72.000000	0.000000	0.000000
1.960000	58.690000	58.950000	460.000000	0.000000	158.000000	72.000000	18.000000	79.000000
1.970000	58.690000	59.110000	594.000000	0.000000	158.000000	72.000000	0.000000	16.000000
1.980000	58.580000	59.110000	662.000000	0.000000	158.000000	72.000000	-11.000000	0.000000
1.990000	58.510000	59.110000	668.000000	0.000000	159.000000	71.000000	-7.000000	0.000000
2.000000	58.510000	59.110000	611.000000	0.000000	159.000000	71.000000	0.000000	0.000000
2.010000	58.510000	58.970000	418.000000	0.000000	159.000000	71.000000	0.000000	-14.000000
2.020000	58.510000	58.970000	0.000000	1.000000	160.000000	70.000000	0.000000	0.000000
2.030000	58.590000	58.560000	0.000000	0.000000	160.000000	70.000000	8.000000	-41.000000
2.040000	58.660000	58.350000	0.000000	0.000000	160.000000	70.000000	7.000000	-21.000000
2.050000	58.720000	58.220000	0.000000	0.000000	160.000000	70.000000	6.000000	-13.000000
2.060000	58.790000	58.120000	0.000000	0.000000	158.000000	70.000000	7.000000	-10.000000
2.070000	59.030000	58.040000	0.000000	0.000000	158.000000	70.000000	24.000000	-8.000000
2.080000	59.270000	58.040000	0.000000	0.000000	156.000000	68.000000	24.000000	0.000000
2.090000	59.440000	57.980000	0.000000	0.000000	154.000000	68.000000	17.000000	-6.000000
2.100000	59.550000	57.980000	0.000000	0.000000	155.000000	67.000000	11.000000	0.000000
2.110000	59.550000	57.980000	0.000000	0.000000	154.000000	66.000000	0.000000	0.000000
2.120000	59.410000	58.080000	0.000000	0.000000	154.000000	66.000000	-14.000000	10.000000
2.130000	59.260000	58.240000	0.000000	0.000000	154.000000	66.000000	-15.000000	16.000000
2.140000	59.090000	58.370000	0.000000	0.000000	152.000000	65.000000	-17.000000	13.000000
2.150000	58.940000	58.470000	0.000000	0.000000	154.000000	66.000000	-15.000000	10.000000
2.160000	58.840000	58.550000	0.000000	0.000000	154.000000	66.000000	-10.000000	8.000000
2.170000	58.790000	58.600000	0.000000	0.000000	153.000000	67.000000	-5.000000	5.000000
2.180000	58.790000	58.600000	0.000000	0.000000	154.000000	68.000000	0.000000	0.000000
2.190000	58.790000	58.600000	0.000000	0.000000	156.000000	68.000000	0.000000	0.000000
2.200000	58.840000	58.600000	0.000000	0.000000	155.000000	69.000000	5.000000	0.000000
