t	x	y	pressure	penup	azimuth	inclination	v_x	v_y
0.000000	43.400000	67.850000	149.000000	1.000000	187.000000	61.000000	0.000000	0.000000
0.010000	46.490000	67.440000	448.000000	0.000000	187.000000	62.000000	309.000000	-41.000000
0.020000	46.990000	67.150000	468.000000	0.000000	189.000000	62.000000	50.000000	-29.000000
0.030000	46.530000	66.990000	520.000000	0.000000	189.000000	62.000000	-46.000000	-16.000000
0.040000	44.860000	66.290000	567.000000	0.000000	192.000000	63.000000	-167.000000	-70.000000
0.050000	42.380000	65.380000	594.000000	0.000000	192.000000	63.000000	-248.000000	-91.000000
0.060000	38.570000	64.340000	588.000000	0.000000	192.000000	63.000000	-381.000000	-104.000000
0.070000	33.780000	63.240000	592.000000	0.000000	194.000000	62.000000	-479.000000	-110.000000
0.080000	28.330000	62.270000	546.000000	0.000000	192.000000	63.000000	-545.000000	-97.000000
0.090000	22.520000	61.390000	502.000000	0.000000	192.000000	63.000000	-581.000000	-88.000000
0.100000	17.090000	60.760000	496.000000	0.000000	190.000000	64.000000	-543.000000	-63.000000
0.110000	11.900000	60.400000	468.000000	0.000000	188.000000	64.000000	-519.000000	-36.000000
0.120000	8.290000	60.230000	442.000000	0.000000	184.000000	64.000000	-361.000000	-17.000000
0.130000	6.180000	60.550000	366.000000	0.000000	182.000000	65.000000	-211.000000	32.000000
0.140000	5.070000	61.290000	314.000000	0.000000	180.000000	66.000000	-111.000000	74.000000
0.150000	5.270000	62.310000	314.000000	0.000000	180.000000	66.000000	20.000000	102.000000
0.160000	6.870000	63.790000	361.000000	0.000000	178.000000	67.000000	160.000000	148.000000
0.170000	9.400000	65.630000	409.000000	0.000000	175.000000	67.000000	253.000000	184.000000
0.180000	13.410000	67.720000	468.000000	0.000000	173.000000	67.000000	401.000000	209.000000
0.190000	18.170000	69.500000	512.000000	0.000000	173.000000	67.000000	476.000000	178.000000
0.200000	23.440000	70.500000	536.000000	0.000000	173.000000	67.000000	527.000000	100.000000
0.210000	27.800000	70.990000	543.000000	0.000000	176.000000	66.000000	436.000000	49.000000
0.220000	30.450000	70.490000	513.000000	0.000000	176.000000	65.000000	265.000000	-50.000000
0.230000	31.960000	69.400000	494.000000	0.000000	176.000000	64.000000	151.000000	-109.000000
0.240000	32.020000	67.930000	493.000000	0.000000	178.000000	63.000000	6.000000	-147.000000
0.250000	30.740000	66.430000	496.000000	0.000000	178.000000	63.000000	-128.000000	-150.000000
0.260000	28.570000	64.940000	516.000000	0.000000	180.000000	62.000000	-217.000000	-149.000000
0.270000	25.190000	63.550000	614.000000	0.000000	180.000000	63.000000	-338.000000	-139.000000
0.280000	21.340000	62.230000	620.000000	0.000000	180.000000	64.000000	-385.000000	-132.000000
0.290000	17.180000	61.240000	614.000000	0.000000	178.000000	65.000000	-416.000000	-99.000000
0.300000	13.140000	60.590000	589.000000	0.000000	176.000000	66.000000	-404.000000	-65.000000
0.310000	9.870000	60.170000	527.000000	0.000000	171.000000	67.000000	-327.000000	-42.000000
0.320000	7.120000	60.230000	488.000000	0.000000	168.000000	68.000000	-275.000000	6.000000
0.330000	5.350000	61.010000	438.000000	0.000000	162.000000	68.000000	-177.000000	78.000000
0.340000	4.380000	62.270000	387.000000	0.000000	160.000000	68.000000	-97.000000	126.000000
0.350000	3.940000	64.260000	381.000000	0.000000	154.000000	68.000000	-44.000000	199.000000
0.360000	3.940000	66.680000	389.000000	0.000000	152.000000	68.000000	0.000000	242.000000
0.370000	4.170000	69.400000	400.000000	0.000000	150.000000	67.000000	23.000000	272.000000
0.380000	4.610000	72.370000	423.000000	0.000000	150.000000	67.000000	44.000000	297.000000
0.390000	5.350000	74.800000	480.000000	0.000000	149.000000	66.000000	74.000000	243.000000
0.400000	6.360000	76.870000	504.000000	0.000000	152.000000	65.000000	101.000000	207.000000
0.410000	7.550000	77.420000	509.000000	0.000000	153.000000	65.000000	119.000000	55.000000
0.420000	8.400000	77.220000	521.000000	0.000000	153.000000	65.000000	85.000000	-20.000000
0.430000	9.180000	76.510000	527.000000	0.000000	156.000000	64.000000	78.000000	-71.000000
0.440000	9.910000	75.130000	540.000000	0.000000	157.000000	63.000000	73.000000	-138.000000
0.450000	10.360000	73.150000	542.000000	0.000000	158.000000	62.000000	45.000000	-198.000000
0.460000	10.570000	70.760000	546.000000	0.000000	158.000000	62.000000	21.000000	-239.000000
0.470000	10.630000	67.900000	538.000000	0.000000	158.000000	62.000000	6.000000	-286.000000
0.480000	10.400000	65.530000	529.000000	0.000000	156.000000	62.000000	-23.000000	-237.000000
0.490000	10.170000	63.500000	520.000000	0.000000	154.000000	63.000000	-23.000000	-203.000000
0.500000	9.940000	61.920000	470.000000	0.000000	154.000000	63.000000	-23.000000	-158.000000
0.510000	9.720000	60.780000	422.000000	0.000000	151.000000	63.000000	-22.000000	-114.000000
0.520000	9.580000	59.940000	400.000000	0.000000	148.000000	63.000000	-14.000000	-84.000000
0.530000	9.470000	59.460000	379.000000	0.000000	145.000000	65.000000	-11.000000	-48.000000
0.540000	9.470000	59.350000	371.000000	0.000000	144.000000	66.000000	0.000000	-11.000000
0.550000	9.470000	59.500000	354.000000	0.000000	140.000000	66.000000	0.000000	15.000000
0.560000	9.470000	59.940000	366.000000	0.000000	140.000000	66.000000	0.000000	44.000000
0.570000	9.610000	60.620000	413.000000	0.000000	140.000000	66.000000	14.000000	68.000000
0.580000	9.810000	61.460000	443.000000	0.000000	140.000000	66.000000	20.000000	84.000000
0.590000	10.090000	62.310000	473.000000	0.000000	140.000000	66.000000	28.000000	85.000000
0.600000	10.450000	63.110000	490.000000	0.000000	140.000000	66.000000	36.000000	80.000000
0.610000	10.890000	63.530000	493.000000	0.000000	140.000000	66.000000	44.000000	42.000000
0.620000	11.190000	63.720000	519.000000	0.000000	142.000000	65.000000	30.000000	19.000000
0.630000	11.390000	63.550000	536.000000	0.000000	143.000000	64.000000	20.000000	-17.000000
0.640000	11.490000	62.980000	559.000000	0.000000	143.000000	64.000000	10.000000	-57.000000
0.650000	11.410000	62.140000	553.000000	0.000000	141.000000	64.000000	-8.000000	-84.000000
0.660000	11.200000	60.960000	543.000000	0.000000	143.000000	63.000000	-21.000000	-118.000000
0.670000	11.030000	60.000000	535.000000	0.000000	141.000000	64.000000	-17.000000	-96.000000
0.680000	10.900000	59.190000	504.000000	0.000000	141.000000	64.000000	-13.000000	-81.000000
0.690000	10.970000	58.600000	477.000000	0.000000	141.000000	64.000000	7.000000	-59.000000
0.700000	11.150000	58.460000	473.000000	0.000000	140.000000	65.000000	18.000000	-14.000000
0.710000	11.360000	58.630000	478.000000	0.000000	140.000000	65.000000	21.000000	17.000000
0.720000	11.590000	59.140000	470.000000	0.000000	138.000000	65.000000	23.000000	51.000000
0.730000	11.960000	60.020000	467.000000	0.000000	138.000000	65.000000	37.000000	88.000000
0.740000	12.400000	61.150000	486.000000	0.000000	138.000000	65.000000	44.000000	113.000000
0.750000	12.780000	62.200000	527.000000	0.000000	138.000000	65.000000	38.000000	105.000000
0.760000	13.080000	62.850000	565.000000	0.000000	138.000000	65.000000	30.000000	65.000000
0.770000	13.320000	63.230000	586.000000	0.000000	140.000000	65.000000	24.000000	38.000000
0.780000	13.320000	62.970000	631.000000	0.000000	141.000000	64.000000	0.000000	-26.000000
0.790000	13.270000	62.270000	653.000000	0.000000	141.000000	64.000000	-5.000000	-70.000000
0.800000	13.150000	61.280000	645.000000	0.000000	141.000000	64.000000	-12.000000	-99.000000
0.810000	12.930000	60.170000	568.000000	0.000000	143.000000	63.000000	-22.000000	-111.000000
0.820000	12.720000	59.200000	413.000000	0.000000	143.000000	63.000000	-21.000000	-97.000000
0.830000	12.720000	59.200000	0.000000	1.000000	141.000000	64.000000	0.000000	0.000000
0.840000	12.900000	58.200000	0.000000	0.000000	141.000000	64.000000	18.000000	-100.000000
0.850000	13.180000	58.380000	0.000000	0.000000	140.000000	65.000000	28.000000	18.000000
0.860000	13.450000	58.800000	0.000000	0.000000	140.000000	66.000000	27.000000	42.000000
0.870000	13.720000	59.390000	0.000000	0.000000	139.000000	67.000000	27.000000	59.000000
0.880000	14.080000	59.880000	0.000000	0.000000	139.000000	67.000000	36.000000	49.000000
0.890000	14.450000	60.220000	0.000000	0.000000	140.000000	67.000000	37.000000	34.000000
0.900000	14.830000	60.450000	0.000000	0.000000	142.000000	68.000000	38.000000	23.000000
0.910000	15.040000	60.570000	0.000000	0.000000	145.000000	68.000000	21.000000	12.000000
0.920000	15.150000	60.630000	0.000000	0.000000	147.000000	69.000000	11.000000	6.000000
0.930000	15.100000	60.630000	0.000000	0.000000	149.000000	69.000000	-5.000000	0.000000
0.940000	14.950000	60.560000	0.000000	0.000000	149.000000	69.000000	-15.000000	-7.000000
0.950000	14.720000	60.510000	0.000000	0.000000	153.000000	69.000000	-23.000000	-5.000000
0.960000	14.540000	60.510000	0.000000	0.000000	153.000000	69.000000	-18.000000	0.000000
0.970000	14.360000	60.510000	0.000000	0.000000	153.000000	69.000000	-18.000000	0.000000
0.980000	14.210000	60.510000	0.000000	0.000000	152.000000	68.000000	-15.000000	0.000000
0.990000	14.090000	60.440000	0.000000	0.000000	152.000000	68.000000	-12.000000	-7.000000
1.000000	14.020000	60.440000	0.000000	0.000000	150.000000	67.000000	-7.000000	0.000000
1.010000	13.950000	60.340000	0.000000	0.000000	150.000000	67.000000	-7.000000	-10.000000
1.020000	13.950000	60.340000	105.000000	1.000000	148.000000	67.000000	0.000000	0.000000
1.030000	13.950000	60.340000	93.000000	0.000000	148.000000	67.000000	0.000000	0.000000
1.040000	13.950000	60.340000	122.000000	0.000000	148.000000	67.000000	0.000000	0.000000
1.050000	13.950000	60.340000	153.000000	0.000000	146.000000	66.000000	0.000000	0.000000
1.060000	13.810000	60.710000	180.000000	0.000000	147.000000	65.000000	-14.000000	37.000000
1.070000	13.930000	60.870000	203.000000	0.000000	147.000000	65.000000	12.000000	16.000000
1.080000	14.060000	61.140000	254.000000	0.000000	147.000000	65.000000	13.000000	27.000000
1.090000	14.230000	61.470000	330.000000	0.000000	146.000000	64.000000	17.000000	33.000000
1.100000	14.400000	61.850000	361.000000	0.000000	148.000000	65.000000	17.000000	38.000000
1.110000	14.570000	62.120000	422.000000	0.000000	148.000000	65.000000	17.000000	27.000000
1.120000	14.770000	62.350000	466.000000	0.000000	148.000000	65.000000	20.000000	23.000000
1.130000	14.860000	62.400000	491.000000	0.000000	150.000000	64.000000	9.000000	5.000000
1.140000	14.860000	62.350000	514.000000	0.000000	150.000000	64.000000	0.000000	-5.000000
1.150000	14.940000	62.190000	540.000000	0.000000	150.000000	64.000000	8.000000	-16.000000
1.160000	14.940000	61.770000	540.000000	0.000000	150.000000	64.000000	0.000000	-42.000000
1.170000	14.940000	61.170000	551.000000	0.000000	150.000000	64.000000	0.000000	-60.000000
1.180000	14.840000	60.430000	553.000000	0.000000	150.000000	64.000000	-10.000000	-74.000000
1.190000	14.680000	59.650000	546.000000	0.000000	150.000000	64.000000	-16.000000	-78.000000
1.200000	14.540000	58.920000	537.000000	0.000000	148.000000	65.000000	-14.000000	-73.000000
1.210000	14.460000	58.250000	512.000000	0.000000	148.000000	65.000000	-8.000000	-67.000000
1.220000	14.460000	57.860000	443.000000	0.000000	147.000000	65.000000	0.000000	-39.000000
1.230000	14.460000	57.730000	389.000000	0.000000	146.000000	66.000000	0.000000	-13.000000
1.240000	14.620000	57.780000	304.000000	0.000000	144.000000	67.000000	16.000000	5.000000
1.250000	14.820000	58.100000	282.000000	0.000000	144.000000	67.000000	20.000000	32.000000
1.260000	15.060000	58.500000	310.000000	0.000000	144.000000	67.000000	24.000000	40.000000
1.270000	15.280000	58.950000	376.000000	0.000000	144.000000	67.000000	22.000000	45.000000
1.280000	15.370000	59.230000	510.000000	0.000000	144.000000	67.000000	9.000000	28.000000
1.290000	15.370000	59.360000	580.000000	0.000000	146.000000	67.000000	0.000000	13.000000
1.300000	15.370000	59.360000	616.000000	0.000000	146.000000	67.000000	0.000000	0.000000
1.310000	15.370000	59.360000	619.000000	0.000000	146.000000	67.000000	0.000000	0.000000
1.320000	15.370000	59.360000	605.000000	0.000000	146.000000	67.000000	0.000000	0.000000
1.330000	15.370000	59.280000	566.000000	0.000000	146.000000	67.000000	0.000000	-8.000000
1.340000	15.490000	59.170000	510.000000	0.000000	148.000000	67.000000	12.000000	-11.000000
1.350000	15.620000	59.020000	393.000000	0.000000	148.000000	67.000000	13.000000	-15.000000
1.360000	15.750000	58.810000	230.000000	0.000000	148.000000	67.000000	13.000000	-21.000000
1.370000	15.750000	58.540000	13.000000	1.000000	150.000000	67.000000	0.000000	0.000000
1.380000	15.750000	58.540000	0.000000	0.000000	150.000000	67.000000	0.000000	0.000000
1.390000	15.750000	58.040000	0.000000	0.000000	148.000000	68.000000	0.000000	-50.000000
1.400000	15.750000	58.040000	0.000000	0.000000	151.000000	68.000000	0.000000	0.000000
1.410000	15.810000	58.130000	0.000000	0.000000	151.000000	68.000000	6.000000	9.000000
1.420000	15.860000	58.290000	0.000000	0.000000	151.000000	68.000000	5.000000	16.000000
1.430000	15.860000	58.470000	0.000000	0.000000	151.000000	68.000000	0.000000	18.000000
1.440000	15.930000	58.590000	0.000000	0.000000	151.000000	68.000000	7.000000	12.000000
1.450000	15.930000	58.700000	0.000000	0.000000	151.000000	68.000000	0.000000	11.000000
1.460000	15.930000	58.800000	0.000000	0.000000	151.000000	68.000000	0.000000	10.000000
1.470000	15.930000	58.800000	0.000000	0.000000	151.000000	68.000000	0.000000	0.000000
1.480000	15.930000	59.140000	0.000000	0.000000	153.000000	69.000000	0.000000	34.000000
1.490000	16.050000	59.400000	0.000000	0.000000	153.000000	69.000000	12.000000	26.000000
1.500000	16.210000	59.700000	0.000000	0.000000	153.000000	69.000000	16.000000	30.000000
1.510000	16.400000	60.020000	0.000000	0.000000	153.000000	69.000000	19.000000	32.000000
1.520000	16.650000	60.450000	0.000000	0.000000	153.000000	69.000000	25.000000	43.000000
1.530000	16.880000	61.070000	0.000000	0.000000	153.000000	69.000000	23.000000	62.000000
1.540000	17.070000	61.820000	0.000000	0.000000	153.000000	69.000000	19.000000	75.000000
1.550000	17.130000	62.820000	0.000000	0.000000	152.000000	68.000000	6.000000	100.000000
1.560000	17.130000	64.120000	0.000000	0.000000	152.000000	68.000000	0.000000	130.000000
1.570000	17.020000	65.630000	0.000000	0.000000	153.000000	67.000000	-11.000000	151.000000
1.580000	17.020000	65.630000	397.000000	1.000000	153.000000	67.000000	0.000000	0.000000
1.590000	17.020000	67.110000	402.000000	0.000000	156.000000	66.000000	0.000000	148.000000
1.600000	17.020000	66.970000	468.000000	0.000000	156.000000	66.000000	0.000000	-14.000000
1.610000	17.120000	66.470000	543.000000	0.000000	156.000000	66.000000	10.000000	-50.000000
1.620000	17.220000	65.390000	592.000000	0.000000	160.000000	66.000000	10.000000	-108.000000
1.630000	17.290000	63.920000	649.000000	0.000000	160.000000	66.000000	7.000000	-147.000000
1.640000	17.420000	62.170000	664.000000	0.000000	160.000000	66.000000	13.000000	-175.000000
1.650000	17.480000	60.360000	673.000000	0.000000	159.000000	67.000000	6.000000	-181.000000
1.660000	17.480000	58.520000	659.000000	0.000000	159.000000	67.000000	0.000000	-184.000000
1.670000	17.410000	57.200000	620.000000	0.000000	158.000000	67.000000	-7.000000	-132.000000
1.680000	17.330000	56.300000	592.000000	0.000000	156.000000	68.000000	-8.000000	-90.000000
1.690000	17.230000	55.680000	546.000000	0.000000	155.000000	69.000000	-10.000000	-62.000000
1.700000	17.230000	55.490000	516.000000	0.000000	154.000000	70.000000	0.000000	-19.000000
1.710000	17.170000	55.610000	420.000000	0.000000	153.000000	71.000000	-6.000000	12.000000
1.720000	17.170000	55.950000	353.000000	0.000000	153.000000	71.000000	0.000000	34.000000
1.730000	17.170000	56.610000	338.000000	0.000000	151.000000	72.000000	0.000000	66.000000
1.740000	17.250000	57.410000	284.000000	0.000000	151.000000	72.000000	8.000000	80.000000
1.750000	17.380000	58.310000	315.000000	0.000000	151.000000	72.000000	13.000000	90.000000
1.760000	17.550000	59.250000	344.000000	0.000000	151.000000	72.000000	17.000000	94.000000
1.770000	17.740000	59.830000	417.000000	0.000000	151.000000	72.000000	19.000000	58.000000
1.780000	17.930000	60.160000	499.000000	0.000000	150.000000	71.000000	19.000000	33.000000
1.790000	18.100000	60.250000	562.000000	0.000000	150.000000	71.000000	17.000000	9.000000
1.800000	18.180000	60.170000	613.000000	0.000000	152.000000	70.000000	8.000000	-8.000000
1.810000	18.180000	59.970000	616.000000	0.000000	152.000000	70.000000	0.000000	-20.000000
1.820000	18.270000	59.650000	613.000000	0.000000	152.000000	70.000000	9.000000	-32.000000
1.830000	18.270000	59.180000	588.000000	0.000000	153.000000	69.000000	0.000000	-47.000000
1.840000	18.270000	58.600000	460.000000	0.000000	153.000000	69.000000	0.000000	-58.000000
1.850000	18.150000	58.080000	153.000000	0.000000	152.000000	70.000000	-12.000000	-52.000000
1.860000	18.150000	58.080000	0.000000	1.000000	152.000000	70.000000	0.000000	0.000000
1.870000	18.150000	57.680000	0.000000	0.000000	152.000000	70.000000	0.000000	-40.000000
1.880000	18.320000	57.920000	0.000000	0.000000	152.000000	70.000000	17.000000	24.000000
1.890000	18.530000	58.350000	0.000000	0.000000	152.000000	70.000000	21.000000	43.000000
1.900000	18.790000	58.910000	0.000000	0.000000	152.000000	70.000000	26.000000	56.000000
1.910000	19.040000	59.410000	0.000000	0.000000	152.000000	70.000000	25.000000	50.000000
1.920000	19.040000	59.410000	63.000000	1.000000	152.000000	70.000000	0.000000	0.000000
1.930000	19.270000	60.180000	431.000000	0.000000	152.000000	70.000000	23.000000	77.000000
1.940000	19.170000	60.330000	456.000000	0.000000	152.000000	70.000000	-10.000000	15.000000
1.950000	19.110000	60.380000	472.000000	0.000000	152.000000	70.000000	-6.000000	5.000000
1.960000	19.110000	60.380000	415.000000	0.000000	152.000000	70.000000	0.000000	0.000000
1.970000	19.110000	60.320000	203.000000	0.000000	153.000000	69.000000	0.000000	-6.000000
1.980000	19.110000	60.320000	0.000000	1.000000	153.000000	69.000000	0.000000	0.000000
1.990000	19.110000	59.930000	0.000000	0.000000	153.000000	69.000000	0.000000	-39.000000
2.000000	19.040000	59.730000	0.000000	0.000000	153.000000	69.000000	-7.000000	-20.000000
2.010000	19.040000	59.580000	0.000000	0.000000	153.000000	69.000000	0.000000	-15.000000
2.020000	19.110000	59.350000	0.000000	0.000000	149.000000	69.000000	7.000000	-23.000000
2.030000	19.350000	59.150000	0.000000	0.000000	149.000000	69.000000	24.000000	-20.000000
2.040000	19.680000	59.040000	0.000000	0.000000	145.000000	70.000000	33.000000	-11.000000
2.050000	19.970000	58.990000	0.000000	0.000000	143.000000	70.000000	29.000000	-5.000000
2.060000	20.150000	58.990000	0.000000	0.000000	143.000000	70.000000	18.000000	0.000000
2.070000	20.250000	59.050000	0.000000	0.000000	139.000000	71.000000	10.000000	6.000000
2.080000	20.190000	59.050000	0.000000	0.000000	139.000000	71.000000	-6.000000	0.000000
2.090000	20.130000	59.110000	0.000000	0.000000	139.000000	71.000000	-6.000000	6.000000
2.100000	20.080000	59.110000	0.000000	0.000000	139.000000	71.000000	-5.000000	0.000000
2.110000	20.080000	59.170000	0.000000	0.000000	139.000000	71.000000	0.000000	6.000000
2.120000	20.030000	59.170000	0.000000	0.000000	141.000000	70.000000	-5.000000	0.000000
2.130000	20.130000	59.170000	0.000000	0.000000	143.000000	70.000000	10.000000	0.000000
2.140000	20.300000	59.170000	0.000000	0.000000	143.000000	70.000000	17.000000	0.000000
2.150000	20.520000	59.170000	0.000000	0.000000	143.000000	70.000000	22.000000	0.000000
2.160000	20.730000	59.170000	0.000000	0.000000	146.000000	71.000000	21.000000	0.000000
2.170000	20.930000	59.170000	0.000000	0.000000	146.000000	71.000000	20.000000	0.000000
2.180000	21.090000	59.300000	0.000000	0.000000	148.000000	70.000000	16.000000	13.000000
2.190000	21.150000	59.440000	0.000000	0.000000	148.000000	70.000000	6.000000	14.000000
2.200000	21.150000	59.440000	67.000000	1.000000	148.000000	70.000000	0.000000	0.000000
2.210000	21.090000	59.850000	131.000000	0.000000	148.000000	70.000000	-6.000000	41.000000
