t	x	y	pressure	penup	azimuth	inclination	v_x	v_y
0.000000	47.520000	15.780000	127.000000	1.000000	140.000000	53.000000	0.000000	0.000000
0.010000	47.540000	16.080000	185.000000	0.000000	137.000000	53.000000	2.000000	30.000000
0.020000	47.480000	16.150000	254.000000	0.000000	137.000000	53.000000	-6.000000	7.000000
0.030000	47.420000	16.150000	337.000000	0.000000	136.000000	52.000000	-6.000000	0.000000
0.040000	47.420000	16.150000	384.000000	0.000000	134.000000	52.000000	0.000000	0.000000
0.050000	47.420000	16.060000	415.000000	0.000000	133.000000	52.000000	0.000000	-9.000000
0.060000	47.420000	15.940000	458.000000	0.000000	130.000000	52.000000	0.000000	-12.000000
0.070000	47.420000	15.480000	475.000000	0.000000	130.000000	52.000000	0.000000	-46.000000
0.080000	47.250000	14.670000	491.000000	0.000000	129.000000	52.000000	-17.000000	-81.000000
0.090000	46.960000	13.630000	489.000000	0.000000	129.000000	53.000000	-29.000000	-104.000000
0.100000	46.630000	12.750000	496.000000	0.000000	128.000000	54.000000	-33.000000	-88.000000
0.110000	46.300000	11.960000	492.000000	0.000000	127.000000	55.000000	-33.000000	-79.000000
0.120000	45.970000	11.240000	496.000000	0.000000	127.000000	56.000000	-33.000000	-72.000000
0.130000	45.890000	10.980000	472.000000	0.000000	126.000000	58.000000	-8.000000	-26.000000
0.140000	45.840000	10.920000	471.000000	0.000000	124.000000	58.000000	-5.000000	-6.000000
0.150000	45.840000	10.990000	465.000000	0.000000	124.000000	60.000000	0.000000	7.000000
0.160000	45.950000	11.190000	439.000000	0.000000	124.000000	60.000000	11.000000	20.000000
0.170000	46.190000	11.800000	441.000000	0.000000	124.000000	60.000000	24.000000	61.000000
0.180000	46.540000	12.680000	422.000000	0.000000	124.000000	60.000000	35.000000	88.000000
0.190000	46.900000	13.540000	417.000000	0.000000	124.000000	60.000000	36.000000	86.000000
0.200000	47.310000	14.520000	414.000000	0.000000	124.000000	60.000000	41.000000	98.000000
0.210000	47.840000	15.580000	420.000000	0.000000	124.000000	60.000000	53.000000	106.000000
0.220000	48.460000	16.480000	428.000000	0.000000	124.000000	58.000000	62.000000	90.000000
0.230000	49.020000	17.000000	446.000000	0.000000	126.000000	58.000000	56.000000	52.000000
0.240000	49.530000	17.260000	447.000000	0.000000	127.000000	57.000000	51.000000	26.000000
0.250000	49.790000	17.260000	461.000000	0.000000	127.000000	56.000000	26.000000	0.000000
0.260000	49.940000	17.080000	473.000000	0.000000	129.000000	56.000000	15.000000	-18.000000
0.270000	50.020000	16.770000	501.000000	0.000000	130.000000	55.000000	8.000000	-31.000000
0.280000	49.970000	16.290000	507.000000	0.000000	130.000000	54.000000	-5.000000	-48.000000
0.290000	49.670000	15.670000	517.000000	0.000000	131.000000	55.000000	-30.000000	-62.000000
0.300000	49.200000	14.950000	515.000000	0.000000	131.000000	55.000000	-47.000000	-72.000000
0.310000	48.620000	14.250000	516.000000	0.000000	130.000000	55.000000	-58.000000	-70.000000
0.320000	48.060000	13.710000	519.000000	0.000000	130.000000	55.000000	-56.000000	-54.000000
0.330000	47.770000	13.270000	515.000000	0.000000	129.000000	56.000000	-29.000000	-44.000000
0.340000	47.640000	13.010000	519.000000	0.000000	127.000000	56.000000	-13.000000	-26.000000
0.350000	47.640000	12.820000	515.000000	0.000000	126.000000	57.000000	0.000000	-19.000000
0.360000	47.780000	12.690000	504.000000	0.000000	123.000000	56.000000	14.000000	-13.000000
0.370000	48.020000	12.580000	493.000000	0.000000	122.000000	57.000000	24.000000	-11.000000
0.380000	48.380000	12.480000	471.000000	0.000000	122.000000	57.000000	36.000000	-10.000000
0.390000	48.750000	12.390000	425.000000	0.000000	120.000000	57.000000	37.000000	-9.000000
0.400000	49.050000	12.390000	307.000000	0.000000	120.000000	57.000000	30.000000	0.000000
0.410000	49.300000	12.390000	75.000000	0.000000	121.000000	58.000000	25.000000	0.000000
0.420000	49.300000	12.390000	0.000000	1.000000	120.000000	58.000000	0.000000	0.000000
0.430000	49.560000	12.700000	0.000000	0.000000	120.000000	58.000000	26.000000	31.000000
0.440000	49.560000	12.950000	0.000000	0.000000	121.000000	59.000000	0.000000	25.000000
0.450000	49.560000	13.270000	0.000000	0.000000	123.000000	59.000000	0.000000	32.000000
0.460000	49.610000	13.580000	0.000000	0.000000	124.000000	60.000000	5.000000	31.000000
0.470000	49.710000	13.870000	0.000000	0.000000	125.000000	59.000000	10.000000	29.000000
0.480000	49.830000	14.110000	0.000000	0.000000	128.000000	58.000000	12.000000	24.000000
0.490000	49.960000	14.240000	0.000000	0.000000	130.000000	58.000000	13.000000	13.000000
0.500000	50.130000	14.310000	0.000000	0.000000	132.000000	57.000000	17.000000	7.000000
0.510000	50.260000	14.310000	0.000000	0.000000	134.000000	56.000000	13.000000	0.000000
0.520000	50.370000	14.380000	0.000000	0.000000	135.000000	55.000000	11.000000	7.000000
0.530000	50.430000	14.460000	0.000000	0.000000	135.000000	54.000000	6.000000	8.000000
0.540000	50.500000	14.550000	0.000000	0.000000	135.000000	54.000000	7.000000	9.000000
0.550000	50.580000	14.620000	0.000000	0.000000	136.000000	54.000000	8.000000	7.000000
0.560000	50.650000	14.620000	0.000000	0.000000	135.000000	54.000000	7.000000	0.000000
0.570000	50.720000	14.620000	0.000000	0.000000	135.000000	54.000000	7.000000	0.000000
0.580000	50.720000	14.620000	173.000000	1.000000	136.000000	55.000000	0.000000	0.000000
0.590000	50.720000	14.620000	218.000000	0.000000	135.000000	55.000000	0.000000	0.000000
0.600000	50.720000	14.620000	287.000000	0.000000	134.000000	56.000000	0.000000	0.000000
0.610000	50.870000	14.210000	369.000000	0.000000	132.000000	57.000000	15.000000	-41.000000
0.620000	50.870000	13.900000	407.000000	0.000000	131.000000	57.000000	0.000000	-31.000000
0.630000	50.930000	13.560000	414.000000	0.000000	130.000000	58.000000	6.000000	-34.000000
0.640000	50.980000	13.230000	430.000000	0.000000	128.000000	58.000000	5.000000	-33.000000
0.650000	51.070000	13.010000	430.000000	0.000000	127.000000	59.000000	9.000000	-22.000000
0.660000	51.170000	12.860000	433.000000	0.000000	125.000000	59.000000	10.000000	-15.000000
0.670000	51.310000	12.780000	431.000000	0.000000	124.000000	58.000000	14.000000	-8.000000
0.680000	51.460000	12.780000	431.000000	0.000000	124.000000	58.000000	15.000000	0.000000
0.690000	51.660000	12.910000	428.000000	0.000000	123.000000	59.000000	20.000000	13.000000
0.700000	51.900000	13.130000	417.000000	0.000000	123.000000	59.000000	24.000000	22.000000
0.710000	52.130000	13.410000	389.000000	0.000000	123.000000	59.000000	23.000000	28.000000
0.720000	52.360000	13.730000	391.000000	0.000000	124.000000	60.000000	23.000000	32.000000
0.730000	52.590000	14.060000	363.000000	0.000000	124.000000	60.000000	23.000000	33.000000
0.740000	52.800000	14.420000	359.000000	0.000000	124.000000	60.000000	21.000000	36.000000
0.750000	52.970000	14.740000	364.000000	0.000000	125.000000	59.000000	17.000000	32.000000
0.760000	53.120000	15.030000	369.000000	0.000000	125.000000	59.000000	15.000000	29.000000
0.770000	53.120000	15.100000	409.000000	0.000000	128.000000	59.000000	0.000000	7.000000
0.780000	53.120000	15.100000	438.000000	0.000000	129.000000	59.000000	0.000000	0.000000
0.790000	53.120000	14.980000	467.000000	0.000000	129.000000	59.000000	0.000000	-12.000000
0.800000	52.980000	14.700000	512.000000	0.000000	129.000000	59.000000	-14.000000	-28.000000
0.810000	52.740000	14.170000	519.000000	0.000000	131.000000	58.000000	-24.000000	-53.000000
0.820000	52.670000	13.690000	522.000000	0.000000	129.000000	59.000000	-7.000000	-48.000000
0.830000	52.670000	13.240000	489.000000	0.000000	129.000000	59.000000	0.000000	-45.000000
0.840000	52.670000	13.240000	414.000000	0.000000	129.000000	59.000000	0.000000	0.000000
0.850000	52.980000	12.850000	247.000000	0.000000	128.000000	59.000000	31.000000	-39.000000
0.860000	52.980000	12.850000	0.000000	1.000000	128.000000	59.000000	0.000000	0.000000
0.870000	53.630000	12.980000	0.000000	0.000000	128.000000	59.000000	65.000000	13.000000
0.880000	53.950000	13.410000	0.000000	0.000000	128.000000	59.000000	32.000000	43.000000
0.890000	54.120000	13.970000	0.000000	0.000000	128.000000	59.000000	17.000000	56.000000
0.900000	54.210000	14.520000	0.000000	0.000000	129.000000	59.000000	9.000000	55.000000
0.910000	54.400000	15.080000	0.000000	0.000000	131.000000	58.000000	19.000000	56.000000
0.920000	54.610000	15.650000	0.000000	0.000000	134.000000	57.000000	21.000000	57.000000
0.930000	54.990000	16.120000	0.000000	0.000000	135.000000	57.000000	38.000000	47.000000
0.940000	55.470000	16.230000	0.000000	0.000000	138.000000	55.000000	48.000000	11.000000
0.950000	55.780000	16.110000	0.000000	0.000000	141.000000	55.000000	31.000000	-12.000000
0.960000	55.960000	15.760000	0.000000	0.000000	142.000000	54.000000	18.000000	-35.000000
0.970000	56.050000	15.410000	0.000000	0.000000	143.000000	53.000000	9.000000	-35.000000
0.980000	56.050000	15.070000	0.000000	0.000000	145.000000	54.000000	0.000000	-34.000000
0.990000	56.050000	14.860000	0.000000	0.000000	146.000000	53.000000	0.000000	-21.000000
1.000000	56.050000	14.710000	0.000000	0.000000	146.000000	54.000000	0.000000	-15.000000
1.010000	56.050000	14.600000	0.000000	0.000000	146.000000	54.000000	0.000000	-11.000000
1.020000	55.940000	14.520000	0.000000	0.000000	145.000000	55.000000	-11.000000	-8.000000
1.030000	55.940000	14.520000	103.000000	1.000000	144.000000	56.000000	0.000000	0.000000
1.040000	55.940000	14.520000	122.000000	0.000000	143.000000	56.000000	0.000000	0.000000
1.050000	55.940000	14.520000	196.000000	0.000000	140.000000	58.000000	0.000000	0.000000
1.060000	55.940000	14.520000	277.000000	0.000000	138.000000	58.000000	0.000000	0.000000
1.070000	55.940000	14.520000	332.000000	0.000000	136.000000	58.000000	0.000000	0.000000
1.080000	55.630000	14.180000	377.000000	0.000000	134.000000	60.000000	-31.000000	-34.000000
1.090000	55.560000	13.700000	453.000000	0.000000	132.000000	60.000000	-7.000000	-48.000000
1.100000	55.440000	13.050000	485.000000	0.000000	132.000000	60.000000	-12.000000	-65.000000
1.110000	55.280000	12.300000	501.000000	0.000000	131.000000	61.000000	-16.000000	-75.000000
1.120000	55.120000	11.540000	504.000000	0.000000	131.000000	61.000000	-16.000000	-76.000000
1.130000	55.000000	10.770000	509.000000	0.000000	131.000000	61.000000	-12.000000	-77.000000
1.140000	54.930000	10.340000	496.000000	0.000000	128.000000	61.000000	-7.000000	-43.000000
1.150000	54.930000	10.040000	491.000000	0.000000	128.000000	61.000000	0.000000	-30.000000
1.160000	54.870000	9.820000	440.000000	0.000000	128.000000	61.000000	-6.000000	-22.000000
1.170000	54.870000	9.770000	422.000000	0.000000	128.000000	61.000000	0.000000	-5.000000
1.180000	54.870000	9.820000	367.000000	0.000000	128.000000	61.000000	0.000000	5.000000
1.190000	54.870000	9.950000	322.000000	0.000000	128.000000	61.000000	0.000000	13.000000
1.200000	54.870000	10.250000	284.000000	0.000000	128.000000	61.000000	0.000000	30.000000
1.210000	54.960000	10.720000	250.000000	0.000000	126.000000	61.000000	9.000000	47.000000
1.220000	55.050000	11.300000	214.000000	0.000000	126.000000	61.000000	9.000000	58.000000
1.230000	55.190000	12.230000	218.000000	0.000000	126.000000	61.000000	14.000000	93.000000
1.240000	55.360000	13.110000	256.000000	0.000000	126.000000	61.000000	17.000000	88.000000
1.250000	55.550000	13.960000	309.000000	0.000000	126.000000	61.000000	19.000000	85.000000
1.260000	55.750000	14.460000	356.000000	0.000000	126.000000	61.000000	20.000000	50.000000
1.270000	55.960000	14.680000	422.000000	0.000000	128.000000	61.000000	21.000000	22.000000
1.280000	56.280000	14.680000	456.000000	0.000000	128.000000	61.000000	32.000000	0.000000
1.290000	56.620000	14.780000	502.000000	0.000000	129.000000	60.000000	34.000000	10.000000
1.300000	56.990000	14.690000	520.000000	0.000000	131.000000	61.000000	37.000000	-9.000000
1.310000	57.160000	14.500000	542.000000	0.000000	131.000000	61.000000	17.000000	-19.000000
1.320000	57.160000	14.300000	561.000000	0.000000	132.000000	60.000000	0.000000	-20.000000
1.330000	57.160000	14.020000	563.000000	0.000000	132.000000	60.000000	0.000000	-28.000000
1.340000	57.020000	13.700000	560.000000	0.000000	132.000000	60.000000	-14.000000	-32.000000
1.350000	56.750000	13.380000	553.000000	0.000000	131.000000	61.000000	-27.000000	-32.000000
1.360000	56.310000	12.940000	473.000000	0.000000	131.000000	61.000000	-44.000000	-44.000000
1.370000	56.040000	12.640000	309.000000	0.000000	129.000000	61.000000	-27.000000	-30.000000
1.380000	56.040000	12.640000	0.000000	1.000000	129.000000	61.000000	0.000000	0.000000
1.390000	55.830000	12.440000	0.000000	0.000000	129.000000	61.000000	-21.000000	-20.000000
1.400000	55.830000	12.760000	0.000000	0.000000	129.000000	61.000000	0.000000	32.000000
1.410000	55.830000	13.250000	0.000000	0.000000	129.000000	61.000000	0.000000	49.000000
1.420000	56.020000	13.850000	0.000000	0.000000	132.000000	61.000000	19.000000	60.000000
1.430000	56.530000	14.490000	0.000000	0.000000	134.000000	61.000000	51.000000	64.000000
1.440000	57.250000	15.120000	0.000000	0.000000	136.000000	60.000000	72.000000	63.000000
1.450000	58.380000	15.700000	0.000000	0.000000	139.000000	58.000000	113.000000	58.000000
1.460000	59.530000	16.200000	0.000000	0.000000	140.000000	56.000000	115.000000	50.000000
1.470000	60.700000	16.510000	0.000000	0.000000	141.000000	55.000000	117.000000	31.000000
1.480000	61.870000	16.720000	0.000000	0.000000	141.000000	53.000000	117.000000	21.000000
1.490000	62.680000	16.720000	0.000000	0.000000	143.000000	52.000000	81.000000	0.000000
1.500000	63.250000	16.660000	0.000000	0.000000	143.000000	51.000000	57.000000	-6.000000
1.510000	63.560000	16.430000	0.000000	0.000000	143.000000	50.000000	31.000000	-23.000000
1.520000	63.740000	16.090000	0.000000	0.000000	143.000000	49.000000	18.000000	-34.000000
1.530000	63.840000	15.680000	0.000000	0.000000	143.000000	49.000000	10.000000	-41.000000
1.540000	63.780000	15.260000	0.000000	0.000000	144.000000	49.000000	-6.000000	-42.000000
1.550000	63.600000	14.820000	0.000000	0.000000	145.000000	48.000000	-18.000000	-44.000000
1.560000	63.340000	14.370000	0.000000	0.000000	145.000000	50.000000	-26.000000	-45.000000
1.570000	62.930000	13.970000	0.000000	0.000000	145.000000	50.000000	-41.000000	-40.000000
1.580000	62.410000	13.600000	0.000000	0.000000	144.000000	50.000000	-52.000000	-37.000000
1.590000	61.820000	13.420000	0.000000	0.000000	143.000000	51.000000	-59.000000	-18.000000
1.600000	61.290000	13.320000	0.000000	0.000000	142.000000	52.000000	-53.000000	-10.000000
1.610000	60.730000	13.270000	0.000000	0.000000	142.000000	52.000000	-56.000000	-5.000000
1.620000	60.170000	13.270000	0.000000	0.000000	141.000000	52.000000	-56.000000	0.000000
1.630000	59.630000	13.200000	0.000000	0.000000	140.000000	53.000000	-54.000000	-7.000000
1.640000	59.300000	13.200000	0.000000	0.000000	139.000000	54.000000	-33.000000	0.000000
1.650000	59.100000	13.200000	0.000000	0.000000	139.000000	54.000000	-20.000000	0.000000
1.660000	58.980000	13.300000	0.000000	0.000000	137.000000	54.000000	-12.000000	10.000000
1.670000	58.860000	13.370000	0.000000	0.000000	137.000000	54.000000	-12.000000	7.000000
1.680000	58.760000	13.420000	0.000000	0.000000	136.000000	55.000000	-10.000000	5.000000
1.690000	58.630000	13.470000	0.000000	0.000000	138.000000	55.000000	-13.000000	5.000000
1.700000	58.480000	13.470000	0.000000	0.000000	136.000000	56.000000	-15.000000	0.000000
1.710000	58.300000	13.470000	0.000000	0.000000	136.000000	56.000000	-18.000000	0.000000
1.720000	58.150000	13.470000	0.000000	0.000000	136.000000	56.000000	-15.000000	0.000000
1.730000	58.020000	13.470000	0.000000	0.000000	136.000000	56.000000	-13.000000	0.000000
1.740000	58.020000	13.470000	0.000000	0.000000	136.000000	56.000000	0.000000	0.000000
1.750000	58.020000	13.470000	0.000000	0.000000	136.000000	56.000000	0.000000	0.000000
1.760000	58.020000	13.470000	0.000000	0.000000	138.000000	55.000000	0.000000	0.000000
1.770000	58.020000	13.470000	0.000000	0.000000	136.000000	55.000000	0.000000	0.000000
1.780000	58.020000	13.470000	0.000000	0.000000	136.000000	55.000000	0.000000	0.000000
1.790000	58.020000	13.470000	0.000000	0.000000	137.000000	54.000000	0.000000	0.000000
1.800000	58.020000	13.470000	0.000000	0.000000	137.000000	54.000000	0.000000	0.000000
1.810000	58.020000	13.470000	0.000000	0.000000	137.000000	54.000000	0.000000	0.000000
1.820000	58.020000	13.470000	0.000000	0.000000	135.000000	54.000000	0.000000	0.000000
1.830000	58.020000	13.470000	0.000000	0.000000	135.000000	54.000000	0.000000	0.000000
1.840000	58.020000	13.470000	0.000000	0.000000	135.000000	54.000000	0.000000	0.000000
1.850000	57.910000	13.750000	0.000000	0.000000	135.000000	54.000000	-11.000000	28.000000
1.860000	57.910000	13.750000	0.000000	0.000000	135.000000	54.000000	0.000000	0.000000
1.870000	57.970000	13.830000	0.000000	0.000000	135.000000	54.000000	6.000000	8.000000
1.880000	57.970000	13.830000	0.000000	0.000000	135.000000	54.000000	0.000000	0.000000
1.890000	58.030000	13.830000	0.000000	0.000000	134.000000	55.000000	6.000000	0.000000
1.900000	58.030000	13.830000	0.000000	0.000000	134.000000	55.000000	0.000000	0.000000
1.910000	58.030000	13.880000	0.000000	0.000000	134.000000	55.000000	0.000000	5.000000
1.920000	58.030000	13.880000	0.000000	0.000000	134.000000	55.000000	0.000000	0.000000
1.930000	58.030000	13.880000	0.000000	0.000000	135.000000	55.000000	0.000000	0.000000
1.940000	58.030000	13.880000	0.000000	0.000000	135.000000	55.000000	0.000000	0.000000
1.950000	58.030000	13.880000	0.000000	0.000000	135.000000	55.000000	0.000000	0.000000
1.960000	58.030000	13.880000	0.000000	0.000000	135.000000	55.000000	0.000000	0.000000
1.970000	58.150000	14.180000	0.000000	0.000000	135.000000	55.000000	12.000000	30.000000
1.980000	58.200000	14.290000	0.000000	0.000000	135.000000	55.000000	5.000000	11.000000
1.990000	58.200000	14.410000	0.000000	0.000000	135.000000	55.000000	0.000000	12.000000
2.000000	58.250000	14.540000	0.000000	0.000000	136.000000	55.000000	5.000000	13.000000
2.010000	58.250000	14.620000	0.000000	0.000000	136.000000	55.000000	0.000000	8.000000
2.020000	58.310000	14.690000	0.000000	0.000000	136.000000	55.000000	6.000000	7.000000
2.030000	58.310000	14.760000	0.000000	0.000000	137.000000	54.000000	0.000000	7.000000
2.040000	58.370000	14.860000	0.000000	0.000000	137.000000	54.000000	6.000000	10.000000
2.050000	58.420000	14.930000	0.000000	0.000000	137.000000	54.000000	5.000000	7.000000
2.060000	58.510000	14.990000	0.000000	0.000000	137.000000	54.000000	9.000000	6.000000
2.070000	58.510000	14.990000	6.000000	0.000000	136.000000	55.000000	0.000000	0.000000
2.080000	58.510000	14.990000	83.000000	1.000000	136.000000	55.000000	0.000000	0.000000
2.090000	58.510000	14.990000	120.000000	0.000000	135.000000	55.000000	0.000000	0.000000
2.100000	58.510000	14.990000	186.000000	0.000000	135.000000	55.000000	0.000000	0.000000
2.110000	58.830000	14.840000	237.000000	0.000000	134.000000	56.000000	32.000000	-15.000000
2.120000	58.950000	14.730000	282.000000	0.000000	132.000000	57.000000	12.000000	-11.000000
2.130000	59.130000	14.630000	287.000000	0.000000	131.000000	57.000000	18.000000	-10.000000
2.140000	59.400000	14.630000	306.000000	0.000000	130.000000	56.000000	27.000000	0.000000
2.150000	59.750000	14.790000	309.000000	0.000000	128.000000	57.000000	35.000000	16.000000
2.160000	60.130000	15.030000	306.000000	0.000000	128.000000	57.000000	38.000000	24.000000
2.170000	60.400000	15.330000	299.000000	0.000000	128.000000	57.000000	27.000000	30.000000
2.180000	60.590000	15.630000	296.000000	0.000000	128.000000	57.000000	19.000000	30.000000
2.190000	60.660000	15.940000	287.000000	0.000000	130.000000	56.000000	7.000000	31.000000
2.200000	60.570000	16.250000	291.000000	0.000000	131.000000	56.000000	-9.000000	31.000000
2.210000	60.360000	16.540000	306.000000	0.000000	132.000000	55.000000	-21.000000	29.000000
2.220000	60.040000	16.720000	327.000000	0.000000	134.000000	55.000000	-32.000000	18.000000
2.230000	59.680000	16.620000	343.000000	0.000000	135.000000	54.000000	-36.000000	-10.000000
