t	x	y	pressure	penup	azimuth	inclination	v_x	v_y
0.000000	85.520000	29.450000	107.000000	1.000000	103.000000	58.000000	0.000000	0.000000
0.010000	86.140000	30.650000	180.000000	0.000000	105.000000	58.000000	62.000000	120.000000
0.020000	86.360000	31.160000	186.000000	0.000000	107.000000	59.000000	22.000000	51.000000
0.030000	86.500000	31.650000	249.000000	0.000000	109.000000	59.000000	14.000000	49.000000
0.040000	86.740000	32.120000	306.000000	0.000000	109.000000	59.000000	24.000000	47.000000
0.050000	86.860000	32.400000	440.000000	0.000000	111.000000	59.000000	12.000000	28.000000
0.060000	86.910000	32.400000	613.000000	0.000000	111.000000	59.000000	5.000000	0.000000
0.070000	86.830000	32.260000	745.000000	0.000000	111.000000	59.000000	-8.000000	-14.000000
0.080000	86.570000	31.640000	857.000000	0.000000	113.000000	59.000000	-26.000000	-62.000000
0.090000	86.200000	30.660000	962.000000	0.000000	112.000000	58.000000	-37.000000	-98.000000
0.100000	85.830000	29.450000	1009.000000	0.000000	112.000000	58.000000	-37.000000	-121.000000
0.110000	85.460000	28.150000	1023.000000	0.000000	110.000000	58.000000	-37.000000	-130.000000
0.120000	85.110000	26.980000	1023.000000	0.000000	110.000000	58.000000	-35.000000	-117.000000
0.130000	84.820000	25.900000	1023.000000	0.000000	110.000000	58.000000	-29.000000	-108.000000
0.140000	84.580000	25.420000	1023.000000	0.000000	109.000000	59.000000	-24.000000	-48.000000
0.150000	84.450000	24.920000	1023.000000	0.000000	109.000000	59.000000	-13.000000	-50.000000
0.160000	84.380000	24.730000	921.000000	0.000000	107.000000	59.000000	-7.000000	-19.000000
0.170000	84.380000	24.730000	724.000000	0.000000	105.000000	59.000000	0.000000	0.000000
0.180000	84.380000	24.940000	120.000000	0.000000	102.000000	59.000000	0.000000	21.000000
0.190000	84.380000	24.940000	0.000000	1.000000	100.000000	60.000000	0.000000	0.000000
0.200000	84.510000	26.510000	0.000000	0.000000	100.000000	60.000000	13.000000	157.000000
0.210000	84.580000	27.610000	0.000000	0.000000	99.000000	60.000000	7.000000	110.000000
0.220000	84.650000	28.370000	0.000000	0.000000	99.000000	60.000000	7.000000	76.000000
0.230000	84.820000	28.910000	0.000000	0.000000	99.000000	60.000000	17.000000	54.000000
0.240000	84.990000	29.330000	0.000000	0.000000	100.000000	60.000000	17.000000	42.000000
0.250000	85.160000	29.720000	0.000000	0.000000	102.000000	59.000000	17.000000	39.000000
0.260000	85.340000	30.040000	0.000000	0.000000	104.000000	59.000000	18.000000	32.000000
0.270000	85.530000	30.360000	0.000000	0.000000	106.000000	58.000000	19.000000	32.000000
0.280000	85.740000	30.630000	0.000000	0.000000	108.000000	58.000000	21.000000	27.000000
0.290000	85.970000	30.870000	0.000000	0.000000	110.000000	58.000000	23.000000	24.000000
0.300000	86.090000	31.040000	0.000000	0.000000	110.000000	58.000000	12.000000	17.000000
0.310000	86.140000	31.190000	0.000000	0.000000	112.000000	58.000000	5.000000	15.000000
0.320000	86.140000	31.280000	0.000000	0.000000	112.000000	58.000000	0.000000	9.000000
0.330000	86.140000	31.280000	0.000000	0.000000	113.000000	58.000000	0.000000	0.000000
0.340000	86.080000	31.400000	0.000000	0.000000	113.000000	58.000000	-6.000000	12.000000
0.350000	86.080000	31.510000	0.000000	0.000000	113.000000	58.000000	0.000000	11.000000
0.360000	86.080000	31.690000	0.000000	0.000000	115.000000	58.000000	0.000000	18.000000
0.370000	86.080000	31.690000	184.000000	1.000000	115.000000	58.000000	0.000000	0.000000
0.380000	86.650000	32.150000	436.000000	0.000000	115.000000	58.000000	57.000000	46.000000
0.390000	86.440000	32.420000	548.000000	0.000000	113.000000	58.000000	-21.000000	27.000000
0.400000	86.620000	32.700000	638.000000	0.000000	113.000000	58.000000	18.000000	28.000000
0.410000	87.070000	33.000000	710.000000	0.000000	114.000000	59.000000	45.000000	30.000000
0.420000	87.490000	33.090000	788.000000	0.000000	114.000000	59.000000	42.000000	9.000000
0.430000	87.880000	32.980000	860.000000	0.000000	114.000000	59.000000	39.000000	-11.000000
0.440000	88.160000	32.730000	941.000000	0.000000	114.000000	59.000000	28.000000	-25.000000
0.450000	88.370000	32.270000	992.000000	0.000000	114.000000	59.000000	21.000000	-46.000000
0.460000	88.310000	31.560000	1023.000000	0.000000	113.000000	59.000000	-6.000000	-71.000000
0.470000	87.950000	30.690000	1023.000000	0.000000	113.000000	59.000000	-36.000000	-87.000000
0.480000	87.380000	29.770000	1023.000000	0.000000	113.000000	59.000000	-57.000000	-92.000000
0.490000	86.750000	28.980000	1023.000000	0.000000	111.000000	59.000000	-63.000000	-79.000000
0.500000	86.180000	28.290000	1023.000000	0.000000	111.000000	59.000000	-57.000000	-69.000000
0.510000	85.740000	27.900000	1023.000000	0.000000	111.000000	59.000000	-44.000000	-39.000000
0.520000	85.600000	27.750000	1023.000000	0.000000	110.000000	58.000000	-14.000000	-15.000000
0.530000	85.660000	27.750000	1023.000000	0.000000	109.000000	59.000000	6.000000	0.000000
0.540000	85.800000	27.750000	1023.000000	0.000000	109.000000	59.000000	14.000000	0.000000
0.550000	85.970000	27.640000	1023.000000	0.000000	109.000000	59.000000	17.000000	-11.000000
0.560000	86.340000	27.540000	1023.000000	0.000000	109.000000	59.000000	37.000000	-10.000000
0.570000	86.820000	27.430000	1023.000000	0.000000	109.000000	59.000000	48.000000	-11.000000
0.580000	87.120000	27.360000	1023.000000	0.000000	109.000000	59.000000	30.000000	-7.000000
0.590000	87.430000	27.360000	1023.000000	0.000000	109.000000	59.000000	31.000000	0.000000
0.600000	87.660000	27.360000	890.000000	0.000000	109.000000	59.000000	23.000000	0.000000
0.610000	87.840000	27.360000	602.000000	0.000000	109.000000	59.000000	18.000000	0.000000
0.620000	87.840000	27.360000	0.000000	1.000000	109.000000	60.000000	0.000000	0.000000
0.630000	88.100000	27.360000	0.000000	0.000000	108.000000	60.000000	26.000000	0.000000
0.640000	88.100000	27.360000	0.000000	0.000000	108.000000	60.000000	0.000000	0.000000
0.650000	88.010000	27.290000	0.000000	0.000000	108.000000	60.000000	-9.000000	-7.000000
0.660000	87.950000	27.290000	0.000000	0.000000	108.000000	61.000000	-6.000000	0.000000
0.670000	88.110000	27.410000	0.000000	0.000000	108.000000	61.000000	16.000000	12.000000
0.680000	88.390000	27.490000	0.000000	0.000000	109.000000	62.000000	28.000000	8.000000
0.690000	88.750000	27.590000	0.000000	0.000000	109.000000	62.000000	36.000000	10.000000
0.700000	89.140000	27.750000	0.000000	0.000000	109.000000	62.000000	39.000000	16.000000
0.710000	89.570000	27.950000	0.000000	0.000000	112.000000	62.000000	43.000000	20.000000
0.720000	89.880000	28.100000	0.000000	0.000000	112.000000	62.000000	31.000000	15.000000
0.730000	89.880000	28.100000	492.000000	1.000000	114.000000	62.000000	0.000000	0.000000
0.740000	89.880000	28.100000	693.000000	0.000000	114.000000	62.000000	0.000000	0.000000
0.750000	89.880000	28.100000	763.000000	0.000000	113.000000	61.000000	0.000000	0.000000
0.760000	89.880000	28.100000	830.000000	0.000000	114.000000	61.000000	0.000000	0.000000
0.770000	90.190000	28.470000	843.000000	0.000000	113.000000	60.000000	31.000000	37.000000
0.780000	90.420000	28.680000	872.000000	0.000000	113.000000	60.000000	23.000000	21.000000
0.790000	90.700000	28.760000	878.000000	0.000000	114.000000	59.000000	28.000000	8.000000
0.800000	90.870000	28.820000	867.000000	0.000000	114.000000	59.000000	17.000000	6.000000
0.810000	90.980000	28.820000	827.000000	0.000000	114.000000	59.000000	11.000000	0.000000
0.820000	90.980000	28.820000	696.000000	0.000000	114.000000	59.000000	0.000000	0.000000
0.830000	91.040000	28.820000	545.000000	0.000000	114.000000	59.000000	6.000000	0.000000
0.840000	91.040000	28.710000	55.000000	0.000000	114.000000	59.000000	0.000000	-11.000000
0.850000	91.040000	28.710000	0.000000	1.000000	115.000000	60.000000	0.000000	0.000000
0.860000	91.110000	28.550000	0.000000	0.000000	115.000000	60.000000	7.000000	-16.000000
0.870000	91.110000	28.550000	0.000000	0.000000	115.000000	60.000000	0.000000	0.000000
0.880000	91.110000	28.550000	0.000000	0.000000	115.000000	60.000000	0.000000	0.000000
0.890000	91.650000	28.760000	0.000000	0.000000	113.000000	60.000000	54.000000	21.000000
0.900000	92.090000	28.890000	0.000000	0.000000	113.000000	60.000000	44.000000	13.000000
0.910000	92.540000	29.000000	0.000000	0.000000	113.000000	60.000000	45.000000	11.000000
0.920000	92.980000	29.090000	0.000000	0.000000	113.000000	59.000000	44.000000	9.000000
0.930000	93.250000	29.090000	0.000000	0.000000	113.000000	59.000000	27.000000	0.000000
0.940000	93.400000	29.090000	0.000000	0.000000	113.000000	59.000000	15.000000	0.000000
0.950000	93.400000	29.090000	363.000000	1.000000	113.000000	58.000000	0.000000	0.000000
0.960000	93.430000	28.320000	676.000000	0.000000	113.000000	58.000000	3.000000	-77.000000
0.970000	92.580000	27.740000	788.000000	0.000000	113.000000	58.000000	-85.000000	-58.000000
0.980000	92.150000	27.040000	866.000000	0.000000	113.000000	59.000000	-43.000000	-70.000000
0.990000	91.920000	26.270000	858.000000	0.000000	113.000000	59.000000	-23.000000	-77.000000
1.000000	91.830000	25.630000	882.000000	0.000000	111.000000	59.000000	-9.000000	-64.000000
1.010000	91.830000	25.240000	894.000000	0.000000	108.000000	60.000000	0.000000	-39.000000
1.020000	91.830000	25.010000	903.000000	0.000000	106.000000	60.000000	0.000000	-23.000000
1.030000	91.830000	25.060000	937.000000	0.000000	104.000000	60.000000	0.000000	5.000000
1.040000	91.830000	25.060000	941.000000	0.000000	102.000000	60.000000	0.000000	0.000000
1.050000	91.830000	25.130000	943.000000	0.000000	100.000000	60.000000	0.000000	7.000000
1.060000	91.830000	25.460000	944.000000	0.000000	100.000000	60.000000	0.000000	33.000000
1.070000	91.970000	25.960000	900.000000	0.000000	100.000000	60.000000	14.000000	50.000000
1.080000	92.290000	27.000000	897.000000	0.000000	100.000000	60.000000	32.000000	104.000000
1.090000	92.730000	28.080000	887.000000	0.000000	102.000000	59.000000	44.000000	108.000000
1.100000	93.340000	29.180000	900.000000	0.000000	104.000000	60.000000	61.000000	110.000000
1.110000	93.850000	29.740000	921.000000	0.000000	106.000000	60.000000	51.000000	56.000000
1.120000	94.300000	30.000000	929.000000	0.000000	108.000000	60.000000	45.000000	26.000000
1.130000	94.440000	30.060000	982.000000	0.000000	110.000000	60.000000	14.000000	6.000000
1.140000	94.440000	29.990000	1023.000000	0.000000	112.000000	60.000000	0.000000	-7.000000
1.150000	94.390000	29.630000	1023.000000	0.000000	113.000000	60.000000	-5.000000	-36.000000
1.160000	94.190000	29.090000	1023.000000	0.000000	115.000000	60.000000	-20.000000	-54.000000
1.170000	93.850000	28.370000	1009.000000	0.000000	115.000000	60.000000	-34.000000	-72.000000
1.180000	93.410000	27.910000	894.000000	0.000000	115.000000	60.000000	-44.000000	-46.000000
1.190000	93.240000	27.620000	728.000000	0.000000	115.000000	60.000000	-17.000000	-29.000000
1.200000	93.070000	27.440000	51.000000	0.000000	113.000000	60.000000	-17.000000	-18.000000
1.210000	93.070000	27.440000	0.000000	1.000000	113.000000	60.000000	0.000000	0.000000
1.220000	93.240000	27.860000	0.000000	0.000000	112.000000	60.000000	17.000000	42.000000
1.230000	93.380000	28.140000	0.000000	0.000000	112.000000	60.000000	14.000000	28.000000
1.240000	93.580000	28.400000	0.000000	0.000000	112.000000	60.000000	20.000000	26.000000
1.250000	93.910000	28.650000	0.000000	0.000000	111.000000	59.000000	33.000000	25.000000
1.260000	94.310000	28.850000	0.000000	0.000000	111.000000	59.000000	40.000000	20.000000
1.270000	94.770000	29.060000	0.000000	0.000000	111.000000	59.000000	46.000000	21.000000
1.280000	95.200000	29.260000	0.000000	0.000000	112.000000	58.000000	43.000000	20.000000
1.290000	95.600000	29.440000	0.000000	0.000000	112.000000	58.000000	40.000000	18.000000
1.300000	95.950000	29.560000	0.000000	0.000000	112.000000	58.000000	35.000000	12.000000
1.310000	96.120000	29.560000	0.000000	0.000000	112.000000	58.000000	17.000000	0.000000
1.320000	96.120000	29.460000	0.000000	0.000000	112.000000	58.000000	0.000000	-10.000000
1.330000	96.120000	29.210000	0.000000	0.000000	112.000000	58.000000	0.000000	-25.000000
1.340000	96.000000	28.920000	0.000000	0.000000	114.000000	59.000000	-12.000000	-29.000000
1.350000	95.890000	28.660000	0.000000	0.000000	114.000000	59.000000	-11.000000	-26.000000
1.360000	95.940000	28.540000	0.000000	0.000000	114.000000	59.000000	5.000000	-12.000000
1.370000	95.940000	28.540000	540.000000	1.000000	114.000000	59.000000	0.000000	0.000000
1.380000	95.940000	28.540000	755.000000	0.000000	114.000000	59.000000	0.000000	0.000000
1.390000	95.940000	28.540000	866.000000	0.000000	115.000000	60.000000	0.000000	0.000000
1.400000	96.010000	28.950000	947.000000	0.000000	115.000000	60.000000	7.000000	41.000000
1.410000	96.180000	29.300000	997.000000	0.000000	115.000000	60.000000	17.000000	35.000000
1.420000	96.360000	29.740000	1023.000000	0.000000	116.000000	60.000000	18.000000	44.000000
1.430000	96.530000	30.250000	1023.000000	0.000000	116.000000	60.000000	17.000000	51.000000
1.440000	96.650000	30.610000	1023.000000	0.000000	116.000000	60.000000	12.000000	36.000000
1.450000	96.750000	30.960000	1023.000000	0.000000	117.000000	61.000000	10.000000	35.000000
1.460000	96.880000	31.280000	988.000000	0.000000	119.000000	61.000000	13.000000	32.000000
1.470000	96.880000	31.410000	900.000000	0.000000	119.000000	61.000000	0.000000	13.000000
1.480000	96.880000	31.410000	669.000000	0.000000	119.000000	61.000000	0.000000	0.000000
1.490000	96.880000	31.410000	315.000000	0.000000	119.000000	61.000000	0.000000	0.000000
1.500000	96.880000	31.410000	0.000000	1.000000	119.000000	61.000000	0.000000	0.000000
1.510000	97.030000	31.120000	0.000000	0.000000	119.000000	61.000000	15.000000	-29.000000
1.520000	97.030000	30.980000	0.000000	0.000000	120.000000	60.000000	0.000000	-14.000000
1.530000	97.200000	30.870000	0.000000	0.000000	120.000000	60.000000	17.000000	-11.000000
1.540000	97.380000	30.720000	0.000000	0.000000	120.000000	60.000000	18.000000	-15.000000
1.550000	97.600000	30.570000	0.000000	0.000000	122.000000	60.000000	22.000000	-15.000000
1.560000	97.830000	30.420000	0.000000	0.000000	120.000000	60.000000	23.000000	-15.000000
1.570000	97.950000	30.290000	0.000000	0.000000	120.000000	60.000000	12.000000	-13.000000
1.580000	97.950000	30.190000	0.000000	0.000000	120.000000	60.000000	0.000000	-10.000000
1.590000	98.040000	30.110000	0.000000	0.000000	120.000000	60.000000	9.000000	-8.000000
1.600000	98.040000	30.040000	0.000000	0.000000	120.000000	60.000000	0.000000	-7.000000
1.610000	97.960000	29.940000	0.000000	0.000000	120.000000	60.000000	-8.000000	-10.000000
1.620000	97.870000	29.770000	0.000000	0.000000	120.000000	60.000000	-9.000000	-17.000000
1.630000	97.750000	29.560000	0.000000	0.000000	120.000000	60.000000	-12.000000	-21.000000
1.640000	97.600000	29.320000	0.000000	0.000000	120.000000	60.000000	-15.000000	-24.000000
1.650000	97.600000	29.320000	257.000000	1.000000	119.000000	61.000000	0.000000	0.000000
1.660000	97.420000	28.760000	529.000000	0.000000	119.000000	61.000000	-18.000000	-56.000000
1.670000	97.290000	28.670000	611.000000	0.000000	119.000000	61.000000	-13.000000	-9.000000
1.680000	97.290000	28.670000	664.000000	0.000000	119.000000	61.000000	0.000000	0.000000
1.690000	97.490000	28.760000	691.000000	0.000000	119.000000	61.000000	20.000000	9.000000
1.700000	97.830000	29.030000	733.000000	0.000000	119.000000	61.000000	34.000000	27.000000
1.710000	98.340000	29.420000	797.000000	0.000000	119.000000	61.000000	51.000000	39.000000
1.720000	98.960000	29.910000	861.000000	0.000000	119.000000	61.000000	62.000000	49.000000
1.730000	99.540000	30.400000	912.000000	0.000000	119.000000	61.000000	58.000000	49.000000
1.740000	99.930000	30.880000	924.000000	0.000000	120.000000	60.000000	39.000000	48.000000
1.750000	100.180000	31.390000	921.000000	0.000000	120.000000	60.000000	25.000000	51.000000
1.760000	100.320000	31.930000	914.000000	0.000000	120.000000	60.000000	14.000000	54.000000
1.770000	100.320000	32.180000	909.000000	0.000000	120.000000	60.000000	0.000000	25.000000
1.780000	100.220000	32.180000	873.000000	0.000000	121.000000	59.000000	-10.000000	0.000000
1.790000	99.930000	32.120000	863.000000	0.000000	121.000000	59.000000	-29.000000	-6.000000
1.800000	99.460000	31.630000	892.000000	0.000000	121.000000	59.000000	-47.000000	-49.000000
1.810000	98.860000	31.170000	906.000000	0.000000	121.000000	59.000000	-60.000000	-46.000000
1.820000	98.640000	30.730000	939.000000	0.000000	122.000000	60.000000	-22.000000	-44.000000
1.830000	98.590000	30.500000	941.000000	0.000000	122.000000	60.000000	-5.000000	-23.000000
1.840000	98.640000	30.250000	949.000000	0.000000	122.000000	60.000000	5.000000	-25.000000
1.850000	98.920000	29.970000	924.000000	0.000000	123.000000	61.000000	28.000000	-28.000000
1.860000	99.240000	29.890000	833.000000	0.000000	123.000000	61.000000	32.000000	-8.000000
1.870000	99.790000	29.890000	652.000000	0.000000	123.000000	61.000000	55.000000	0.000000
1.880000	100.480000	30.300000	110.000000	0.000000	123.000000	61.000000	69.000000	41.000000
1.890000	100.480000	30.300000	0.000000	1.000000	123.000000	61.000000	0.000000	0.000000
1.900000	101.330000	30.430000	0.000000	0.000000	123.000000	61.000000	85.000000	13.000000
1.910000	101.330000	30.670000	0.000000	0.000000	122.000000	60.000000	0.000000	24.000000
1.920000	101.250000	30.740000	0.000000	0.000000	122.000000	60.000000	-8.000000	7.000000
1.930000	101.170000	30.670000	0.000000	0.000000	122.000000	60.000000	-8.000000	-7.000000
1.940000	101.170000	30.670000	0.000000	0.000000	122.000000	60.000000	0.000000	0.000000
1.950000	101.220000	30.670000	0.000000	0.000000	122.000000	60.000000	5.000000	0.000000
1.960000	101.350000	30.670000	0.000000	0.000000	122.000000	60.000000	13.000000	0.000000
1.970000	101.550000	30.670000	0.000000	0.000000	122.000000	60.000000	20.000000	0.000000
1.980000	101.800000	30.740000	0.000000	0.000000	121.000000	59.000000	25.000000	7.000000
1.990000	101.970000	30.820000	0.000000	0.000000	121.000000	59.000000	17.000000	8.000000
2.000000	102.080000	30.930000	0.000000	0.000000	121.000000	58.000000	11.000000	11.000000
2.010000	102.180000	31.010000	0.000000	0.000000	121.000000	58.000000	10.000000	8.000000
2.020000	102.280000	31.070000	0.000000	0.000000	121.000000	58.000000	10.000000	6.000000
2.030000	102.380000	31.070000	0.000000	0.000000	120.000000	57.000000	10.000000	0.000000
2.040000	102.460000	31.120000	0.000000	0.000000	120.000000	57.000000	8.000000	5.000000
2.050000	102.540000	31.120000	0.000000	0.000000	123.000000	58.000000	8.000000	0.000000
2.060000	102.600000	31.210000	0.000000	0.000000	123.000000	58.000000	6.000000	9.000000
2.070000	102.660000	31.210000	0.000000	0.000000	123.000000	58.000000	6.000000	0.000000
2.080000	102.720000	31.270000	0.000000	0.000000	123.000000	58.000000	6.000000	6.000000
2.090000	102.820000	31.270000	0.000000	0.000000	123.000000	58.000000	10.000000	0.000000
2.100000	102.870000	31.270000	0.000000	0.000000	123.000000	58.000000	5.000000	0.000000
2.110000	102.870000	31.270000	0.000000	0.000000	123.000000	58.000000	0.000000	0.000000
2.120000	102.980000	31.270000	0.000000	0.000000	124.000000	58.000000	11.000000	0.000000
2.130000	103.040000	31.270000	0.000000	0.000000	124.000000	58.000000	6.000000	0.000000
2.140000	103.040000	31.210000	0.000000	0.000000	124.000000	58.000000	0.000000	-6.000000
2.150000	103.040000	31.210000	0.000000	0.000000	124.000000	58.000000	0.000000	0.000000
2.160000	102.980000	31.140000	0.000000	0.000000	124.000000	58.000000	-6.000000	-7.000000
2.170000	102.920000	31.140000	0.000000	0.000000	125.000000	59.000000	-6.000000	0.000000
2.180000	102.850000	31.090000	0.000000	0.000000	125.000000	59.000000	-7.000000	-5.000000
2.190000	102.720000	31.090000	0.000000	0.000000	125.000000	59.000000	-13.000000	0.000000
2.200000	102.580000	31.150000	0.000000	0.000000	125.000000	60.000000	-14.000000	6.000000
2.210000	102.470000	31.220000	0.000000	0.000000	125.000000	60.000000	-11.000000	7.000000
2.220000	102.470000	31.220000	115.000000	1.000000	125.000000	60.000000	0.000000	0.000000
