t	x	y	pressure	penup	azimuth	inclination	v_x	v_y
0.000000	13.570000	81.130000	99.000000	1.000000	134.000000	57.000000	0.000000	0.000000
0.010000	13.250000	80.120000	175.000000	0.000000	132.000000	57.000000	-32.000000	-101.000000
0.020000	13.120000	79.760000	277.000000	0.000000	130.000000	56.000000	-13.000000	-36.000000
0.030000	13.070000	79.450000	389.000000	0.000000	129.000000	56.000000	-5.000000	-31.000000
0.040000	13.070000	79.370000	433.000000	0.000000	127.000000	55.000000	0.000000	-8.000000
0.050000	13.150000	79.420000	496.000000	0.000000	125.000000	55.000000	8.000000	5.000000
0.060000	13.220000	79.570000	542.000000	0.000000	125.000000	55.000000	7.000000	15.000000
0.070000	13.490000	80.030000	578.000000	0.000000	124.000000	54.000000	27.000000	46.000000
0.080000	13.950000	80.800000	588.000000	0.000000	124.000000	54.000000	46.000000	77.000000
0.090000	14.530000	81.770000	611.000000	0.000000	125.000000	55.000000	58.000000	97.000000
0.100000	15.080000	82.710000	620.000000	0.000000	125.000000	55.000000	55.000000	94.000000
0.110000	15.500000	83.650000	620.000000	0.000000	126.000000	54.000000	42.000000	94.000000
0.120000	15.830000	84.580000	617.000000	0.000000	127.000000	55.000000	33.000000	93.000000
0.130000	16.120000	85.520000	620.000000	0.000000	129.000000	56.000000	29.000000	94.000000
0.140000	16.220000	85.890000	620.000000	0.000000	130.000000	56.000000	10.000000	37.000000
0.150000	16.220000	85.890000	608.000000	0.000000	131.000000	56.000000	0.000000	0.000000
0.160000	16.140000	85.690000	603.000000	0.000000	132.000000	57.000000	-8.000000	-20.000000
0.170000	15.950000	85.100000	603.000000	0.000000	132.000000	57.000000	-19.000000	-59.000000
0.180000	15.670000	84.210000	599.000000	0.000000	132.000000	57.000000	-28.000000	-89.000000
0.190000	15.530000	83.120000	586.000000	0.000000	132.000000	57.000000	-14.000000	-109.000000
0.200000	15.610000	82.610000	564.000000	0.000000	132.000000	57.000000	8.000000	-51.000000
0.210000	15.830000	82.340000	561.000000	0.000000	132.000000	57.000000	22.000000	-27.000000
0.220000	16.120000	82.230000	568.000000	0.000000	132.000000	57.000000	29.000000	-11.000000
0.230000	16.540000	82.410000	565.000000	0.000000	132.000000	57.000000	42.000000	18.000000
0.240000	17.050000	82.800000	569.000000	0.000000	132.000000	57.000000	51.000000	39.000000
0.250000	17.420000	83.330000	574.000000	0.000000	134.000000	56.000000	37.000000	53.000000
0.260000	17.620000	83.720000	591.000000	0.000000	134.000000	56.000000	20.000000	39.000000
0.270000	17.710000	84.110000	603.000000	0.000000	132.000000	55.000000	9.000000	39.000000
0.280000	17.710000	84.210000	608.000000	0.000000	132.000000	55.000000	0.000000	10.000000
0.290000	17.660000	84.110000	603.000000	0.000000	132.000000	55.000000	-5.000000	-10.000000
0.300000	17.660000	84.110000	605.000000	0.000000	132.000000	55.000000	0.000000	0.000000
0.310000	17.400000	83.400000	592.000000	0.000000	132.000000	55.000000	-26.000000	-71.000000
0.320000	17.220000	82.700000	592.000000	0.000000	132.000000	55.000000	-18.000000	-70.000000
0.330000	17.050000	82.080000	561.000000	0.000000	132.000000	55.000000	-17.000000	-62.000000
0.340000	16.960000	81.560000	507.000000	0.000000	132.000000	55.000000	-9.000000	-52.000000
0.350000	16.960000	81.120000	417.000000	0.000000	131.000000	56.000000	0.000000	-44.000000
0.360000	16.960000	80.890000	277.000000	0.000000	131.000000	56.000000	0.000000	-23.000000
0.370000	17.090000	80.810000	93.000000	0.000000	131.000000	56.000000	13.000000	-8.000000
0.380000	17.090000	80.810000	0.000000	1.000000	131.000000	56.000000	0.000000	0.000000
0.390000	17.340000	80.990000	0.000000	0.000000	131.000000	56.000000	25.000000	18.000000
0.400000	17.490000	81.180000	0.000000	0.000000	131.000000	56.000000	15.000000	19.000000
0.410000	17.650000	81.410000	0.000000	0.000000	131.000000	56.000000	16.000000	23.000000
0.420000	17.860000	81.640000	0.000000	0.000000	131.000000	56.000000	21.000000	23.000000
0.430000	18.090000	81.900000	0.000000	0.000000	131.000000	56.000000	23.000000	26.000000
0.440000	18.310000	82.170000	0.000000	0.000000	131.000000	56.000000	22.000000	27.000000
0.450000	18.510000	82.410000	0.000000	0.000000	132.000000	57.000000	20.000000	24.000000
0.460000	18.700000	82.630000	0.000000	0.000000	132.000000	57.000000	19.000000	22.000000
0.470000	18.850000	82.770000	0.000000	0.000000	132.000000	57.000000	15.000000	14.000000
0.480000	18.980000	82.840000	0.000000	0.000000	132.000000	57.000000	13.000000	7.000000
0.490000	18.980000	82.840000	0.000000	0.000000	132.000000	57.000000	0.000000	0.000000
0.500000	18.880000	82.840000	0.000000	0.000000	132.000000	57.000000	-10.000000	0.000000
0.510000	18.770000	82.710000	0.000000	0.000000	134.000000	56.000000	-11.000000	-13.000000
0.520000	18.540000	82.580000	0.000000	0.000000	134.000000	56.000000	-23.000000	-13.000000
0.530000	18.540000	82.580000	73.000000	1.000000	134.000000	56.000000	0.000000	0.000000
0.540000	18.080000	82.110000	148.000000	0.000000	134.000000	56.000000	-46.000000	-47.000000
0.550000	17.870000	81.720000	216.000000	0.000000	134.000000	56.000000	-21.000000	-39.000000
0.560000	17.680000	81.340000	262.000000	0.000000	134.000000	56.000000	-19.000000	-38.000000
0.570000	17.680000	81.090000	280.000000	0.000000	131.000000	56.000000	0.000000	-25.000000
0.580000	17.680000	80.940000	284.000000	0.000000	131.000000	56.000000	0.000000	-15.000000
0.590000	17.860000	80.940000	334.000000	0.000000	131.000000	56.000000	18.000000	0.000000
0.600000	18.110000	81.140000	367.000000	0.000000	131.000000	56.000000	25.000000	20.000000
0.610000	18.420000	81.440000	397.000000	0.000000	130.000000	55.000000	31.000000	30.000000
0.620000	18.640000	81.760000	439.000000	0.000000	130.000000	55.000000	22.000000	32.000000
0.630000	18.740000	82.050000	492.000000	0.000000	130.000000	55.000000	10.000000	29.000000
0.640000	18.740000	82.150000	527.000000	0.000000	130.000000	55.000000	0.000000	10.000000
0.650000	18.740000	82.150000	546.000000	0.000000	130.000000	55.000000	0.000000	0.000000
0.660000	18.650000	82.050000	553.000000	0.000000	130.000000	55.000000	-9.000000	-10.000000
0.670000	18.540000	81.820000	551.000000	0.000000	131.000000	55.000000	-11.000000	-23.000000
0.680000	18.540000	81.490000	533.000000	0.000000	131.000000	55.000000	0.000000	-33.000000
0.690000	18.480000	81.250000	501.000000	0.000000	131.000000	55.000000	-6.000000	-24.000000
0.700000	18.530000	81.110000	438.000000	0.000000	131.000000	55.000000	5.000000	-14.000000
0.710000	18.690000	81.040000	317.000000	0.000000	131.000000	55.000000	16.000000	-7.000000
0.720000	18.900000	81.040000	131.000000	0.000000	131.000000	55.000000	21.000000	0.000000
0.730000	18.900000	81.040000	0.000000	1.000000	131.000000	55.000000	0.000000	0.000000
0.740000	19.350000	81.460000	0.000000	0.000000	131.000000	55.000000	45.000000	42.000000
0.750000	19.500000	81.700000	0.000000	0.000000	131.000000	55.000000	15.000000	24.000000
0.760000	19.610000	81.920000	0.000000	0.000000	131.000000	55.000000	11.000000	22.000000
0.770000	19.680000	82.220000	0.000000	0.000000	131.000000	55.000000	7.000000	30.000000
0.780000	19.770000	82.590000	0.000000	0.000000	132.000000	55.000000	9.000000	37.000000
0.790000	19.920000	83.070000	0.000000	0.000000	132.000000	55.000000	15.000000	48.000000
0.800000	20.060000	83.670000	0.000000	0.000000	132.000000	55.000000	14.000000	60.000000
0.810000	20.220000	84.340000	0.000000	0.000000	132.000000	55.000000	16.000000	67.000000
0.820000	20.370000	85.050000	0.000000	0.000000	132.000000	55.000000	15.000000	71.000000
0.830000	20.370000	85.050000	193.000000	1.000000	132.000000	55.000000	0.000000	0.000000
0.840000	20.540000	85.340000	277.000000	0.000000	132.000000	55.000000	17.000000	29.000000
0.850000	20.310000	85.010000	353.000000	0.000000	132.000000	55.000000	-23.000000	-33.000000
0.860000	20.200000	84.450000	431.000000	0.000000	132.000000	55.000000	-11.000000	-56.000000
0.870000	20.050000	83.750000	468.000000	0.000000	132.000000	55.000000	-15.000000	-70.000000
0.880000	19.880000	83.120000	475.000000	0.000000	132.000000	55.000000	-17.000000	-63.000000
0.890000	19.800000	82.580000	471.000000	0.000000	132.000000	55.000000	-8.000000	-54.000000
0.900000	19.730000	82.090000	423.000000	0.000000	132.000000	55.000000	-7.000000	-49.000000
0.910000	19.730000	81.760000	343.000000	0.000000	132.000000	55.000000	0.000000	-33.000000
0.920000	19.730000	81.550000	203.000000	0.000000	132.000000	55.000000	0.000000	-21.000000
0.930000	19.730000	81.430000	13.000000	1.000000	132.000000	55.000000	0.000000	0.000000
0.940000	19.730000	81.430000	0.000000	0.000000	132.000000	55.000000	0.000000	0.000000
0.950000	19.730000	81.380000	0.000000	0.000000	132.000000	55.000000	0.000000	-5.000000
0.960000	19.730000	81.430000	0.000000	0.000000	132.000000	55.000000	0.000000	5.000000
0.970000	19.800000	81.580000	0.000000	0.000000	132.000000	55.000000	7.000000	15.000000
0.980000	19.800000	81.720000	0.000000	0.000000	132.000000	55.000000	0.000000	14.000000
0.990000	19.800000	81.940000	0.000000	0.000000	132.000000	55.000000	0.000000	22.000000
1.000000	19.730000	82.220000	0.000000	0.000000	132.000000	55.000000	-7.000000	28.000000
1.010000	19.630000	82.570000	0.000000	0.000000	132.000000	55.000000	-10.000000	35.000000
1.020000	19.520000	82.920000	0.000000	0.000000	132.000000	55.000000	-11.000000	35.000000
1.030000	19.360000	83.040000	0.000000	0.000000	132.000000	55.000000	-16.000000	12.000000
1.040000	19.190000	83.040000	0.000000	0.000000	132.000000	55.000000	-17.000000	0.000000
1.050000	19.190000	83.040000	56.000000	1.000000	132.000000	55.000000	0.000000	0.000000
1.060000	18.930000	82.710000	211.000000	0.000000	132.000000	55.000000	-26.000000	-33.000000
1.070000	18.930000	82.710000	309.000000	0.000000	132.000000	55.000000	0.000000	0.000000
1.080000	18.930000	82.650000	373.000000	0.000000	132.000000	55.000000	0.000000	-6.000000
1.090000	19.200000	82.650000	394.000000	0.000000	134.000000	56.000000	27.000000	0.000000
1.100000	19.540000	82.740000	391.000000	0.000000	134.000000	56.000000	34.000000	9.000000
1.110000	19.930000	82.870000	306.000000	0.000000	134.000000	56.000000	39.000000	13.000000
1.120000	20.310000	82.980000	101.000000	0.000000	134.000000	56.000000	38.000000	11.000000
1.130000	20.310000	82.980000	0.000000	1.000000	134.000000	56.000000	0.000000	0.000000
1.140000	20.960000	83.190000	0.000000	0.000000	134.000000	56.000000	65.000000	21.000000
1.150000	21.190000	83.260000	0.000000	0.000000	134.000000	56.000000	23.000000	7.000000
1.160000	21.300000	83.260000	0.000000	0.000000	135.000000	55.000000	11.000000	0.000000
1.170000	21.420000	83.180000	0.000000	0.000000	135.000000	55.000000	12.000000	-8.000000
1.180000	21.580000	83.130000	0.000000	0.000000	135.000000	55.000000	16.000000	-5.000000
1.190000	21.700000	83.130000	0.000000	0.000000	135.000000	55.000000	12.000000	0.000000
1.200000	21.810000	83.080000	0.000000	0.000000	134.000000	55.000000	11.000000	-5.000000
1.210000	21.870000	83.080000	0.000000	0.000000	134.000000	55.000000	6.000000	0.000000
1.220000	21.870000	83.080000	0.000000	0.000000	134.000000	55.000000	0.000000	0.000000
1.230000	21.870000	83.080000	0.000000	0.000000	134.000000	55.000000	0.000000	0.000000
1.240000	21.820000	83.080000	0.000000	0.000000	134.000000	55.000000	-5.000000	0.000000
1.250000	21.750000	83.010000	0.000000	0.000000	133.000000	54.000000	-7.000000	-7.000000
1.260000	21.660000	82.930000	0.000000	0.000000	134.000000	55.000000	-9.000000	-8.000000
1.270000	21.660000	82.930000	171.000000	1.000000	134.000000	55.000000	0.000000	0.000000
1.280000	21.420000	82.580000	285.000000	0.000000	134.000000	55.000000	-24.000000	-35.000000
1.290000	21.270000	82.320000	327.000000	0.000000	134.000000	55.000000	-15.000000	-26.000000
1.300000	21.270000	82.050000	339.000000	0.000000	135.000000	55.000000	0.000000	-27.000000
1.310000	21.190000	81.760000	334.000000	0.000000	135.000000	55.000000	-8.000000	-29.000000
1.320000	21.190000	81.540000	269.000000	0.000000	135.000000	55.000000	0.000000	-22.000000
1.330000	21.190000	81.350000	55.000000	0.000000	135.000000	55.000000	0.000000	-19.000000
1.340000	21.190000	81.350000	0.000000	1.000000	135.000000	55.000000	0.000000	0.000000
1.350000	21.330000	81.180000	0.000000	0.000000	134.000000	56.000000	14.000000	-17.000000
1.360000	21.330000	81.180000	0.000000	0.000000	134.000000	56.000000	0.000000	0.000000
1.370000	21.460000	81.360000	0.000000	0.000000	134.000000	56.000000	13.000000	18.000000
1.380000	21.550000	81.560000	0.000000	0.000000	134.000000	56.000000	9.000000	20.000000
1.390000	21.620000	81.800000	0.000000	0.000000	134.000000	56.000000	7.000000	24.000000
1.400000	21.720000	82.050000	0.000000	0.000000	132.000000	55.000000	10.000000	25.000000
1.410000	21.820000	82.300000	0.000000	0.000000	132.000000	55.000000	10.000000	25.000000
1.420000	21.910000	82.550000	0.000000	0.000000	132.000000	55.000000	9.000000	25.000000
1.430000	21.970000	82.800000	0.000000	0.000000	132.000000	55.000000	6.000000	25.000000
1.440000	22.020000	83.020000	0.000000	0.000000	131.000000	55.000000	5.000000	22.000000
1.450000	22.020000	83.210000	0.000000	0.000000	133.000000	54.000000	0.000000	19.000000
1.460000	21.940000	83.400000	0.000000	0.000000	133.000000	54.000000	-8.000000	19.000000
1.470000	21.830000	83.580000	0.000000	0.000000	133.000000	54.000000	-11.000000	18.000000
1.480000	21.770000	83.780000	0.000000	0.000000	133.000000	54.000000	-6.000000	20.000000
1.490000	21.710000	83.990000	0.000000	0.000000	133.000000	54.000000	-6.000000	21.000000
1.500000	21.710000	84.140000	0.000000	0.000000	134.000000	54.000000	0.000000	15.000000
1.510000	21.710000	84.290000	0.000000	0.000000	134.000000	54.000000	0.000000	15.000000
1.520000	21.650000	84.410000	0.000000	0.000000	134.000000	54.000000	-6.000000	12.000000
1.530000	21.520000	84.490000	0.000000	0.000000	134.000000	54.000000	-13.000000	8.000000
1.540000	21.520000	84.490000	254.000000	1.000000	135.000000	54.000000	0.000000	0.000000
1.550000	21.260000	84.440000	334.000000	0.000000	134.000000	55.000000	-26.000000	-5.000000
1.560000	21.060000	84.440000	335.000000	0.000000	134.000000	55.000000	-20.000000	0.000000
1.570000	21.060000	84.510000	311.000000	0.000000	135.000000	55.000000	0.000000	7.000000
1.580000	21.120000	84.510000	151.000000	0.000000	135.000000	55.000000	6.000000	0.000000
1.590000	21.120000	84.510000	0.000000	1.000000	135.000000	55.000000	0.000000	0.000000
1.600000	21.310000	84.590000	0.000000	0.000000	135.000000	55.000000	19.000000	8.000000
1.610000	21.460000	84.710000	0.000000	0.000000	135.000000	55.000000	15.000000	12.000000
1.620000	21.590000	84.710000	0.000000	0.000000	135.000000	55.000000	13.000000	0.000000
1.630000	21.710000	84.510000	0.000000	0.000000	135.000000	55.000000	12.000000	-20.000000
1.640000	21.870000	84.260000	0.000000	0.000000	135.000000	55.000000	16.000000	-25.000000
1.650000	21.970000	83.990000	0.000000	0.000000	135.000000	55.000000	10.000000	-27.000000
1.660000	22.020000	83.710000	0.000000	0.000000	134.000000	55.000000	5.000000	-28.000000
1.670000	22.020000	83.400000	0.000000	0.000000	134.000000	55.000000	0.000000	-31.000000
1.680000	21.930000	83.060000	0.000000	0.000000	134.000000	54.000000	-9.000000	-34.000000
1.690000	21.850000	82.740000	0.000000	0.000000	134.000000	54.000000	-8.000000	-32.000000
1.700000	21.850000	82.440000	0.000000	0.000000	134.000000	54.000000	0.000000	-30.000000
1.710000	21.850000	82.130000	0.000000	0.000000	134.000000	54.000000	0.000000	-31.000000
1.720000	21.850000	82.130000	88.000000	1.000000	134.000000	54.000000	0.000000	0.000000
1.730000	21.850000	82.130000	107.000000	0.000000	133.000000	54.000000	0.000000	0.000000
1.740000	21.850000	82.130000	132.000000	0.000000	134.000000	55.000000	0.000000	0.000000
1.750000	22.230000	82.130000	160.000000	0.000000	134.000000	55.000000	38.000000	0.000000
1.760000	22.540000	82.460000	168.000000	0.000000	134.000000	55.000000	31.000000	33.000000
1.770000	22.840000	82.870000	160.000000	0.000000	135.000000	55.000000	30.000000	41.000000
1.780000	23.110000	83.320000	136.000000	0.000000	135.000000	55.000000	27.000000	45.000000
1.790000	23.200000	83.800000	115.000000	0.000000	136.000000	56.000000	9.000000	48.000000
1.800000	23.200000	84.260000	61.000000	0.000000	136.000000	56.000000	0.000000	46.000000
1.810000	23.060000	84.730000	65.000000	0.000000	136.000000	56.000000	-14.000000	47.000000
1.820000	22.870000	84.940000	117.000000	0.000000	136.000000	56.000000	-19.000000	21.000000
1.830000	22.620000	84.940000	170.000000	0.000000	136.000000	56.000000	-25.000000	0.000000
1.840000	22.340000	84.660000	247.000000	0.000000	136.000000	56.000000	-28.000000	-28.000000
1.850000	22.090000	84.150000	259.000000	0.000000	136.000000	56.000000	-25.000000	-51.000000
1.860000	21.890000	83.500000	281.000000	0.000000	136.000000	56.000000	-20.000000	-65.000000
1.870000	21.830000	82.840000	306.000000	0.000000	136.000000	56.000000	-6.000000	-66.000000
1.880000	21.830000	82.310000	302.000000	0.000000	136.000000	56.000000	0.000000	-53.000000
1.890000	22.050000	81.870000	289.000000	0.000000	136.000000	56.000000	22.000000	-44.000000
1.900000	22.290000	81.610000	281.000000	0.000000	136.000000	56.000000	24.000000	-26.000000
1.910000	22.520000	81.510000	284.000000	0.000000	136.000000	56.000000	23.000000	-10.000000
1.920000	22.720000	81.510000	289.000000	0.000000	135.000000	55.000000	20.000000	0.000000
1.930000	22.950000	81.510000	299.000000	0.000000	135.000000	55.000000	23.000000	0.000000
1.940000	23.170000	81.670000	307.000000	0.000000	136.000000	55.000000	22.000000	16.000000
1.950000	23.380000	81.880000	342.000000	0.000000	136.000000	55.000000	21.000000	21.000000
1.960000	23.510000	82.030000	391.000000	0.000000	136.000000	55.000000	13.000000	15.000000
1.970000	23.580000	82.170000	441.000000	0.000000	136.000000	55.000000	7.000000	14.000000
1.980000	23.580000	82.260000	483.000000	0.000000	136.000000	55.000000	0.000000	9.000000
1.990000	23.580000	82.260000	496.000000	0.000000	136.000000	55.000000	0.000000	0.000000
2.000000	23.500000	82.320000	491.000000	0.000000	138.000000	55.000000	-8.000000	6.000000
2.010000	23.380000	82.270000	496.000000	0.000000	138.000000	55.000000	-12.000000	-5.000000
2.020000	23.140000	82.170000	473.000000	0.000000	138.000000	55.000000	-24.000000	-10.000000
2.030000	22.950000	82.030000	394.000000	0.000000	138.000000	55.000000	-19.000000	-14.000000
2.040000	22.850000	81.940000	212.000000	0.000000	138.000000	55.000000	-10.000000	-9.000000
2.050000	22.850000	81.880000	12.000000	1.000000	138.000000	55.000000	0.000000	0.000000
2.060000	22.850000	81.880000	0.000000	0.000000	138.000000	55.000000	0.000000	0.000000
2.070000	23.050000	81.740000	0.000000	0.000000	138.000000	55.000000	20.000000	-14.000000
2.080000	23.190000	81.740000	0.000000	0.000000	138.000000	55.000000	14.000000	0.000000
2.090000	23.350000	81.800000	0.000000	0.000000	138.000000	55.000000	16.000000	6.000000
2.100000	23.560000	81.950000	0.000000	0.000000	136.000000	56.000000	21.000000	15.000000
2.110000	23.760000	82.150000	0.000000	0.000000	136.000000	56.000000	20.000000	20.000000
2.120000	23.920000	82.470000	0.000000	0.000000	136.000000	56.000000	16.000000	32.000000
2.130000	24.070000	82.860000	0.000000	0.000000	135.000000	55.000000	15.000000	39.000000
2.140000	24.160000	83.290000	0.000000	0.000000	135.000000	55.000000	9.000000	43.000000
2.150000	24.240000	83.750000	0.000000	0.000000	135.000000	55.000000	8.000000	46.000000
2.160000	24.240000	84.260000	0.000000	0.000000	135.000000	55.000000	0.000000	51.000000
2.170000	24.180000	84.800000	0.000000	0.000000	135.000000	55.000000	-6.000000	54.000000
2.180000	24.180000	84.800000	196.000000	1.000000	135.000000	55.000000	0.000000	0.000000
2.190000	24.000000	85.110000	269.000000	0.000000	135.000000	55.000000	-18.000000	31.000000
2.200000	23.850000	84.870000	340.000000	0.000000	136.000000	56.000000	-15.000000	-24.000000
2.210000	23.710000	84.220000	417.000000	0.000000	136.000000	56.000000	-14.000000	-65.000000
2.220000	23.610000	83.520000	449.000000	0.000000	136.000000	56.000000	-10.000000	-70.000000
2.230000	23.560000	82.820000	472.000000	0.000000	136.000000	56.000000	-5.000000	-70.000000
