t	x	y	pressure	penup	azimuth	inclination	v_x	v_y
0.000000	49.080000	24.570000	119.000000	1.000000	112.000000	62.000000	0.000000	0.000000
0.010000	49.080000	24.570000	180.000000	0.000000	113.000000	63.000000	0.000000	0.000000
0.020000	49.080000	24.570000	270.000000	0.000000	113.000000	63.000000	0.000000	0.000000
0.030000	49.080000	24.570000	343.000000	0.000000	111.000000	64.000000	0.000000	0.000000
0.040000	49.080000	24.570000	422.000000	0.000000	110.000000	63.000000	0.000000	0.000000
0.050000	49.080000	24.570000	507.000000	0.000000	110.000000	63.000000	0.000000	0.000000
0.060000	49.080000	24.570000	594.000000	0.000000	109.000000	62.000000	0.000000	0.000000
0.070000	49.080000	24.570000	652.000000	0.000000	109.000000	62.000000	0.000000	0.000000
0.080000	49.080000	24.570000	710.000000	0.000000	107.000000	62.000000	0.000000	0.000000
0.090000	49.080000	24.570000	725.000000	0.000000	107.000000	61.000000	0.000000	0.000000
0.100000	49.100000	25.110000	740.000000	0.000000	107.000000	61.000000	2.000000	54.000000
0.110000	49.160000	25.630000	753.000000	0.000000	107.000000	61.000000	6.000000	52.000000
0.120000	49.280000	26.270000	762.000000	0.000000	106.000000	60.000000	12.000000	64.000000
0.130000	49.400000	27.220000	763.000000	0.000000	108.000000	60.000000	12.000000	95.000000
0.140000	49.550000	28.380000	759.000000	0.000000	108.000000	60.000000	15.000000	116.000000
0.150000	49.700000	29.570000	750.000000	0.000000	109.000000	60.000000	15.000000	119.000000
0.160000	49.810000	30.700000	758.000000	0.000000	111.000000	59.000000	11.000000	113.000000
0.170000	49.890000	31.790000	758.000000	0.000000	114.000000	59.000000	8.000000	109.000000
0.180000	50.040000	32.570000	750.000000	0.000000	116.000000	58.000000	15.000000	78.000000
0.190000	50.170000	32.950000	757.000000	0.000000	117.000000	58.000000	13.000000	38.000000
0.200000	50.170000	33.070000	757.000000	0.000000	118.000000	57.000000	0.000000	12.000000
0.210000	50.170000	33.010000	753.000000	0.000000	119.000000	56.000000	0.000000	-6.000000
0.220000	50.170000	32.930000	763.000000	0.000000	119.000000	56.000000	0.000000	-8.000000
0.230000	50.170000	32.630000	759.000000	0.000000	121.000000	56.000000	0.000000	-30.000000
0.240000	50.310000	32.200000	760.000000	0.000000	122.000000	57.000000	14.000000	-43.000000
0.250000	50.470000	31.610000	762.000000	0.000000	122.000000	57.000000	16.000000	-59.000000
0.260000	50.570000	31.010000	759.000000	0.000000	123.000000	56.000000	10.000000	-60.000000
0.270000	50.640000	30.440000	759.000000	0.000000	123.000000	56.000000	7.000000	-57.000000
0.280000	50.720000	29.890000	759.000000	0.000000	123.000000	56.000000	8.000000	-55.000000
0.290000	50.720000	29.390000	762.000000	0.000000	124.000000	57.000000	0.000000	-50.000000
0.300000	50.780000	28.880000	768.000000	0.000000	123.000000	58.000000	6.000000	-51.000000
0.310000	50.870000	28.480000	767.000000	0.000000	123.000000	58.000000	9.000000	-40.000000
0.320000	50.970000	28.150000	770.000000	0.000000	123.000000	58.000000	10.000000	-33.000000
0.330000	51.080000	27.980000	770.000000	0.000000	121.000000	58.000000	11.000000	-17.000000
0.340000	51.190000	27.900000	770.000000	0.000000	121.000000	58.000000	11.000000	-8.000000
0.350000	51.300000	27.900000	771.000000	0.000000	121.000000	58.000000	11.000000	0.000000
0.360000	51.360000	27.900000	773.000000	0.000000	120.000000	58.000000	6.000000	0.000000
0.370000	51.360000	27.900000	771.000000	0.000000	120.000000	58.000000	0.000000	0.000000
0.380000	51.440000	27.850000	771.000000	0.000000	120.000000	58.000000	8.000000	-5.000000
0.390000	51.440000	27.850000	773.000000	0.000000	120.000000	58.000000	0.000000	0.000000
0.400000	51.440000	27.850000	774.000000	0.000000	120.000000	58.000000	0.000000	0.000000
0.410000	51.490000	27.850000	771.000000	0.000000	120.000000	58.000000	5.000000	0.000000
0.420000	51.490000	27.850000	774.000000	0.000000	120.000000	58.000000	0.000000	0.000000
0.430000	51.490000	27.850000	773.000000	0.000000	120.000000	58.000000	0.000000	0.000000
0.440000	51.490000	27.850000	776.000000	0.000000	120.000000	58.000000	0.000000	0.000000
0.450000	51.560000	27.900000	773.000000	0.000000	120.000000	58.000000	7.000000	5.000000
0.460000	51.560000	27.900000	770.000000	0.000000	120.000000	58.000000	0.000000	0.000000
0.470000	51.560000	27.900000	768.000000	0.000000	120.000000	58.000000	0.000000	0.000000
0.480000	51.560000	27.900000	767.000000	0.000000	120.000000	58.000000	0.000000	0.000000
0.490000	51.560000	27.900000	771.000000	0.000000	120.000000	58.000000	0.000000	0.000000
0.500000	51.700000	27.900000	771.000000	0.000000	120.000000	58.000000	14.000000	0.000000
0.510000	51.850000	27.850000	773.000000	0.000000	120.000000	58.000000	15.000000	-5.000000
0.520000	52.000000	27.850000	768.000000	0.000000	120.000000	58.000000	15.000000	0.000000
0.530000	52.110000	27.850000	768.000000	0.000000	118.000000	59.000000	11.000000	0.000000
0.540000	52.200000	27.850000	768.000000	0.000000	119.000000	60.000000	9.000000	0.000000
0.550000	52.350000	27.850000	768.000000	0.000000	119.000000	60.000000	15.000000	0.000000
0.560000	52.480000	27.850000	765.000000	0.000000	119.000000	60.000000	13.000000	0.000000
0.570000	52.580000	27.850000	768.000000	0.000000	119.000000	60.000000	10.000000	0.000000
0.580000	52.650000	27.970000	768.000000	0.000000	119.000000	60.000000	7.000000	12.000000
0.590000	52.800000	28.190000	768.000000	0.000000	119.000000	60.000000	15.000000	22.000000
0.600000	52.980000	28.470000	771.000000	0.000000	120.000000	60.000000	18.000000	28.000000
0.610000	53.210000	28.840000	770.000000	0.000000	122.000000	60.000000	23.000000	37.000000
0.620000	53.440000	29.220000	770.000000	0.000000	122.000000	60.000000	23.000000	38.000000
0.630000	53.600000	29.600000	767.000000	0.000000	122.000000	60.000000	16.000000	38.000000
0.640000	53.720000	30.010000	760.000000	0.000000	122.000000	60.000000	12.000000	41.000000
0.650000	53.880000	30.480000	736.000000	0.000000	122.000000	60.000000	16.000000	47.000000
0.660000	53.970000	30.990000	730.000000	0.000000	124.000000	60.000000	9.000000	51.000000
0.670000	53.970000	31.570000	703.000000	0.000000	124.000000	60.000000	0.000000	58.000000
0.680000	54.120000	32.110000	690.000000	0.000000	124.000000	60.000000	15.000000	54.000000
0.690000	54.170000	32.330000	697.000000	0.000000	125.000000	59.000000	5.000000	22.000000
0.700000	54.170000	32.330000	702.000000	0.000000	125.000000	59.000000	0.000000	0.000000
0.710000	54.170000	32.200000	702.000000	0.000000	125.000000	59.000000	0.000000	-13.000000
0.720000	53.930000	31.990000	691.000000	0.000000	125.000000	59.000000	-24.000000	-21.000000
0.730000	53.640000	31.640000	690.000000	0.000000	125.000000	59.000000	-29.000000	-35.000000
0.740000	53.380000	31.220000	700.000000	0.000000	127.000000	59.000000	-26.000000	-42.000000
0.750000	53.150000	30.940000	690.000000	0.000000	127.000000	59.000000	-23.000000	-28.000000
0.760000	53.010000	30.650000	693.000000	0.000000	127.000000	59.000000	-14.000000	-29.000000
0.770000	52.950000	30.350000	693.000000	0.000000	127.000000	59.000000	-6.000000	-30.000000
0.780000	52.890000	29.920000	696.000000	0.000000	125.000000	59.000000	-6.000000	-43.000000
0.790000	52.810000	29.480000	697.000000	0.000000	125.000000	59.000000	-8.000000	-44.000000
0.800000	52.760000	29.020000	700.000000	0.000000	125.000000	59.000000	-5.000000	-46.000000
0.810000	52.690000	28.590000	708.000000	0.000000	125.000000	59.000000	-7.000000	-43.000000
0.820000	52.690000	28.240000	696.000000	0.000000	124.000000	60.000000	0.000000	-35.000000
0.830000	52.790000	27.940000	699.000000	0.000000	124.000000	60.000000	10.000000	-30.000000
0.840000	52.840000	27.700000	702.000000	0.000000	124.000000	60.000000	5.000000	-24.000000
0.850000	52.910000	27.410000	713.000000	0.000000	122.000000	60.000000	7.000000	-29.000000
0.860000	53.000000	27.080000	716.000000	0.000000	120.000000	60.000000	9.000000	-33.000000
0.870000	53.000000	26.780000	724.000000	0.000000	120.000000	60.000000	0.000000	-30.000000
0.880000	53.000000	26.530000	727.000000	0.000000	119.000000	61.000000	0.000000	-25.000000
0.890000	53.000000	26.320000	728.000000	0.000000	118.000000	62.000000	0.000000	-21.000000
0.900000	53.070000	26.140000	724.000000	0.000000	116.000000	63.000000	7.000000	-18.000000
0.910000	53.070000	26.140000	721.000000	0.000000	115.000000	63.000000	0.000000	0.000000
0.920000	53.150000	26.140000	727.000000	0.000000	115.000000	63.000000	8.000000	0.000000
0.930000	53.220000	26.080000	733.000000	0.000000	113.000000	63.000000	7.000000	-6.000000
0.940000	53.300000	26.030000	721.000000	0.000000	113.000000	63.000000	8.000000	-5.000000
0.950000	53.400000	25.960000	722.000000	0.000000	111.000000	64.000000	10.000000	-7.000000
0.960000	53.450000	25.860000	720.000000	0.000000	111.000000	64.000000	5.000000	-10.000000
0.970000	53.450000	25.760000	721.000000	0.000000	111.000000	64.000000	0.000000	-10.000000
0.980000	53.500000	25.670000	722.000000	0.000000	111.000000	64.000000	5.000000	-9.000000
0.990000	53.500000	25.560000	721.000000	0.000000	109.000000	64.000000	0.000000	-11.000000
1.000000	53.600000	25.440000	724.000000	0.000000	109.000000	64.000000	10.000000	-12.000000
1.010000	53.660000	25.360000	725.000000	0.000000	109.000000	64.000000	6.000000	-8.000000
1.020000	53.750000	25.280000	725.000000	0.000000	109.000000	64.000000	9.000000	-8.000000
1.030000	53.810000	25.210000	727.000000	0.000000	109.000000	64.000000	6.000000	-7.000000
1.040000	53.860000	25.130000	727.000000	0.000000	109.000000	64.000000	5.000000	-8.000000
1.050000	53.860000	25.050000	725.000000	0.000000	109.000000	64.000000	0.000000	-8.000000
1.060000	53.860000	25.000000	722.000000	0.000000	109.000000	64.000000	0.000000	-5.000000
1.070000	53.930000	25.000000	722.000000	0.000000	110.000000	65.000000	7.000000	0.000000
1.080000	53.980000	25.000000	720.000000	0.000000	110.000000	65.000000	5.000000	0.000000
1.090000	54.070000	25.000000	720.000000	0.000000	110.000000	65.000000	9.000000	0.000000
1.100000	54.210000	25.000000	722.000000	0.000000	110.000000	65.000000	14.000000	0.000000
1.110000	54.380000	25.150000	721.000000	0.000000	110.000000	65.000000	17.000000	15.000000
1.120000	54.530000	25.260000	721.000000	0.000000	110.000000	65.000000	15.000000	11.000000
1.130000	54.690000	25.350000	720.000000	0.000000	110.000000	65.000000	16.000000	9.000000
1.140000	54.840000	25.460000	720.000000	0.000000	110.000000	65.000000	15.000000	11.000000
1.150000	54.930000	25.520000	720.000000	0.000000	110.000000	65.000000	9.000000	6.000000
1.160000	55.050000	25.590000	733.000000	0.000000	110.000000	65.000000	12.000000	7.000000
1.170000	55.150000	25.710000	724.000000	0.000000	110.000000	65.000000	10.000000	12.000000
1.180000	55.230000	25.870000	716.000000	0.000000	110.000000	65.000000	8.000000	16.000000
1.190000	55.380000	26.200000	708.000000	0.000000	110.000000	65.000000	15.000000	33.000000
1.200000	55.530000	26.590000	700.000000	0.000000	110.000000	65.000000	15.000000	39.000000
1.210000	55.680000	27.010000	702.000000	0.000000	112.000000	64.000000	15.000000	42.000000
1.220000	55.870000	27.350000	684.000000	0.000000	112.000000	64.000000	19.000000	34.000000
1.230000	56.010000	27.640000	678.000000	0.000000	114.000000	64.000000	14.000000	29.000000
1.240000	56.120000	27.840000	679.000000	0.000000	114.000000	64.000000	11.000000	20.000000
1.250000	56.120000	27.920000	678.000000	0.000000	116.000000	64.000000	0.000000	8.000000
1.260000	56.120000	27.920000	678.000000	0.000000	117.000000	63.000000	0.000000	0.000000
1.270000	56.190000	27.970000	675.000000	0.000000	119.000000	63.000000	7.000000	5.000000
1.280000	56.190000	27.970000	672.000000	0.000000	121.000000	63.000000	0.000000	0.000000
1.290000	56.190000	27.970000	670.000000	0.000000	121.000000	63.000000	0.000000	0.000000
1.300000	56.270000	28.030000	664.000000	0.000000	121.000000	63.000000	8.000000	6.000000
1.310000	56.330000	28.090000	664.000000	0.000000	123.000000	62.000000	6.000000	6.000000
1.320000	56.330000	28.090000	673.000000	0.000000	123.000000	62.000000	0.000000	0.000000
1.330000	56.330000	28.090000	662.000000	0.000000	123.000000	62.000000	0.000000	0.000000
1.340000	56.330000	28.090000	663.000000	0.000000	123.000000	62.000000	0.000000	0.000000
1.350000	56.210000	27.980000	664.000000	0.000000	123.000000	62.000000	-12.000000	-11.000000
1.360000	56.050000	27.870000	664.000000	0.000000	123.000000	62.000000	-16.000000	-11.000000
1.370000	55.930000	27.710000	667.000000	0.000000	123.000000	62.000000	-12.000000	-16.000000
1.380000	55.810000	27.550000	669.000000	0.000000	123.000000	62.000000	-12.000000	-16.000000
1.390000	55.640000	27.310000	675.000000	0.000000	121.000000	63.000000	-17.000000	-24.000000
1.400000	55.440000	27.010000	693.000000	0.000000	121.000000	63.000000	-20.000000	-30.000000
1.410000	55.330000	26.640000	700.000000	0.000000	121.000000	63.000000	-11.000000	-37.000000
1.420000	55.240000	26.260000	694.000000	0.000000	119.000000	63.000000	-9.000000	-38.000000
1.430000	55.190000	25.910000	697.000000	0.000000	117.000000	63.000000	-5.000000	-35.000000
1.440000	55.190000	25.570000	700.000000	0.000000	116.000000	64.000000	0.000000	-34.000000
1.450000	55.190000	25.360000	707.000000	0.000000	116.000000	64.000000	0.000000	-21.000000
1.460000	55.280000	25.190000	708.000000	0.000000	114.000000	64.000000	9.000000	-17.000000
1.470000	55.390000	25.040000	710.000000	0.000000	112.000000	64.000000	11.000000	-15.000000
1.480000	55.520000	24.900000	710.000000	0.000000	112.000000	64.000000	13.000000	-14.000000
1.490000	55.680000	24.900000	717.000000	0.000000	110.000000	65.000000	16.000000	0.000000
1.500000	55.870000	24.900000	713.000000	0.000000	110.000000	65.000000	19.000000	0.000000
1.510000	56.070000	25.000000	714.000000	0.000000	110.000000	65.000000	20.000000	10.000000
1.520000	56.250000	25.170000	708.000000	0.000000	110.000000	65.000000	18.000000	17.000000
1.530000	56.430000	25.380000	705.000000	0.000000	110.000000	66.000000	18.000000	21.000000
1.540000	56.570000	25.620000	690.000000	0.000000	110.000000	66.000000	14.000000	24.000000
1.550000	56.700000	25.930000	691.000000	0.000000	110.000000	66.000000	13.000000	31.000000
1.560000	56.790000	26.290000	694.000000	0.000000	110.000000	66.000000	9.000000	36.000000
1.570000	56.870000	26.780000	687.000000	0.000000	110.000000	66.000000	8.000000	49.000000
1.580000	56.940000	27.260000	687.000000	0.000000	113.000000	65.000000	7.000000	48.000000
1.590000	56.940000	27.510000	697.000000	0.000000	113.000000	65.000000	0.000000	25.000000
1.600000	56.840000	27.610000	700.000000	0.000000	115.000000	65.000000	-10.000000	10.000000
1.610000	56.770000	27.610000	700.000000	0.000000	117.000000	65.000000	-7.000000	0.000000
1.620000	56.710000	27.610000	699.000000	0.000000	119.000000	64.000000	-6.000000	0.000000
1.630000	56.710000	27.490000	694.000000	0.000000	120.000000	64.000000	0.000000	-12.000000
1.640000	56.710000	27.360000	693.000000	0.000000	120.000000	64.000000	0.000000	-13.000000
1.650000	56.710000	27.200000	690.000000	0.000000	120.000000	64.000000	0.000000	-16.000000
1.660000	56.810000	27.000000	685.000000	0.000000	120.000000	64.000000	10.000000	-20.000000
1.670000	56.940000	26.820000	682.000000	0.000000	120.000000	64.000000	13.000000	-18.000000
1.680000	57.100000	26.700000	679.000000	0.000000	120.000000	64.000000	16.000000	-12.000000
1.690000	57.300000	26.610000	681.000000	0.000000	119.000000	64.000000	20.000000	-9.000000
1.700000	57.530000	26.610000	679.000000	0.000000	119.000000	64.000000	23.000000	0.000000
1.710000	57.820000	26.610000	676.000000	0.000000	119.000000	64.000000	29.000000	0.000000
1.720000	58.070000	26.700000	675.000000	0.000000	117.000000	65.000000	25.000000	9.000000
1.730000	58.280000	26.790000	672.000000	0.000000	117.000000	65.000000	21.000000	9.000000
1.740000	58.450000	26.950000	673.000000	0.000000	116.000000	64.000000	17.000000	16.000000
1.750000	58.560000	27.170000	673.000000	0.000000	116.000000	64.000000	11.000000	22.000000
1.760000	58.630000	27.370000	678.000000	0.000000	116.000000	64.000000	7.000000	20.000000
1.770000	58.680000	27.560000	678.000000	0.000000	115.000000	63.000000	5.000000	19.000000
1.780000	58.680000	27.750000	675.000000	0.000000	116.000000	63.000000	0.000000	19.000000
1.790000	58.680000	27.960000	675.000000	0.000000	116.000000	63.000000	0.000000	21.000000
1.800000	58.760000	28.190000	671.000000	0.000000	117.000000	61.000000	8.000000	23.000000
1.810000	58.860000	28.440000	638.000000	0.000000	117.000000	61.000000	10.000000	25.000000
1.820000	58.960000	28.680000	634.000000	0.000000	119.000000	61.000000	10.000000	24.000000
1.830000	59.150000	28.930000	616.000000	0.000000	119.000000	61.000000	19.000000	25.000000
1.840000	59.340000	29.190000	613.000000	0.000000	120.000000	60.000000	19.000000	26.000000
1.850000	59.540000	29.340000	586.000000	0.000000	120.000000	60.000000	20.000000	15.000000
1.860000	59.660000	29.440000	589.000000	0.000000	120.000000	60.000000	12.000000	10.000000
1.870000	59.710000	29.440000	586.000000	0.000000	122.000000	60.000000	5.000000	0.000000
1.880000	59.760000	29.440000	584.000000	0.000000	122.000000	60.000000	5.000000	0.000000
1.890000	59.760000	29.440000	580.000000	0.000000	122.000000	60.000000	0.000000	0.000000
1.900000	59.760000	29.390000	574.000000	0.000000	125.000000	60.000000	0.000000	-5.000000
1.910000	59.760000	29.390000	561.000000	0.000000	125.000000	60.000000	0.000000	0.000000
1.920000	59.760000	29.390000	564.000000	0.000000	125.000000	60.000000	0.000000	0.000000
1.930000	59.760000	29.390000	550.000000	0.000000	125.000000	60.000000	0.000000	0.000000
1.940000	59.710000	29.340000	537.000000	0.000000	125.000000	60.000000	-5.000000	-5.000000
1.950000	59.640000	29.290000	544.000000	0.000000	125.000000	60.000000	-7.000000	-5.000000
1.960000	59.530000	29.230000	535.000000	0.000000	125.000000	60.000000	-11.000000	-6.000000
1.970000	59.420000	29.230000	530.000000	0.000000	125.000000	60.000000	-11.000000	0.000000
1.980000	59.300000	29.130000	524.000000	0.000000	125.000000	60.000000	-12.000000	-10.000000
1.990000	59.170000	29.060000	516.000000	0.000000	125.000000	60.000000	-13.000000	-7.000000
2.000000	59.030000	29.000000	507.000000	0.000000	122.000000	60.000000	-14.000000	-6.000000
2.010000	58.900000	29.000000	510.000000	0.000000	122.000000	60.000000	-13.000000	0.000000
2.020000	58.790000	29.000000	510.000000	0.000000	122.000000	60.000000	-11.000000	0.000000
2.030000	58.720000	29.000000	520.000000	0.000000	122.000000	60.000000	-7.000000	0.000000
2.040000	58.720000	29.100000	540.000000	0.000000	122.000000	60.000000	0.000000	10.000000
2.050000	58.640000	29.200000	543.000000	0.000000	122.000000	60.000000	-8.000000	10.000000
2.060000	58.640000	29.270000	559.000000	0.000000	122.000000	60.000000	0.000000	7.000000
2.070000	58.640000	29.360000	567.000000	0.000000	122.000000	60.000000	0.000000	9.000000
2.080000	58.640000	29.480000	562.000000	0.000000	122.000000	60.000000	0.000000	12.000000
2.090000	58.700000	29.630000	562.000000	0.000000	124.000000	60.000000	6.000000	15.000000
2.100000	58.800000	29.840000	551.000000	0.000000	124.000000	60.000000	10.000000	21.000000
2.110000	58.940000	30.040000	546.000000	0.000000	124.000000	60.000000	14.000000	20.000000
2.120000	59.090000	30.290000	546.000000	0.000000	124.000000	60.000000	15.000000	25.000000
2.130000	59.240000	30.580000	542.000000	0.000000	124.000000	60.000000	15.000000	29.000000
2.140000	59.350000	30.830000	546.000000	0.000000	124.000000	60.000000	11.000000	25.000000
2.150000	59.450000	31.050000	543.000000	0.000000	124.000000	60.000000	10.000000	22.000000
2.160000	59.450000	31.210000	544.000000	0.000000	125.000000	59.000000	0.000000	16.000000
2.170000	59.450000	31.330000	536.000000	0.000000	125.000000	59.000000	0.000000	12.000000
2.180000	59.450000	31.450000	536.000000	0.000000	125.000000	59.000000	0.000000	12.000000
2.190000	59.450000	31.540000	542.000000	0.000000	125.000000	59.000000	0.000000	9.000000
2.200000	59.450000	31.600000	548.000000	0.000000	125.000000	59.000000	0.000000	6.000000
2.210000	59.450000	31.600000	551.000000	0.000000	125.000000	59.000000	0.000000	0.000000
