t	x	y	pressure	penup	azimuth	inclination	v_x	v_y
0.000000	11.410000	64.780000	61.000000	1.000000	182.000000	60.000000	0.000000	0.000000
0.010000	11.410000	65.060000	137.000000	0.000000	182.000000	60.000000	0.000000	28.000000
0.020000	11.410000	65.140000	190.000000	0.000000	182.000000	60.000000	0.000000	8.000000
0.030000	11.410000	65.200000	249.000000	0.000000	182.000000	60.000000	0.000000	6.000000
0.040000	11.470000	65.250000	297.000000	0.000000	183.000000	60.000000	6.000000	5.000000
0.050000	11.470000	65.250000	334.000000	0.000000	185.000000	60.000000	0.000000	0.000000
0.060000	11.470000	65.340000	394.000000	0.000000	187.000000	60.000000	0.000000	9.000000
0.070000	11.470000	65.400000	433.000000	0.000000	187.000000	60.000000	0.000000	6.000000
0.080000	11.470000	65.450000	472.000000	0.000000	189.000000	60.000000	0.000000	5.000000
0.090000	11.470000	65.450000	507.000000	0.000000	190.000000	60.000000	0.000000	0.000000
0.100000	11.470000	65.500000	538.000000	0.000000	190.000000	60.000000	0.000000	5.000000
0.110000	11.520000	65.500000	536.000000	0.000000	192.000000	59.000000	5.000000	0.000000
0.120000	11.520000	65.500000	556.000000	0.000000	192.000000	59.000000	0.000000	0.000000
0.130000	11.520000	65.500000	567.000000	0.000000	192.000000	59.000000	0.000000	0.000000
0.140000	11.520000	65.440000	564.000000	0.000000	192.000000	59.000000	0.000000	-6.000000
0.150000	11.520000	65.350000	581.000000	0.000000	192.000000	59.000000	0.000000	-9.000000
0.160000	11.520000	65.160000	588.000000	0.000000	192.000000	59.000000	0.000000	-19.000000
0.170000	11.470000	64.900000	609.000000	0.000000	192.000000	59.000000	-5.000000	-26.000000
0.180000	11.470000	64.550000	616.000000	0.000000	192.000000	59.000000	0.000000	-35.000000
0.190000	11.470000	64.050000	619.000000	0.000000	192.000000	59.000000	0.000000	-50.000000
0.200000	11.600000	63.450000	631.000000	0.000000	192.000000	59.000000	13.000000	-60.000000
0.210000	11.710000	62.840000	641.000000	0.000000	192.000000	59.000000	11.000000	-61.000000
0.220000	11.840000	62.090000	643.000000	0.000000	192.000000	59.000000	13.000000	-75.000000
0.230000	12.130000	61.260000	650.000000	0.000000	192.000000	58.000000	29.000000	-83.000000
0.240000	12.480000	60.640000	655.000000	0.000000	192.000000	58.000000	35.000000	-62.000000
0.250000	12.770000	60.120000	662.000000	0.000000	192.000000	58.000000	29.000000	-52.000000
0.260000	13.090000	59.680000	673.000000	0.000000	192.000000	58.000000	32.000000	-44.000000
0.270000	13.430000	59.570000	691.000000	0.000000	192.000000	59.000000	34.000000	-11.000000
0.280000	13.720000	59.700000	705.000000	0.000000	192.000000	59.000000	29.000000	13.000000
0.290000	14.090000	60.000000	713.000000	0.000000	192.000000	59.000000	37.000000	30.000000
0.300000	14.510000	60.550000	710.000000	0.000000	192.000000	59.000000	42.000000	55.000000
0.310000	14.890000	61.280000	696.000000	0.000000	194.000000	59.000000	38.000000	73.000000
0.320000	15.160000	62.120000	700.000000	0.000000	194.000000	59.000000	27.000000	84.000000
0.330000	15.350000	62.780000	702.000000	0.000000	195.000000	59.000000	19.000000	66.000000
0.340000	15.410000	63.170000	699.000000	0.000000	195.000000	58.000000	6.000000	39.000000
0.350000	15.460000	63.390000	710.000000	0.000000	195.000000	58.000000	5.000000	22.000000
0.360000	15.460000	63.390000	711.000000	0.000000	196.000000	57.000000	0.000000	0.000000
0.370000	15.510000	63.300000	717.000000	0.000000	196.000000	57.000000	5.000000	-9.000000
0.380000	15.390000	63.050000	719.000000	0.000000	196.000000	57.000000	-12.000000	-25.000000
0.390000	15.260000	62.440000	727.000000	0.000000	195.000000	56.000000	-13.000000	-61.000000
0.400000	15.100000	61.830000	727.000000	0.000000	195.000000	56.000000	-16.000000	-61.000000
0.410000	14.950000	61.250000	745.000000	0.000000	195.000000	56.000000	-15.000000	-58.000000
0.420000	14.830000	60.690000	765.000000	0.000000	194.000000	57.000000	-12.000000	-56.000000
0.430000	14.760000	60.000000	787.000000	0.000000	194.000000	57.000000	-7.000000	-69.000000
0.440000	14.940000	59.160000	842.000000	0.000000	194.000000	57.000000	18.000000	-84.000000
0.450000	15.120000	58.220000	873.000000	0.000000	193.000000	58.000000	18.000000	-94.000000
0.460000	15.300000	57.100000	894.000000	0.000000	194.000000	59.000000	18.000000	-112.000000
0.470000	15.390000	55.980000	912.000000	0.000000	194.000000	60.000000	9.000000	-112.000000
0.480000	15.480000	55.140000	924.000000	0.000000	195.000000	62.000000	9.000000	-84.000000
0.490000	15.560000	54.500000	933.000000	0.000000	196.000000	63.000000	8.000000	-64.000000
0.500000	15.560000	54.020000	930.000000	0.000000	196.000000	63.000000	0.000000	-48.000000
0.510000	15.560000	53.860000	936.000000	0.000000	195.000000	64.000000	0.000000	-16.000000
0.520000	15.560000	53.920000	933.000000	0.000000	195.000000	65.000000	0.000000	6.000000
0.530000	15.560000	54.050000	909.000000	0.000000	195.000000	65.000000	0.000000	13.000000
0.540000	15.610000	54.370000	825.000000	0.000000	195.000000	65.000000	5.000000	32.000000
0.550000	15.690000	54.810000	717.000000	0.000000	195.000000	65.000000	8.000000	44.000000
0.560000	15.810000	55.130000	535.000000	0.000000	195.000000	65.000000	12.000000	32.000000
0.570000	16.040000	55.490000	198.000000	0.000000	195.000000	65.000000	23.000000	36.000000
0.580000	16.040000	55.490000	0.000000	1.000000	195.000000	65.000000	0.000000	0.000000
0.590000	16.610000	56.250000	0.000000	0.000000	195.000000	65.000000	57.000000	76.000000
0.600000	16.810000	56.610000	0.000000	0.000000	198.000000	65.000000	20.000000	36.000000
0.610000	16.930000	56.980000	0.000000	0.000000	198.000000	65.000000	12.000000	37.000000
0.620000	16.930000	57.310000	0.000000	0.000000	200.000000	65.000000	0.000000	33.000000
0.630000	16.930000	57.550000	0.000000	0.000000	200.000000	65.000000	0.000000	24.000000
0.640000	16.800000	57.710000	0.000000	0.000000	200.000000	65.000000	-13.000000	16.000000
0.650000	16.700000	57.810000	0.000000	0.000000	201.000000	64.000000	-10.000000	10.000000
0.660000	16.700000	57.810000	68.000000	1.000000	201.000000	64.000000	0.000000	0.000000
0.670000	16.700000	57.810000	136.000000	0.000000	201.000000	64.000000	0.000000	0.000000
0.680000	16.700000	57.810000	233.000000	0.000000	198.000000	63.000000	0.000000	0.000000
0.690000	16.700000	57.810000	320.000000	0.000000	198.000000	63.000000	0.000000	0.000000
0.700000	16.440000	58.040000	394.000000	0.000000	196.000000	63.000000	-26.000000	23.000000
0.710000	16.390000	58.100000	438.000000	0.000000	195.000000	62.000000	-5.000000	6.000000
0.720000	16.390000	58.100000	465.000000	0.000000	195.000000	62.000000	0.000000	0.000000
0.730000	16.330000	58.100000	512.000000	0.000000	195.000000	62.000000	-6.000000	0.000000
0.740000	16.330000	58.100000	537.000000	0.000000	195.000000	62.000000	0.000000	0.000000
0.750000	16.330000	58.100000	560.000000	0.000000	195.000000	62.000000	0.000000	0.000000
0.760000	16.330000	58.100000	592.000000	0.000000	195.000000	62.000000	0.000000	0.000000
0.770000	16.330000	58.100000	611.000000	0.000000	195.000000	62.000000	0.000000	0.000000
0.780000	16.330000	58.100000	633.000000	0.000000	195.000000	62.000000	0.000000	0.000000
0.790000	16.400000	58.030000	650.000000	0.000000	195.000000	62.000000	7.000000	-7.000000
0.800000	16.400000	58.030000	668.000000	0.000000	197.000000	62.000000	0.000000	0.000000
0.810000	16.490000	58.030000	684.000000	0.000000	197.000000	62.000000	9.000000	0.000000
0.820000	16.600000	58.030000	699.000000	0.000000	197.000000	62.000000	11.000000	0.000000
0.830000	16.650000	58.030000	721.000000	0.000000	197.000000	62.000000	5.000000	0.000000
0.840000	16.650000	58.080000	725.000000	0.000000	197.000000	62.000000	0.000000	5.000000
0.850000	16.730000	58.230000	721.000000	0.000000	197.000000	62.000000	8.000000	15.000000
0.860000	16.890000	58.560000	731.000000	0.000000	199.000000	62.000000	16.000000	33.000000
0.870000	17.100000	59.000000	720.000000	0.000000	200.000000	60.000000	21.000000	44.000000
0.880000	17.360000	59.360000	721.000000	0.000000	202.000000	60.000000	26.000000	36.000000
0.890000	17.520000	59.820000	720.000000	0.000000	203.000000	60.000000	16.000000	46.000000
0.900000	17.620000	60.340000	727.000000	0.000000	205.000000	60.000000	10.000000	52.000000
0.910000	17.680000	60.710000	740.000000	0.000000	205.000000	60.000000	6.000000	37.000000
0.920000	17.680000	61.030000	758.000000	0.000000	206.000000	58.000000	0.000000	32.000000
0.930000	17.680000	61.180000	771.000000	0.000000	207.000000	58.000000	0.000000	15.000000
0.940000	17.680000	61.180000	776.000000	0.000000	206.000000	57.000000	0.000000	0.000000
0.950000	17.680000	61.180000	779.000000	0.000000	208.000000	57.000000	0.000000	0.000000
0.960000	17.680000	61.180000	779.000000	0.000000	208.000000	57.000000	0.000000	0.000000
0.970000	17.680000	61.080000	777.000000	0.000000	207.000000	56.000000	0.000000	-10.000000
0.980000	17.620000	60.930000	784.000000	0.000000	207.000000	56.000000	-6.000000	-15.000000
0.990000	17.550000	60.630000	785.000000	0.000000	207.000000	56.000000	-7.000000	-30.000000
1.000000	17.460000	60.250000	790.000000	0.000000	206.000000	56.000000	-9.000000	-38.000000
1.010000	17.390000	59.800000	794.000000	0.000000	206.000000	57.000000	-7.000000	-45.000000
1.020000	17.390000	59.420000	793.000000	0.000000	206.000000	57.000000	0.000000	-38.000000
1.030000	17.520000	59.080000	794.000000	0.000000	206.000000	57.000000	13.000000	-34.000000
1.040000	17.520000	58.930000	794.000000	0.000000	206.000000	58.000000	0.000000	-15.000000
1.050000	17.570000	58.750000	796.000000	0.000000	206.000000	58.000000	5.000000	-18.000000
1.060000	17.700000	58.750000	794.000000	0.000000	207.000000	59.000000	13.000000	0.000000
1.070000	17.900000	58.750000	793.000000	0.000000	207.000000	59.000000	20.000000	0.000000
1.080000	18.160000	58.970000	784.000000	0.000000	207.000000	59.000000	26.000000	22.000000
1.090000	18.520000	59.410000	770.000000	0.000000	207.000000	59.000000	36.000000	44.000000
1.100000	18.950000	60.010000	753.000000	0.000000	208.000000	59.000000	43.000000	60.000000
1.110000	19.300000	60.580000	752.000000	0.000000	208.000000	59.000000	35.000000	57.000000
1.120000	19.480000	60.910000	748.000000	0.000000	210.000000	58.000000	18.000000	33.000000
1.130000	19.550000	61.070000	746.000000	0.000000	209.000000	58.000000	7.000000	16.000000
1.140000	19.620000	61.070000	748.000000	0.000000	209.000000	58.000000	7.000000	0.000000
1.150000	19.620000	61.010000	745.000000	0.000000	209.000000	56.000000	0.000000	-6.000000
1.160000	19.530000	60.920000	746.000000	0.000000	208.000000	56.000000	-9.000000	-9.000000
1.170000	19.460000	60.770000	752.000000	0.000000	208.000000	56.000000	-7.000000	-15.000000
1.180000	19.390000	60.530000	754.000000	0.000000	208.000000	56.000000	-7.000000	-24.000000
1.190000	19.250000	60.240000	755.000000	0.000000	207.000000	55.000000	-14.000000	-29.000000
1.200000	19.250000	59.940000	754.000000	0.000000	208.000000	56.000000	0.000000	-30.000000
1.210000	19.250000	59.640000	756.000000	0.000000	208.000000	56.000000	0.000000	-30.000000
1.220000	19.350000	59.410000	767.000000	0.000000	208.000000	56.000000	10.000000	-23.000000
1.230000	19.430000	59.230000	777.000000	0.000000	209.000000	56.000000	8.000000	-18.000000
1.240000	19.550000	59.110000	780.000000	0.000000	209.000000	56.000000	12.000000	-12.000000
1.250000	19.690000	59.110000	777.000000	0.000000	209.000000	56.000000	14.000000	0.000000
1.260000	20.000000	59.280000	773.000000	0.000000	209.000000	56.000000	31.000000	17.000000
1.270000	20.290000	59.590000	770.000000	0.000000	209.000000	56.000000	29.000000	31.000000
1.280000	20.560000	59.940000	771.000000	0.000000	209.000000	56.000000	27.000000	35.000000
1.290000	20.740000	60.320000	759.000000	0.000000	209.000000	56.000000	18.000000	38.000000
1.300000	20.900000	60.590000	765.000000	0.000000	209.000000	56.000000	16.000000	27.000000
1.310000	20.990000	60.860000	777.000000	0.000000	209.000000	56.000000	9.000000	27.000000
1.320000	20.990000	60.960000	779.000000	0.000000	209.000000	56.000000	0.000000	10.000000
1.330000	20.990000	60.960000	780.000000	0.000000	208.000000	56.000000	0.000000	0.000000
1.340000	20.990000	60.910000	779.000000	0.000000	210.000000	55.000000	0.000000	-5.000000
1.350000	20.990000	60.860000	779.000000	0.000000	210.000000	55.000000	0.000000	-5.000000
1.360000	20.990000	60.750000	779.000000	0.000000	209.000000	54.000000	0.000000	-11.000000
1.370000	20.930000	60.550000	779.000000	0.000000	209.000000	54.000000	-6.000000	-20.000000
1.380000	20.930000	60.240000	790.000000	0.000000	209.000000	54.000000	0.000000	-31.000000
1.390000	21.050000	59.910000	794.000000	0.000000	209.000000	54.000000	12.000000	-33.000000
1.400000	21.150000	59.590000	787.000000	0.000000	209.000000	54.000000	10.000000	-32.000000
1.410000	21.250000	59.370000	790.000000	0.000000	210.000000	55.000000	10.000000	-22.000000
1.420000	21.350000	59.210000	796.000000	0.000000	208.000000	56.000000	10.000000	-16.000000
1.430000	21.350000	59.210000	821.000000	0.000000	208.000000	56.000000	0.000000	0.000000
1.440000	21.350000	59.210000	840.000000	0.000000	208.000000	56.000000	0.000000	0.000000
1.450000	21.350000	59.210000	863.000000	0.000000	208.000000	56.000000	0.000000	0.000000
1.460000	21.400000	59.210000	869.000000	0.000000	208.000000	56.000000	5.000000	0.000000
1.470000	21.400000	59.210000	888.000000	0.000000	208.000000	56.000000	0.000000	0.000000
1.480000	21.400000	59.210000	909.000000	0.000000	208.000000	56.000000	0.000000	0.000000
1.490000	21.400000	59.210000	909.000000	0.000000	208.000000	56.000000	0.000000	0.000000
1.500000	21.400000	59.210000	935.000000	0.000000	208.000000	56.000000	0.000000	0.000000
1.510000	21.400000	59.210000	935.000000	0.000000	208.000000	56.000000	0.000000	0.000000
1.520000	21.400000	59.210000	976.000000	0.000000	208.000000	56.000000	0.000000	0.000000
1.530000	21.400000	59.210000	994.000000	0.000000	207.000000	56.000000	0.000000	0.000000
1.540000	21.400000	59.210000	1023.000000	0.000000	208.000000	57.000000	0.000000	0.000000
1.550000	21.340000	59.210000	1023.000000	0.000000	208.000000	57.000000	-6.000000	0.000000
1.560000	21.340000	59.210000	1023.000000	0.000000	208.000000	57.000000	0.000000	0.000000
1.570000	21.260000	59.210000	1023.000000	0.000000	206.000000	57.000000	-8.000000	0.000000
1.580000	21.260000	59.150000	1023.000000	0.000000	206.000000	57.000000	0.000000	-6.000000
1.590000	21.260000	59.150000	1023.000000	0.000000	205.000000	58.000000	0.000000	0.000000
1.600000	21.260000	59.150000	1023.000000	0.000000	206.000000	58.000000	0.000000	0.000000
1.610000	21.260000	59.150000	1023.000000	0.000000	204.000000	59.000000	0.000000	0.000000
1.620000	21.260000	59.150000	1023.000000	0.000000	203.000000	59.000000	0.000000	0.000000
1.630000	21.260000	59.150000	1023.000000	0.000000	201.000000	59.000000	0.000000	0.000000
1.640000	21.260000	59.150000	1023.000000	0.000000	200.000000	60.000000	0.000000	0.000000
1.650000	21.260000	59.150000	1023.000000	0.000000	200.000000	60.000000	0.000000	0.000000
1.660000	21.340000	59.150000	1023.000000	0.000000	198.000000	61.000000	8.000000	0.000000
1.670000	21.340000	59.150000	1023.000000	0.000000	198.000000	61.000000	0.000000	0.000000
1.680000	21.340000	59.150000	1023.000000	0.000000	197.000000	62.000000	0.000000	0.000000
1.690000	21.340000	59.150000	1023.000000	0.000000	197.000000	62.000000	0.000000	0.000000
1.700000	21.340000	59.210000	1023.000000	0.000000	197.000000	62.000000	0.000000	6.000000
1.710000	21.340000	59.210000	1023.000000	0.000000	197.000000	62.000000	0.000000	0.000000
1.720000	21.340000	59.210000	1023.000000	0.000000	197.000000	62.000000	0.000000	0.000000
1.730000	21.340000	59.210000	1023.000000	0.000000	197.000000	62.000000	0.000000	0.000000
1.740000	21.340000	59.210000	1023.000000	0.000000	199.000000	62.000000	0.000000	0.000000
1.750000	21.340000	59.210000	1023.000000	0.000000	199.000000	62.000000	0.000000	0.000000
1.760000	21.340000	59.210000	1023.000000	0.000000	199.000000	62.000000	0.000000	0.000000
1.770000	21.340000	59.210000	1023.000000	0.000000	199.000000	62.000000	0.000000	0.000000
1.780000	21.340000	59.210000	1023.000000	0.000000	199.000000	62.000000	0.000000	0.000000
1.790000	21.340000	59.210000	1023.000000	0.000000	199.000000	62.000000	0.000000	0.000000
1.800000	21.340000	59.210000	1023.000000	0.000000	199.000000	62.000000	0.000000	0.000000
1.810000	21.340000	59.210000	1023.000000	0.000000	201.000000	61.000000	0.000000	0.000000
1.820000	21.340000	59.210000	1008.000000	0.000000	201.000000	61.000000	0.000000	0.000000
1.830000	21.340000	59.210000	988.000000	0.000000	201.000000	61.000000	0.000000	0.000000
1.840000	21.340000	59.210000	977.000000	0.000000	201.000000	61.000000	0.000000	0.000000
1.850000	21.340000	59.210000	985.000000	0.000000	201.000000	61.000000	0.000000	0.000000
1.860000	21.340000	59.210000	973.000000	0.000000	201.000000	61.000000	0.000000	0.000000
1.870000	21.390000	59.210000	965.000000	0.000000	201.000000	61.000000	5.000000	0.000000
1.880000	21.490000	59.160000	940.000000	0.000000	201.000000	61.000000	10.000000	-5.000000
1.890000	21.640000	59.160000	942.000000	0.000000	201.000000	61.000000	15.000000	0.000000
1.900000	22.050000	59.040000	932.000000	0.000000	203.000000	61.000000	41.000000	-12.000000
1.910000	22.310000	59.040000	929.000000	0.000000	203.000000	61.000000	26.000000	0.000000
1.920000	22.460000	59.040000	923.000000	0.000000	203.000000	61.000000	15.000000	0.000000
1.930000	22.690000	59.040000	921.000000	0.000000	204.000000	61.000000	23.000000	0.000000
1.940000	22.950000	59.180000	920.000000	0.000000	204.000000	61.000000	26.000000	14.000000
1.950000	23.220000	59.300000	914.000000	0.000000	206.000000	60.000000	27.000000	12.000000
1.960000	23.420000	59.570000	908.000000	0.000000	206.000000	60.000000	20.000000	27.000000
1.970000	23.630000	59.880000	894.000000	0.000000	208.000000	60.000000	21.000000	31.000000
1.980000	23.840000	60.230000	888.000000	0.000000	207.000000	59.000000	21.000000	35.000000
1.990000	23.940000	60.520000	888.000000	0.000000	207.000000	59.000000	10.000000	29.000000
2.000000	23.940000	60.790000	888.000000	0.000000	208.000000	59.000000	0.000000	27.000000
2.010000	24.040000	61.040000	896.000000	0.000000	207.000000	58.000000	10.000000	25.000000
2.020000	24.090000	61.150000	903.000000	0.000000	207.000000	58.000000	5.000000	11.000000
2.030000	24.090000	61.230000	905.000000	0.000000	208.000000	57.000000	0.000000	8.000000
2.040000	24.090000	61.230000	903.000000	0.000000	208.000000	57.000000	0.000000	0.000000
2.050000	24.090000	61.160000	897.000000	0.000000	208.000000	57.000000	0.000000	-7.000000
2.060000	24.090000	61.050000	894.000000	0.000000	207.000000	56.000000	0.000000	-11.000000
2.070000	24.010000	60.760000	893.000000	0.000000	207.000000	56.000000	-8.000000	-29.000000
2.080000	24.010000	60.370000	891.000000	0.000000	207.000000	56.000000	0.000000	-39.000000
2.090000	24.010000	59.970000	890.000000	0.000000	207.000000	56.000000	0.000000	-40.000000
2.100000	24.130000	59.660000	894.000000	0.000000	208.000000	57.000000	12.000000	-31.000000
2.110000	24.130000	59.410000	896.000000	0.000000	206.000000	57.000000	0.000000	-25.000000
2.120000	24.180000	59.360000	900.000000	0.000000	206.000000	57.000000	5.000000	-5.000000
2.130000	24.310000	59.360000	903.000000	0.000000	207.000000	58.000000	13.000000	0.000000
2.140000	24.520000	59.450000	905.000000	0.000000	207.000000	58.000000	21.000000	9.000000
2.150000	24.820000	59.680000	900.000000	0.000000	209.000000	58.000000	30.000000	23.000000
2.160000	25.180000	60.050000	896.000000	0.000000	209.000000	58.000000	36.000000	37.000000
2.170000	25.590000	60.520000	896.000000	0.000000	209.000000	58.000000	41.000000	47.000000
2.180000	25.860000	60.830000	899.000000	0.000000	209.000000	58.000000	27.000000	31.000000
2.190000	26.030000	61.110000	900.000000	0.000000	210.000000	57.000000	17.000000	28.000000
2.200000	26.120000	61.340000	902.000000	0.000000	209.000000	56.000000	9.000000	23.000000
2.210000	26.120000	61.450000	915.000000	0.000000	209.000000	56.000000	0.000000	11.000000
2.220000	26.120000	61.450000	921.000000	0.000000	210.000000	55.000000	0.000000	0.000000
