t	x	y	pressure	penup	azimuth	inclination	v_x	v_y
0.000000	51.140000	53.060000	143.000000	1.000000	313.000000	52.000000	0.000000	0.000000
0.010000	51.950000	53.570000	259.000000	0.000000	311.000000	52.000000	81.000000	51.000000
0.020000	52.100000	53.780000	394.000000	0.000000	311.000000	52.000000	15.000000	21.000000
0.030000	52.190000	53.990000	477.000000	0.000000	311.000000	52.000000	9.000000	21.000000
0.040000	52.240000	54.110000	563.000000	0.000000	311.000000	52.000000	5.000000	12.000000
0.050000	52.240000	54.180000	613.000000	0.000000	310.000000	53.000000	0.000000	7.000000
0.060000	52.240000	54.180000	643.000000	0.000000	310.000000	53.000000	0.000000	0.000000
0.070000	52.140000	53.950000	673.000000	0.000000	310.000000	53.000000	-10.000000	-23.000000
0.080000	51.930000	53.650000	682.000000	0.000000	309.000000	53.000000	-21.000000	-30.000000
0.090000	51.610000	53.000000	687.000000	0.000000	309.000000	53.000000	-32.000000	-65.000000
0.100000	51.220000	52.170000	691.000000	0.000000	309.000000	53.000000	-39.000000	-83.000000
0.110000	50.800000	51.220000	691.000000	0.000000	308.000000	54.000000	-42.000000	-95.000000
0.120000	50.460000	50.360000	694.000000	0.000000	308.000000	54.000000	-34.000000	-86.000000
0.130000	50.160000	49.750000	687.000000	0.000000	308.000000	54.000000	-30.000000	-61.000000
0.140000	50.050000	49.310000	696.000000	0.000000	309.000000	55.000000	-11.000000	-44.000000
0.150000	50.050000	49.170000	719.000000	0.000000	309.000000	55.000000	0.000000	-14.000000
0.160000	50.050000	49.170000	721.000000	0.000000	309.000000	55.000000	0.000000	0.000000
0.170000	50.260000	49.260000	714.000000	0.000000	309.000000	55.000000	21.000000	9.000000
0.180000	50.610000	49.540000	697.000000	0.000000	309.000000	55.000000	35.000000	28.000000
0.190000	51.070000	49.880000	684.000000	0.000000	309.000000	55.000000	46.000000	34.000000
0.200000	51.540000	50.330000	685.000000	0.000000	309.000000	55.000000	47.000000	45.000000
0.210000	51.970000	50.830000	667.000000	0.000000	309.000000	55.000000	43.000000	50.000000
0.220000	52.320000	51.280000	666.000000	0.000000	309.000000	55.000000	35.000000	45.000000
0.230000	52.570000	51.620000	666.000000	0.000000	308.000000	54.000000	25.000000	34.000000
0.240000	52.760000	51.880000	673.000000	0.000000	308.000000	54.000000	19.000000	26.000000
0.250000	52.830000	51.970000	684.000000	0.000000	308.000000	54.000000	7.000000	9.000000
0.260000	52.830000	51.970000	700.000000	0.000000	309.000000	53.000000	0.000000	0.000000
0.270000	52.830000	51.920000	690.000000	0.000000	308.000000	53.000000	0.000000	-5.000000
0.280000	52.680000	51.680000	717.000000	0.000000	308.000000	53.000000	-15.000000	-24.000000
0.290000	52.410000	51.110000	720.000000	0.000000	308.000000	53.000000	-27.000000	-57.000000
0.300000	52.050000	50.320000	733.000000	0.000000	308.000000	53.000000	-36.000000	-79.000000
0.310000	51.570000	49.300000	728.000000	0.000000	308.000000	53.000000	-48.000000	-102.000000
0.320000	51.080000	48.260000	742.000000	0.000000	308.000000	53.000000	-49.000000	-104.000000
0.330000	50.690000	47.200000	765.000000	0.000000	310.000000	53.000000	-39.000000	-106.000000
0.340000	50.360000	46.260000	771.000000	0.000000	310.000000	53.000000	-33.000000	-94.000000
0.350000	50.180000	45.700000	776.000000	0.000000	311.000000	52.000000	-18.000000	-56.000000
0.360000	50.110000	45.400000	752.000000	0.000000	313.000000	53.000000	-7.000000	-30.000000
0.370000	50.110000	45.310000	678.000000	0.000000	314.000000	52.000000	0.000000	-9.000000
0.380000	50.190000	45.430000	472.000000	0.000000	315.000000	52.000000	8.000000	12.000000
0.390000	50.190000	45.430000	0.000000	1.000000	316.000000	51.000000	0.000000	0.000000
0.400000	50.650000	46.090000	0.000000	0.000000	316.000000	51.000000	46.000000	66.000000
0.410000	51.020000	46.500000	0.000000	0.000000	316.000000	51.000000	37.000000	41.000000
0.420000	51.250000	46.960000	0.000000	0.000000	317.000000	51.000000	23.000000	46.000000
0.430000	51.380000	47.440000	0.000000	0.000000	317.000000	51.000000	13.000000	48.000000
0.440000	52.320000	48.000000	0.000000	0.000000	317.000000	51.000000	94.000000	56.000000
0.450000	52.840000	48.590000	0.000000	0.000000	316.000000	50.000000	52.000000	59.000000
0.460000	53.080000	49.090000	0.000000	0.000000	316.000000	49.000000	24.000000	50.000000
0.470000	53.640000	49.550000	0.000000	0.000000	315.000000	49.000000	56.000000	46.000000
0.480000	54.270000	49.960000	0.000000	0.000000	315.000000	47.000000	63.000000	41.000000
0.490000	54.940000	50.410000	0.000000	0.000000	314.000000	47.000000	67.000000	45.000000
0.500000	55.790000	50.900000	0.000000	0.000000	314.000000	46.000000	85.000000	49.000000
0.510000	56.780000	51.380000	0.000000	0.000000	314.000000	45.000000	99.000000	48.000000
0.520000	57.860000	51.860000	0.000000	0.000000	314.000000	44.000000	108.000000	48.000000
0.530000	59.160000	52.460000	0.000000	0.000000	313.000000	43.000000	130.000000	60.000000
0.540000	60.450000	53.070000	0.000000	0.000000	314.000000	43.000000	129.000000	61.000000
0.550000	61.720000	53.550000	0.000000	0.000000	313.000000	42.000000	127.000000	48.000000
0.560000	62.580000	53.950000	0.000000	0.000000	313.000000	42.000000	86.000000	40.000000
0.570000	63.230000	54.320000	0.000000	0.000000	311.000000	42.000000	65.000000	37.000000
0.580000	63.740000	54.520000	0.000000	0.000000	310.000000	41.000000	51.000000	20.000000
0.590000	63.850000	54.620000	0.000000	0.000000	310.000000	41.000000	11.000000	10.000000
0.600000	63.740000	54.550000	0.000000	0.000000	309.000000	42.000000	-11.000000	-7.000000
0.610000	63.480000	54.300000	0.000000	0.000000	308.000000	41.000000	-26.000000	-25.000000
0.620000	62.850000	53.930000	0.000000	0.000000	308.000000	41.000000	-63.000000	-37.000000
0.630000	61.900000	53.340000	0.000000	0.000000	308.000000	42.000000	-95.000000	-59.000000
0.640000	60.740000	52.660000	0.000000	0.000000	308.000000	42.000000	-116.000000	-68.000000
0.650000	59.320000	51.930000	0.000000	0.000000	308.000000	43.000000	-142.000000	-73.000000
0.660000	58.060000	51.580000	0.000000	0.000000	310.000000	45.000000	-126.000000	-35.000000
0.670000	56.910000	51.250000	0.000000	0.000000	310.000000	46.000000	-115.000000	-33.000000
0.680000	56.090000	50.960000	0.000000	0.000000	312.000000	47.000000	-82.000000	-29.000000
0.690000	55.450000	50.670000	0.000000	0.000000	313.000000	47.000000	-64.000000	-29.000000
0.700000	54.940000	50.380000	0.000000	0.000000	314.000000	49.000000	-51.000000	-29.000000
0.710000	54.600000	50.230000	0.000000	0.000000	315.000000	50.000000	-34.000000	-15.000000
0.720000	54.370000	50.130000	0.000000	0.000000	314.000000	50.000000	-23.000000	-10.000000
0.730000	54.200000	50.050000	0.000000	0.000000	315.000000	51.000000	-17.000000	-8.000000
0.740000	54.080000	49.980000	0.000000	0.000000	314.000000	51.000000	-12.000000	-7.000000
0.750000	54.020000	49.980000	0.000000	0.000000	314.000000	51.000000	-6.000000	0.000000
0.760000	54.020000	49.980000	0.000000	0.000000	315.000000	52.000000	0.000000	0.000000
0.770000	54.070000	50.040000	0.000000	0.000000	314.000000	52.000000	5.000000	6.000000
0.780000	54.070000	50.110000	0.000000	0.000000	314.000000	52.000000	0.000000	7.000000
0.790000	54.070000	50.160000	0.000000	0.000000	314.000000	52.000000	0.000000	5.000000
0.800000	53.940000	50.160000	0.000000	0.000000	314.000000	52.000000	-13.000000	0.000000
0.810000	53.790000	50.160000	0.000000	0.000000	313.000000	53.000000	-15.000000	0.000000
0.820000	53.630000	50.160000	0.000000	0.000000	314.000000	54.000000	-16.000000	0.000000
0.830000	53.500000	50.100000	0.000000	0.000000	314.000000	54.000000	-13.000000	-6.000000
0.840000	53.360000	50.100000	0.000000	0.000000	314.000000	54.000000	-14.000000	0.000000
0.850000	53.220000	50.040000	0.000000	0.000000	313.000000	54.000000	-14.000000	-6.000000
0.860000	53.220000	50.040000	93.000000	1.000000	313.000000	54.000000	0.000000	0.000000
0.870000	53.220000	50.040000	382.000000	0.000000	314.000000	55.000000	0.000000	0.000000
0.880000	53.080000	49.790000	544.000000	0.000000	312.000000	55.000000	-14.000000	-25.000000
0.890000	53.080000	49.730000	673.000000	0.000000	312.000000	55.000000	0.000000	-6.000000
0.900000	53.170000	49.730000	696.000000	0.000000	311.000000	56.000000	9.000000	0.000000
0.910000	53.300000	49.730000	705.000000	0.000000	311.000000	56.000000	13.000000	0.000000
0.920000	53.470000	49.870000	710.000000	0.000000	311.000000	56.000000	17.000000	14.000000
0.930000	53.700000	50.050000	710.000000	0.000000	311.000000	56.000000	23.000000	18.000000
0.940000	53.960000	50.330000	700.000000	0.000000	311.000000	56.000000	26.000000	28.000000
0.950000	54.230000	50.610000	700.000000	0.000000	311.000000	56.000000	27.000000	28.000000
0.960000	54.480000	50.890000	694.000000	0.000000	311.000000	56.000000	25.000000	28.000000
0.970000	54.690000	51.140000	687.000000	0.000000	311.000000	56.000000	21.000000	25.000000
0.980000	54.800000	51.400000	685.000000	0.000000	311.000000	56.000000	11.000000	26.000000
0.990000	54.850000	51.510000	690.000000	0.000000	310.000000	55.000000	5.000000	11.000000
1.000000	54.850000	51.510000	688.000000	0.000000	310.000000	55.000000	0.000000	0.000000
1.010000	54.770000	51.410000	694.000000	0.000000	310.000000	55.000000	-8.000000	-10.000000
1.020000	54.640000	51.190000	699.000000	0.000000	310.000000	54.000000	-13.000000	-22.000000
1.030000	54.500000	50.880000	702.000000	0.000000	310.000000	54.000000	-14.000000	-31.000000
1.040000	54.340000	50.520000	700.000000	0.000000	310.000000	54.000000	-16.000000	-36.000000
1.050000	54.220000	50.110000	690.000000	0.000000	309.000000	55.000000	-12.000000	-41.000000
1.060000	54.130000	49.670000	708.000000	0.000000	310.000000	55.000000	-9.000000	-44.000000
1.070000	54.130000	49.350000	725.000000	0.000000	310.000000	55.000000	0.000000	-32.000000
1.080000	54.130000	49.090000	733.000000	0.000000	310.000000	55.000000	0.000000	-26.000000
1.090000	54.210000	49.010000	722.000000	0.000000	310.000000	55.000000	8.000000	-8.000000
1.100000	54.380000	49.010000	720.000000	0.000000	310.000000	55.000000	17.000000	0.000000
1.110000	54.620000	49.230000	721.000000	0.000000	311.000000	55.000000	24.000000	22.000000
1.120000	54.900000	49.470000	705.000000	0.000000	311.000000	55.000000	28.000000	24.000000
1.130000	55.110000	49.760000	697.000000	0.000000	311.000000	55.000000	21.000000	29.000000
1.140000	55.280000	49.990000	664.000000	0.000000	311.000000	55.000000	17.000000	23.000000
1.150000	55.400000	50.180000	659.000000	0.000000	310.000000	55.000000	12.000000	19.000000
1.160000	55.510000	50.320000	653.000000	0.000000	310.000000	55.000000	11.000000	14.000000
1.170000	55.580000	50.400000	659.000000	0.000000	309.000000	55.000000	7.000000	8.000000
1.180000	55.580000	50.400000	667.000000	0.000000	309.000000	55.000000	0.000000	0.000000
1.190000	55.580000	50.400000	673.000000	0.000000	309.000000	55.000000	0.000000	0.000000
1.200000	55.520000	50.310000	667.000000	0.000000	309.000000	55.000000	-6.000000	-9.000000
1.210000	55.400000	50.130000	667.000000	0.000000	309.000000	55.000000	-12.000000	-18.000000
1.220000	55.230000	49.880000	666.000000	0.000000	309.000000	55.000000	-17.000000	-25.000000
1.230000	55.070000	49.600000	676.000000	0.000000	309.000000	55.000000	-16.000000	-28.000000
1.240000	54.920000	49.300000	685.000000	0.000000	309.000000	55.000000	-15.000000	-30.000000
1.250000	54.850000	48.960000	719.000000	0.000000	309.000000	55.000000	-7.000000	-34.000000
1.260000	54.850000	48.670000	742.000000	0.000000	309.000000	55.000000	0.000000	-29.000000
1.270000	54.910000	48.410000	784.000000	0.000000	310.000000	54.000000	6.000000	-26.000000
1.280000	55.060000	48.320000	777.000000	0.000000	310.000000	54.000000	15.000000	-9.000000
1.290000	55.250000	48.370000	763.000000	0.000000	311.000000	54.000000	19.000000	5.000000
1.300000	55.570000	48.510000	721.000000	0.000000	311.000000	54.000000	32.000000	14.000000
1.310000	55.970000	48.850000	650.000000	0.000000	311.000000	54.000000	40.000000	34.000000
1.320000	56.430000	49.380000	591.000000	0.000000	313.000000	53.000000	46.000000	53.000000
1.330000	56.990000	50.040000	501.000000	0.000000	313.000000	53.000000	56.000000	66.000000
1.340000	57.490000	50.590000	438.000000	0.000000	311.000000	54.000000	50.000000	55.000000
1.350000	57.810000	51.020000	394.000000	0.000000	310.000000	53.000000	32.000000	43.000000
1.360000	58.030000	51.370000	413.000000	0.000000	310.000000	53.000000	22.000000	35.000000
1.370000	58.110000	51.570000	473.000000	0.000000	309.000000	52.000000	8.000000	20.000000
1.380000	58.110000	51.650000	542.000000	0.000000	308.000000	53.000000	0.000000	8.000000
1.390000	58.110000	51.650000	616.000000	0.000000	307.000000	52.000000	0.000000	0.000000
1.400000	58.010000	51.540000	652.000000	0.000000	307.000000	52.000000	-10.000000	-11.000000
1.410000	57.750000	51.160000	687.000000	0.000000	306.000000	51.000000	-26.000000	-38.000000
1.420000	57.390000	50.610000	725.000000	0.000000	306.000000	51.000000	-36.000000	-55.000000
1.430000	56.920000	49.710000	737.000000	0.000000	307.000000	52.000000	-47.000000	-90.000000
1.440000	56.330000	48.620000	752.000000	0.000000	307.000000	52.000000	-59.000000	-109.000000
1.450000	55.670000	47.400000	767.000000	0.000000	307.000000	52.000000	-66.000000	-122.000000
1.460000	55.080000	46.200000	788.000000	0.000000	308.000000	53.000000	-59.000000	-120.000000
1.470000	54.630000	45.380000	783.000000	0.000000	310.000000	53.000000	-45.000000	-82.000000
1.480000	54.280000	44.820000	794.000000	0.000000	310.000000	53.000000	-35.000000	-56.000000
1.490000	54.170000	44.700000	768.000000	0.000000	313.000000	53.000000	-11.000000	-12.000000
1.500000	54.290000	44.850000	763.000000	0.000000	314.000000	52.000000	12.000000	15.000000
1.510000	54.570000	45.190000	753.000000	0.000000	315.000000	52.000000	28.000000	34.000000
1.520000	55.030000	46.020000	745.000000	0.000000	315.000000	52.000000	46.000000	83.000000
1.530000	55.550000	46.900000	708.000000	0.000000	316.000000	51.000000	52.000000	88.000000
1.540000	56.120000	47.840000	656.000000	0.000000	316.000000	51.000000	57.000000	94.000000
1.550000	56.700000	48.600000	636.000000	0.000000	315.000000	52.000000	58.000000	76.000000
1.560000	57.190000	49.240000	627.000000	0.000000	314.000000	51.000000	49.000000	64.000000
1.570000	57.540000	49.700000	631.000000	0.000000	313.000000	52.000000	35.000000	46.000000
1.580000	57.800000	49.990000	637.000000	0.000000	310.000000	52.000000	26.000000	29.000000
1.590000	58.010000	50.170000	671.000000	0.000000	309.000000	52.000000	21.000000	18.000000
1.600000	58.120000	50.170000	699.000000	0.000000	309.000000	52.000000	11.000000	0.000000
1.610000	58.120000	50.170000	699.000000	0.000000	307.000000	52.000000	0.000000	0.000000
1.620000	58.120000	50.120000	696.000000	0.000000	307.000000	52.000000	0.000000	-5.000000
1.630000	58.120000	50.070000	672.000000	0.000000	305.000000	53.000000	0.000000	-5.000000
1.640000	58.120000	50.070000	668.000000	0.000000	305.000000	53.000000	0.000000	0.000000
1.650000	58.120000	50.070000	656.000000	0.000000	305.000000	53.000000	0.000000	0.000000
1.660000	58.120000	50.070000	650.000000	0.000000	305.000000	53.000000	0.000000	0.000000
1.670000	58.120000	50.070000	646.000000	0.000000	305.000000	53.000000	0.000000	0.000000
1.680000	58.120000	50.070000	647.000000	0.000000	305.000000	53.000000	0.000000	0.000000
1.690000	58.120000	50.070000	613.000000	0.000000	305.000000	53.000000	0.000000	0.000000
1.700000	58.120000	50.070000	602.000000	0.000000	305.000000	53.000000	0.000000	0.000000
1.710000	58.120000	50.070000	574.000000	0.000000	305.000000	53.000000	0.000000	0.000000
1.720000	58.120000	50.070000	543.000000	0.000000	305.000000	53.000000	0.000000	0.000000
1.730000	58.120000	50.010000	519.000000	0.000000	305.000000	53.000000	0.000000	-6.000000
1.740000	58.060000	50.010000	493.000000	0.000000	305.000000	53.000000	-6.000000	0.000000
1.750000	58.060000	49.930000	461.000000	0.000000	305.000000	53.000000	0.000000	-8.000000
1.760000	58.060000	49.880000	448.000000	0.000000	305.000000	53.000000	0.000000	-5.000000
1.770000	58.060000	49.770000	448.000000	0.000000	305.000000	53.000000	0.000000	-11.000000
1.780000	57.990000	49.670000	456.000000	0.000000	305.000000	53.000000	-7.000000	-10.000000
1.790000	57.920000	49.460000	464.000000	0.000000	305.000000	53.000000	-7.000000	-21.000000
1.800000	57.850000	49.190000	481.000000	0.000000	305.000000	53.000000	-7.000000	-27.000000
1.810000	57.790000	48.900000	499.000000	0.000000	305.000000	53.000000	-6.000000	-29.000000
1.820000	57.790000	48.650000	550.000000	0.000000	305.000000	53.000000	0.000000	-25.000000
1.830000	57.790000	48.560000	570.000000	0.000000	306.000000	51.000000	0.000000	-9.000000
1.840000	57.840000	48.560000	588.000000	0.000000	306.000000	51.000000	5.000000	0.000000
1.850000	57.960000	48.640000	589.000000	0.000000	307.000000	51.000000	12.000000	8.000000
1.860000	58.220000	48.880000	595.000000	0.000000	307.000000	51.000000	26.000000	24.000000
1.870000	58.570000	49.230000	588.000000	0.000000	308.000000	52.000000	35.000000	35.000000
1.880000	58.960000	49.690000	586.000000	0.000000	308.000000	52.000000	39.000000	46.000000
1.890000	59.400000	50.140000	589.000000	0.000000	308.000000	52.000000	44.000000	45.000000
1.900000	59.860000	50.570000	592.000000	0.000000	308.000000	52.000000	46.000000	43.000000
1.910000	60.190000	50.830000	591.000000	0.000000	307.000000	52.000000	33.000000	26.000000
1.920000	60.470000	51.000000	597.000000	0.000000	308.000000	53.000000	28.000000	17.000000
1.930000	60.650000	51.220000	628.000000	0.000000	308.000000	53.000000	18.000000	22.000000
1.940000	60.740000	51.310000	643.000000	0.000000	308.000000	53.000000	9.000000	9.000000
1.950000	60.740000	51.310000	637.000000	0.000000	308.000000	53.000000	0.000000	0.000000
1.960000	60.640000	51.310000	642.000000	0.000000	308.000000	53.000000	-10.000000	0.000000
1.970000	60.480000	51.040000	636.000000	0.000000	308.000000	53.000000	-16.000000	-27.000000
1.980000	60.170000	50.690000	619.000000	0.000000	307.000000	53.000000	-31.000000	-35.000000
1.990000	59.770000	50.180000	597.000000	0.000000	307.000000	53.000000	-40.000000	-51.000000
2.000000	59.280000	49.490000	586.000000	0.000000	307.000000	53.000000	-49.000000	-69.000000
2.010000	58.850000	48.670000	574.000000	0.000000	307.000000	53.000000	-43.000000	-82.000000
2.020000	58.460000	48.010000	588.000000	0.000000	308.000000	53.000000	-39.000000	-66.000000
2.030000	58.250000	47.630000	592.000000	0.000000	308.000000	53.000000	-21.000000	-38.000000
2.040000	58.250000	47.450000	619.000000	0.000000	309.000000	52.000000	0.000000	-18.000000
2.050000	58.250000	47.450000	617.000000	0.000000	309.000000	52.000000	0.000000	0.000000
2.060000	58.480000	47.680000	613.000000	0.000000	309.000000	51.000000	23.000000	23.000000
2.070000	58.850000	47.980000	609.000000	0.000000	309.000000	51.000000	37.000000	30.000000
2.080000	59.330000	48.400000	594.000000	0.000000	309.000000	51.000000	48.000000	42.000000
2.090000	59.820000	48.850000	581.000000	0.000000	310.000000	51.000000	49.000000	45.000000
2.100000	60.230000	49.150000	581.000000	0.000000	310.000000	51.000000	41.000000	30.000000
2.110000	60.410000	49.340000	570.000000	0.000000	310.000000	52.000000	18.000000	19.000000
2.120000	60.470000	49.340000	545.000000	0.000000	310.000000	52.000000	6.000000	0.000000
2.130000	60.470000	49.340000	529.000000	0.000000	310.000000	52.000000	0.000000	0.000000
2.140000	60.410000	49.340000	522.000000	0.000000	309.000000	52.000000	-6.000000	0.000000
2.150000	60.350000	49.280000	512.000000	0.000000	309.000000	52.000000	-6.000000	-6.000000
2.160000	60.270000	49.210000	509.000000	0.000000	309.000000	52.000000	-8.000000	-7.000000
2.170000	60.160000	49.140000	501.000000	0.000000	309.000000	52.000000	-11.000000	-7.000000
2.180000	60.050000	49.070000	504.000000	0.000000	309.000000	52.000000	-11.000000	-7.000000
2.190000	59.940000	48.980000	514.000000	0.000000	309.000000	52.000000	-11.000000	-9.000000
2.200000	59.830000	48.850000	527.000000	0.000000	309.000000	52.000000	-11.000000	-13.000000
2.210000	59.740000	48.710000	546.000000	0.000000	309.000000	52.000000	-9.000000	-14.000000
