t	x	y	pressure	penup	azimuth	inclination	v_x	v_y
0.000000	13.690000	51.060000	98.000000	1.000000	186.000000	65.000000	0.000000	0.000000
0.010000	13.690000	51.060000	272.000000	0.000000	186.000000	65.000000	0.000000	0.000000
0.020000	13.690000	51.060000	349.000000	0.000000	188.000000	64.000000	0.000000	0.000000
0.030000	13.690000	51.060000	418.000000	0.000000	188.000000	64.000000	0.000000	0.000000
0.040000	13.740000	50.700000	477.000000	0.000000	190.000000	64.000000	5.000000	-36.000000
0.050000	13.640000	50.240000	559.000000	0.000000	192.000000	63.000000	-10.000000	-46.000000
0.060000	13.510000	49.410000	659.000000	0.000000	192.000000	63.000000	-13.000000	-83.000000
0.070000	13.340000	48.250000	728.000000	0.000000	195.000000	64.000000	-17.000000	-116.000000
0.080000	13.150000	46.860000	757.000000	0.000000	197.000000	64.000000	-19.000000	-139.000000
0.090000	13.090000	45.620000	762.000000	0.000000	200.000000	65.000000	-6.000000	-124.000000
0.100000	13.090000	44.600000	768.000000	0.000000	200.000000	66.000000	0.000000	-102.000000
0.110000	13.090000	43.720000	768.000000	0.000000	201.000000	67.000000	0.000000	-88.000000
0.120000	13.190000	43.060000	760.000000	0.000000	201.000000	67.000000	10.000000	-66.000000
0.130000	13.380000	42.680000	762.000000	0.000000	202.000000	67.000000	19.000000	-38.000000
0.140000	13.640000	42.500000	773.000000	0.000000	204.000000	68.000000	26.000000	-18.000000
0.150000	13.970000	42.580000	777.000000	0.000000	204.000000	68.000000	33.000000	8.000000
0.160000	14.390000	42.980000	768.000000	0.000000	204.000000	68.000000	42.000000	40.000000
0.170000	14.880000	43.590000	751.000000	0.000000	204.000000	68.000000	49.000000	61.000000
0.180000	15.360000	44.380000	739.000000	0.000000	204.000000	68.000000	48.000000	79.000000
0.190000	15.630000	45.260000	758.000000	0.000000	206.000000	68.000000	27.000000	88.000000
0.200000	15.760000	46.210000	765.000000	0.000000	206.000000	68.000000	13.000000	95.000000
0.210000	15.690000	46.770000	785.000000	0.000000	206.000000	68.000000	-7.000000	56.000000
0.220000	15.690000	47.110000	817.000000	0.000000	208.000000	68.000000	0.000000	34.000000
0.230000	15.770000	47.300000	828.000000	0.000000	207.000000	67.000000	8.000000	19.000000
0.240000	15.770000	47.300000	833.000000	0.000000	207.000000	67.000000	0.000000	0.000000
0.250000	15.770000	47.300000	828.000000	0.000000	206.000000	66.000000	0.000000	0.000000
0.260000	15.720000	46.770000	834.000000	0.000000	206.000000	66.000000	-5.000000	-53.000000
0.270000	15.640000	46.090000	836.000000	0.000000	205.000000	65.000000	-8.000000	-68.000000
0.280000	15.570000	45.160000	855.000000	0.000000	203.000000	65.000000	-7.000000	-93.000000
0.290000	15.490000	44.000000	905.000000	0.000000	203.000000	65.000000	-8.000000	-116.000000
0.300000	15.370000	42.680000	930.000000	0.000000	204.000000	66.000000	-12.000000	-132.000000
0.310000	15.220000	41.620000	942.000000	0.000000	204.000000	66.000000	-15.000000	-106.000000
0.320000	15.170000	40.840000	945.000000	0.000000	204.000000	66.000000	-5.000000	-78.000000
0.330000	15.110000	40.260000	923.000000	0.000000	205.000000	67.000000	-6.000000	-58.000000
0.340000	15.050000	39.990000	894.000000	0.000000	205.000000	67.000000	-6.000000	-27.000000
0.350000	15.050000	39.930000	858.000000	0.000000	206.000000	68.000000	0.000000	-6.000000
0.360000	15.050000	40.010000	755.000000	0.000000	206.000000	68.000000	0.000000	8.000000
0.370000	15.050000	40.170000	572.000000	0.000000	206.000000	68.000000	0.000000	16.000000
0.380000	15.110000	40.310000	250.000000	0.000000	207.000000	69.000000	6.000000	14.000000
0.390000	15.110000	40.310000	0.000000	1.000000	207.000000	69.000000	0.000000	0.000000
0.400000	15.270000	40.620000	0.000000	0.000000	205.000000	69.000000	16.000000	31.000000
0.410000	15.380000	40.880000	0.000000	0.000000	205.000000	69.000000	11.000000	26.000000
0.420000	15.490000	41.200000	0.000000	0.000000	205.000000	69.000000	11.000000	32.000000
0.430000	15.620000	41.560000	0.000000	0.000000	205.000000	69.000000	13.000000	36.000000
0.440000	15.850000	41.980000	0.000000	0.000000	204.000000	68.000000	23.000000	42.000000
0.450000	16.140000	42.440000	0.000000	0.000000	206.000000	68.000000	29.000000	46.000000
0.460000	16.320000	42.720000	0.000000	0.000000	205.000000	67.000000	18.000000	28.000000
0.470000	16.500000	42.960000	0.000000	0.000000	205.000000	67.000000	18.000000	24.000000
0.480000	16.660000	43.060000	0.000000	0.000000	206.000000	66.000000	16.000000	10.000000
0.490000	16.800000	43.060000	0.000000	0.000000	206.000000	66.000000	14.000000	0.000000
0.500000	16.880000	43.180000	0.000000	0.000000	206.000000	66.000000	8.000000	12.000000
0.510000	16.930000	43.250000	0.000000	0.000000	207.000000	65.000000	5.000000	7.000000
0.520000	16.930000	43.300000	0.000000	0.000000	207.000000	65.000000	0.000000	5.000000
0.530000	16.930000	43.300000	0.000000	0.000000	205.000000	65.000000	0.000000	0.000000
0.540000	16.930000	43.300000	0.000000	0.000000	206.000000	66.000000	0.000000	0.000000
0.550000	16.870000	43.300000	0.000000	0.000000	206.000000	66.000000	-6.000000	0.000000
0.560000	16.870000	43.300000	0.000000	0.000000	206.000000	66.000000	0.000000	0.000000
0.570000	16.820000	43.230000	0.000000	0.000000	206.000000	66.000000	-5.000000	-7.000000
0.580000	16.820000	43.230000	0.000000	0.000000	206.000000	66.000000	0.000000	0.000000
0.590000	16.820000	43.110000	0.000000	0.000000	206.000000	66.000000	0.000000	-12.000000
0.600000	16.880000	43.010000	0.000000	0.000000	206.000000	66.000000	6.000000	-10.000000
0.610000	16.880000	42.920000	0.000000	0.000000	206.000000	66.000000	0.000000	-9.000000
0.620000	16.880000	42.870000	0.000000	0.000000	206.000000	66.000000	0.000000	-5.000000
0.630000	16.880000	42.870000	0.000000	0.000000	206.000000	66.000000	0.000000	0.000000
0.640000	16.830000	42.870000	0.000000	0.000000	207.000000	67.000000	-5.000000	0.000000
0.650000	16.830000	42.870000	0.000000	0.000000	207.000000	67.000000	0.000000	0.000000
0.660000	16.830000	42.870000	53.000000	1.000000	207.000000	67.000000	0.000000	0.000000
0.670000	16.830000	42.870000	148.000000	0.000000	207.000000	67.000000	0.000000	0.000000
0.680000	16.830000	42.870000	218.000000	0.000000	207.000000	67.000000	0.000000	0.000000
0.690000	16.830000	42.870000	285.000000	0.000000	209.000000	66.000000	0.000000	0.000000
0.700000	16.830000	42.870000	327.000000	0.000000	209.000000	66.000000	0.000000	0.000000
0.710000	16.830000	42.870000	364.000000	0.000000	209.000000	66.000000	0.000000	0.000000
0.720000	16.830000	42.870000	391.000000	0.000000	209.000000	66.000000	0.000000	0.000000
0.730000	16.830000	42.870000	423.000000	0.000000	209.000000	66.000000	0.000000	0.000000
0.740000	16.830000	42.870000	455.000000	0.000000	209.000000	66.000000	0.000000	0.000000
0.750000	16.830000	42.870000	490.000000	0.000000	209.000000	66.000000	0.000000	0.000000
0.760000	16.830000	42.870000	512.000000	0.000000	211.000000	66.000000	0.000000	0.000000
0.770000	16.830000	42.870000	529.000000	0.000000	211.000000	66.000000	0.000000	0.000000
0.780000	16.830000	42.870000	537.000000	0.000000	211.000000	66.000000	0.000000	0.000000
0.790000	16.830000	42.870000	556.000000	0.000000	211.000000	66.000000	0.000000	0.000000
0.800000	16.830000	42.870000	561.000000	0.000000	211.000000	66.000000	0.000000	0.000000
0.810000	16.830000	42.870000	578.000000	0.000000	209.000000	66.000000	0.000000	0.000000
0.820000	16.830000	42.870000	591.000000	0.000000	209.000000	66.000000	0.000000	0.000000
0.830000	16.830000	42.870000	592.000000	0.000000	209.000000	66.000000	0.000000	0.000000
0.840000	16.830000	42.870000	602.000000	0.000000	209.000000	66.000000	0.000000	0.000000
0.850000	16.830000	42.870000	611.000000	0.000000	209.000000	66.000000	0.000000	0.000000
0.860000	16.830000	42.870000	620.000000	0.000000	209.000000	66.000000	0.000000	0.000000
0.870000	16.830000	42.870000	613.000000	0.000000	209.000000	66.000000	0.000000	0.000000
0.880000	16.830000	42.870000	624.000000	0.000000	209.000000	66.000000	0.000000	0.000000
0.890000	16.830000	42.870000	645.000000	0.000000	209.000000	66.000000	0.000000	0.000000
0.900000	16.830000	42.870000	656.000000	0.000000	209.000000	66.000000	0.000000	0.000000
0.910000	16.830000	42.870000	670.000000	0.000000	209.000000	66.000000	0.000000	0.000000
0.920000	16.830000	42.870000	696.000000	0.000000	209.000000	66.000000	0.000000	0.000000
0.930000	16.830000	42.870000	699.000000	0.000000	208.000000	65.000000	0.000000	0.000000
0.940000	16.830000	42.870000	717.000000	0.000000	208.000000	65.000000	0.000000	0.000000
0.950000	16.830000	42.870000	722.000000	0.000000	208.000000	65.000000	0.000000	0.000000
0.960000	16.830000	42.870000	727.000000	0.000000	208.000000	65.000000	0.000000	0.000000
0.970000	17.110000	42.760000	736.000000	0.000000	208.000000	65.000000	28.000000	-11.000000
0.980000	17.220000	42.830000	751.000000	0.000000	208.000000	65.000000	11.000000	7.000000
0.990000	17.220000	42.830000	758.000000	0.000000	208.000000	65.000000	0.000000	0.000000
1.000000	17.350000	43.020000	753.000000	0.000000	208.000000	65.000000	13.000000	19.000000
1.010000	17.510000	43.260000	759.000000	0.000000	208.000000	65.000000	16.000000	24.000000
1.020000	17.690000	43.530000	751.000000	0.000000	210.000000	65.000000	18.000000	27.000000
1.030000	17.900000	43.910000	751.000000	0.000000	210.000000	65.000000	21.000000	38.000000
1.040000	18.090000	44.370000	758.000000	0.000000	210.000000	65.000000	19.000000	46.000000
1.050000	18.260000	44.790000	758.000000	0.000000	210.000000	65.000000	17.000000	42.000000
1.060000	18.410000	45.180000	757.000000	0.000000	212.000000	65.000000	15.000000	39.000000
1.070000	18.520000	45.510000	763.000000	0.000000	212.000000	65.000000	11.000000	33.000000
1.080000	18.610000	45.780000	763.000000	0.000000	212.000000	65.000000	9.000000	27.000000
1.090000	18.610000	46.000000	756.000000	0.000000	214.000000	64.000000	0.000000	22.000000
1.100000	18.670000	46.080000	757.000000	0.000000	214.000000	64.000000	6.000000	8.000000
1.110000	18.670000	46.080000	750.000000	0.000000	214.000000	64.000000	0.000000	0.000000
1.120000	18.670000	46.020000	757.000000	0.000000	214.000000	64.000000	0.000000	-6.000000
1.130000	18.670000	45.930000	758.000000	0.000000	214.000000	64.000000	0.000000	-9.000000
1.140000	18.590000	45.620000	755.000000	0.000000	214.000000	64.000000	-8.000000	-31.000000
1.150000	18.500000	45.190000	758.000000	0.000000	214.000000	64.000000	-9.000000	-43.000000
1.160000	18.500000	44.800000	758.000000	0.000000	214.000000	64.000000	0.000000	-39.000000
1.170000	18.610000	44.440000	763.000000	0.000000	214.000000	64.000000	11.000000	-36.000000
1.180000	18.690000	44.130000	763.000000	0.000000	214.000000	64.000000	8.000000	-31.000000
1.190000	18.770000	43.830000	750.000000	0.000000	214.000000	64.000000	8.000000	-30.000000
1.200000	18.920000	43.640000	751.000000	0.000000	214.000000	64.000000	15.000000	-19.000000
1.210000	19.110000	43.510000	750.000000	0.000000	212.000000	63.000000	19.000000	-13.000000
1.220000	19.350000	43.510000	750.000000	0.000000	212.000000	63.000000	24.000000	0.000000
1.230000	19.620000	43.680000	755.000000	0.000000	212.000000	63.000000	27.000000	17.000000
1.240000	19.910000	43.930000	746.000000	0.000000	212.000000	63.000000	29.000000	25.000000
1.250000	20.130000	44.300000	740.000000	0.000000	212.000000	63.000000	22.000000	37.000000
1.260000	20.330000	44.670000	742.000000	0.000000	212.000000	63.000000	20.000000	37.000000
1.270000	20.480000	45.040000	740.000000	0.000000	212.000000	63.000000	15.000000	37.000000
1.280000	20.480000	45.310000	745.000000	0.000000	212.000000	63.000000	0.000000	27.000000
1.290000	20.480000	45.530000	751.000000	0.000000	214.000000	63.000000	0.000000	22.000000
1.300000	20.480000	45.600000	749.000000	0.000000	214.000000	63.000000	0.000000	7.000000
1.310000	20.430000	45.600000	748.000000	0.000000	214.000000	63.000000	-5.000000	0.000000
1.320000	20.430000	45.550000	743.000000	0.000000	214.000000	63.000000	0.000000	-5.000000
1.330000	20.380000	45.490000	746.000000	0.000000	216.000000	62.000000	-5.000000	-6.000000
1.340000	20.380000	45.300000	748.000000	0.000000	214.000000	63.000000	0.000000	-19.000000
1.350000	20.280000	45.040000	749.000000	0.000000	214.000000	63.000000	-10.000000	-26.000000
1.360000	20.280000	44.770000	758.000000	0.000000	214.000000	63.000000	0.000000	-27.000000
1.370000	20.280000	44.500000	760.000000	0.000000	214.000000	63.000000	0.000000	-27.000000
1.380000	20.280000	44.260000	763.000000	0.000000	214.000000	63.000000	0.000000	-24.000000
1.390000	20.340000	44.110000	763.000000	0.000000	214.000000	63.000000	6.000000	-15.000000
1.400000	20.400000	44.000000	750.000000	0.000000	214.000000	63.000000	6.000000	-11.000000
1.410000	20.490000	43.900000	750.000000	0.000000	211.000000	63.000000	9.000000	-10.000000
1.420000	20.620000	43.900000	753.000000	0.000000	211.000000	63.000000	13.000000	0.000000
1.430000	20.780000	43.900000	757.000000	0.000000	211.000000	63.000000	16.000000	0.000000
1.440000	20.960000	44.020000	753.000000	0.000000	212.000000	63.000000	18.000000	12.000000
1.450000	21.200000	44.270000	761.000000	0.000000	212.000000	63.000000	24.000000	25.000000
1.460000	21.400000	44.630000	761.000000	0.000000	214.000000	63.000000	20.000000	36.000000
1.470000	21.530000	44.900000	761.000000	0.000000	214.000000	63.000000	13.000000	27.000000
1.480000	21.530000	45.010000	761.000000	0.000000	214.000000	63.000000	0.000000	11.000000
1.490000	21.530000	45.010000	758.000000	0.000000	214.000000	63.000000	0.000000	0.000000
1.500000	21.530000	45.010000	758.000000	0.000000	214.000000	63.000000	0.000000	0.000000
1.510000	21.530000	45.010000	758.000000	0.000000	214.000000	63.000000	0.000000	0.000000
1.520000	21.530000	44.930000	757.000000	0.000000	214.000000	63.000000	0.000000	-8.000000
1.530000	21.450000	44.790000	763.000000	0.000000	214.000000	63.000000	-8.000000	-14.000000
1.540000	21.390000	44.590000	753.000000	0.000000	214.000000	63.000000	-6.000000	-20.000000
1.550000	21.390000	44.420000	754.000000	0.000000	213.000000	62.000000	0.000000	-17.000000
1.560000	21.390000	44.300000	759.000000	0.000000	213.000000	62.000000	0.000000	-12.000000
1.570000	21.390000	44.220000	762.000000	0.000000	213.000000	62.000000	0.000000	-8.000000
1.580000	21.390000	44.150000	767.000000	0.000000	213.000000	62.000000	0.000000	-7.000000
1.590000	21.390000	44.150000	773.000000	0.000000	213.000000	62.000000	0.000000	0.000000
1.600000	21.490000	44.070000	773.000000	0.000000	213.000000	62.000000	10.000000	-8.000000
1.610000	21.620000	44.070000	773.000000	0.000000	213.000000	62.000000	13.000000	0.000000
1.620000	21.780000	44.070000	770.000000	0.000000	213.000000	62.000000	16.000000	0.000000
1.630000	21.990000	44.210000	760.000000	0.000000	213.000000	62.000000	21.000000	14.000000
1.640000	22.220000	44.340000	750.000000	0.000000	213.000000	62.000000	23.000000	13.000000
1.650000	22.530000	44.650000	754.000000	0.000000	213.000000	62.000000	31.000000	31.000000
1.660000	22.790000	45.090000	739.000000	0.000000	213.000000	62.000000	26.000000	44.000000
1.670000	23.050000	45.530000	740.000000	0.000000	214.000000	62.000000	26.000000	44.000000
1.680000	23.330000	45.950000	739.000000	0.000000	214.000000	62.000000	28.000000	42.000000
1.690000	23.510000	46.330000	742.000000	0.000000	214.000000	62.000000	18.000000	38.000000
1.700000	23.670000	46.640000	745.000000	0.000000	216.000000	61.000000	16.000000	31.000000
1.710000	23.810000	46.870000	758.000000	0.000000	216.000000	61.000000	14.000000	23.000000
1.720000	23.910000	46.930000	754.000000	0.000000	216.000000	61.000000	10.000000	6.000000
1.730000	23.910000	46.930000	749.000000	0.000000	218.000000	61.000000	0.000000	0.000000
1.740000	23.850000	46.770000	751.000000	0.000000	216.000000	60.000000	-6.000000	-16.000000
1.750000	23.760000	46.290000	760.000000	0.000000	216.000000	60.000000	-9.000000	-48.000000
1.760000	23.630000	45.590000	757.000000	0.000000	216.000000	60.000000	-13.000000	-70.000000
1.770000	23.490000	44.760000	785.000000	0.000000	216.000000	60.000000	-14.000000	-83.000000
1.780000	23.400000	43.760000	800.000000	0.000000	216.000000	60.000000	-9.000000	-100.000000
1.790000	23.340000	42.640000	827.000000	0.000000	216.000000	61.000000	-6.000000	-112.000000
1.800000	23.340000	41.720000	836.000000	0.000000	216.000000	61.000000	0.000000	-92.000000
1.810000	23.240000	40.910000	846.000000	0.000000	216.000000	61.000000	-10.000000	-81.000000
1.820000	23.150000	40.180000	849.000000	0.000000	216.000000	62.000000	-9.000000	-73.000000
1.830000	23.080000	39.690000	851.000000	0.000000	216.000000	62.000000	-7.000000	-49.000000
1.840000	23.030000	39.360000	851.000000	0.000000	217.000000	63.000000	-5.000000	-33.000000
1.850000	23.030000	39.130000	854.000000	0.000000	217.000000	63.000000	0.000000	-23.000000
1.860000	22.960000	39.130000	869.000000	0.000000	217.000000	63.000000	-7.000000	0.000000
1.870000	22.960000	39.320000	853.000000	0.000000	219.000000	64.000000	0.000000	19.000000
1.880000	22.960000	39.620000	867.000000	0.000000	219.000000	64.000000	0.000000	30.000000
1.890000	23.040000	40.200000	869.000000	0.000000	219.000000	64.000000	8.000000	58.000000
1.900000	23.160000	40.780000	851.000000	0.000000	219.000000	64.000000	12.000000	58.000000
1.910000	23.310000	41.430000	852.000000	0.000000	219.000000	64.000000	15.000000	65.000000
1.920000	23.390000	42.140000	842.000000	0.000000	219.000000	64.000000	8.000000	71.000000
1.930000	23.560000	42.710000	837.000000	0.000000	219.000000	64.000000	17.000000	57.000000
1.940000	23.800000	43.260000	834.000000	0.000000	217.000000	63.000000	24.000000	55.000000
1.950000	24.080000	43.720000	834.000000	0.000000	217.000000	63.000000	28.000000	46.000000
1.960000	24.330000	44.100000	836.000000	0.000000	217.000000	63.000000	25.000000	38.000000
1.970000	24.520000	44.400000	843.000000	0.000000	216.000000	62.000000	19.000000	30.000000
1.980000	24.670000	44.590000	852.000000	0.000000	217.000000	62.000000	15.000000	19.000000
1.990000	24.740000	44.700000	855.000000	0.000000	217.000000	62.000000	7.000000	11.000000
2.000000	24.790000	44.800000	866.000000	0.000000	216.000000	61.000000	5.000000	10.000000
2.010000	24.790000	44.880000	854.000000	0.000000	218.000000	61.000000	0.000000	8.000000
2.020000	24.840000	44.880000	854.000000	0.000000	218.000000	61.000000	5.000000	0.000000
2.030000	24.840000	44.880000	853.000000	0.000000	218.000000	61.000000	0.000000	0.000000
2.040000	24.840000	44.880000	866.000000	0.000000	219.000000	60.000000	0.000000	0.000000
2.050000	24.840000	44.880000	864.000000	0.000000	219.000000	60.000000	0.000000	0.000000
2.060000	24.840000	44.880000	866.000000	0.000000	219.000000	60.000000	0.000000	0.000000
2.070000	24.840000	44.880000	864.000000	0.000000	219.000000	60.000000	0.000000	0.000000
2.080000	24.840000	44.510000	853.000000	0.000000	219.000000	60.000000	0.000000	-37.000000
2.090000	24.890000	44.340000	855.000000	0.000000	219.000000	60.000000	5.000000	-17.000000
2.100000	24.890000	44.230000	864.000000	0.000000	219.000000	60.000000	0.000000	-11.000000
2.110000	24.950000	44.150000	873.000000	0.000000	219.000000	60.000000	6.000000	-8.000000
2.120000	24.950000	44.150000	902.000000	0.000000	219.000000	60.000000	0.000000	0.000000
2.130000	24.950000	44.090000	921.000000	0.000000	219.000000	60.000000	0.000000	-6.000000
2.140000	24.950000	44.090000	950.000000	0.000000	219.000000	60.000000	0.000000	0.000000
2.150000	24.950000	44.090000	964.000000	0.000000	219.000000	60.000000	0.000000	0.000000
2.160000	24.950000	44.090000	994.000000	0.000000	219.000000	60.000000	0.000000	0.000000
2.170000	24.950000	44.090000	1014.000000	0.000000	218.000000	61.000000	0.000000	0.000000
2.180000	24.950000	44.090000	1023.000000	0.000000	218.000000	61.000000	0.000000	0.000000
2.190000	24.950000	44.030000	1023.000000	0.000000	218.000000	61.000000	0.000000	-6.000000
2.200000	24.900000	44.030000	1023.000000	0.000000	218.000000	61.000000	-5.000000	0.000000
2.210000	24.900000	44.030000	1023.000000	0.000000	216.000000	61.000000	0.000000	0.000000
2.220000	24.900000	44.030000	1023.000000	0.000000	216.000000	61.000000	0.000000	0.000000
