t	x	y	pressure	penup	azimuth	inclination	v_x	v_y
0.000000	107.180000	69.310000	65.000000	1.000000	157.000000	57.000000	0.000000	0.000000
0.010000	107.180000	69.310000	172.000000	0.000000	159.000000	57.000000	0.000000	0.000000
0.020000	106.630000	69.420000	249.000000	0.000000	159.000000	57.000000	-55.000000	11.000000
0.030000	106.070000	69.610000	325.000000	0.000000	159.000000	57.000000	-56.000000	19.000000
0.040000	105.200000	69.610000	417.000000	0.000000	159.000000	57.000000	-87.000000	0.000000
0.050000	104.110000	69.500000	522.000000	0.000000	160.000000	56.000000	-109.000000	-11.000000
0.060000	102.760000	69.170000	570.000000	0.000000	160.000000	56.000000	-135.000000	-33.000000
0.070000	101.250000	68.700000	588.000000	0.000000	160.000000	56.000000	-151.000000	-47.000000
0.080000	99.640000	68.120000	611.000000	0.000000	160.000000	56.000000	-161.000000	-58.000000
0.090000	98.020000	67.400000	617.000000	0.000000	160.000000	55.000000	-162.000000	-72.000000
0.100000	96.540000	66.580000	625.000000	0.000000	159.000000	55.000000	-148.000000	-82.000000
0.110000	95.150000	65.670000	636.000000	0.000000	158.000000	56.000000	-139.000000	-91.000000
0.120000	94.010000	64.760000	642.000000	0.000000	158.000000	56.000000	-114.000000	-91.000000
0.130000	93.250000	63.870000	638.000000	0.000000	158.000000	56.000000	-76.000000	-89.000000
0.140000	92.730000	63.140000	625.000000	0.000000	158.000000	56.000000	-52.000000	-73.000000
0.150000	92.570000	62.500000	613.000000	0.000000	160.000000	56.000000	-16.000000	-64.000000
0.160000	92.650000	61.900000	613.000000	0.000000	160.000000	56.000000	8.000000	-60.000000
0.170000	92.880000	61.360000	613.000000	0.000000	160.000000	56.000000	23.000000	-54.000000
0.180000	93.290000	60.850000	617.000000	0.000000	160.000000	56.000000	41.000000	-51.000000
0.190000	94.010000	60.390000	614.000000	0.000000	160.000000	56.000000	72.000000	-46.000000
0.200000	94.930000	60.060000	595.000000	0.000000	161.000000	57.000000	92.000000	-33.000000
0.210000	96.080000	59.820000	592.000000	0.000000	161.000000	57.000000	115.000000	-24.000000
0.220000	97.400000	59.820000	561.000000	0.000000	161.000000	57.000000	132.000000	0.000000
0.230000	98.830000	59.950000	539.000000	0.000000	161.000000	57.000000	143.000000	13.000000
0.240000	100.440000	60.160000	526.000000	0.000000	161.000000	57.000000	161.000000	21.000000
0.250000	101.930000	60.440000	520.000000	0.000000	160.000000	58.000000	149.000000	28.000000
0.260000	103.340000	60.780000	486.000000	0.000000	160.000000	58.000000	141.000000	34.000000
0.270000	104.590000	61.170000	466.000000	0.000000	160.000000	58.000000	125.000000	39.000000
0.280000	105.580000	61.550000	433.000000	0.000000	159.000000	59.000000	99.000000	38.000000
0.290000	106.400000	61.940000	438.000000	0.000000	159.000000	59.000000	82.000000	39.000000
0.300000	106.820000	62.330000	474.000000	0.000000	159.000000	59.000000	42.000000	39.000000
0.310000	106.950000	62.620000	516.000000	0.000000	159.000000	59.000000	13.000000	29.000000
0.320000	106.890000	62.860000	540.000000	0.000000	159.000000	59.000000	-6.000000	24.000000
0.330000	106.570000	63.070000	583.000000	0.000000	161.000000	59.000000	-32.000000	21.000000
0.340000	105.920000	63.280000	592.000000	0.000000	161.000000	59.000000	-65.000000	21.000000
0.350000	105.060000	63.380000	633.000000	0.000000	161.000000	59.000000	-86.000000	10.000000
0.360000	103.890000	63.450000	620.000000	0.000000	161.000000	59.000000	-117.000000	7.000000
0.370000	102.570000	63.450000	611.000000	0.000000	160.000000	58.000000	-132.000000	0.000000
0.380000	101.160000	63.310000	614.000000	0.000000	160.000000	58.000000	-141.000000	-14.000000
0.390000	99.760000	63.150000	619.000000	0.000000	160.000000	58.000000	-140.000000	-16.000000
0.400000	98.600000	62.990000	611.000000	0.000000	158.000000	58.000000	-116.000000	-16.000000
0.410000	97.600000	62.840000	610.000000	0.000000	160.000000	58.000000	-100.000000	-15.000000
0.420000	96.890000	62.620000	613.000000	0.000000	161.000000	57.000000	-71.000000	-22.000000
0.430000	96.230000	62.410000	622.000000	0.000000	161.000000	57.000000	-66.000000	-21.000000
0.440000	95.830000	62.200000	630.000000	0.000000	162.000000	58.000000	-40.000000	-21.000000
0.450000	95.590000	62.080000	619.000000	0.000000	163.000000	57.000000	-24.000000	-12.000000
0.460000	95.660000	62.020000	614.000000	0.000000	163.000000	57.000000	7.000000	-6.000000
0.470000	96.060000	62.020000	624.000000	0.000000	164.000000	57.000000	40.000000	0.000000
0.480000	96.670000	62.020000	613.000000	0.000000	164.000000	57.000000	61.000000	0.000000
0.490000	97.650000	62.020000	617.000000	0.000000	164.000000	57.000000	98.000000	0.000000
0.500000	98.850000	62.020000	592.000000	0.000000	164.000000	57.000000	120.000000	0.000000
0.510000	100.190000	62.020000	588.000000	0.000000	164.000000	57.000000	134.000000	0.000000
0.520000	101.220000	62.020000	569.000000	0.000000	164.000000	57.000000	103.000000	0.000000
0.530000	102.250000	61.960000	545.000000	0.000000	164.000000	58.000000	103.000000	-6.000000
0.540000	103.240000	61.960000	530.000000	0.000000	162.000000	58.000000	99.000000	0.000000
0.550000	104.190000	61.960000	515.000000	0.000000	162.000000	58.000000	95.000000	0.000000
0.560000	105.120000	61.960000	519.000000	0.000000	161.000000	59.000000	93.000000	0.000000
0.570000	105.890000	62.090000	512.000000	0.000000	160.000000	58.000000	77.000000	13.000000
0.580000	106.550000	62.260000	540.000000	0.000000	160.000000	58.000000	66.000000	17.000000
0.590000	107.040000	62.450000	561.000000	0.000000	160.000000	58.000000	49.000000	19.000000
0.600000	107.310000	62.630000	586.000000	0.000000	160.000000	58.000000	27.000000	18.000000
0.610000	107.420000	62.780000	624.000000	0.000000	160.000000	58.000000	11.000000	15.000000
0.620000	107.360000	62.900000	627.000000	0.000000	161.000000	59.000000	-6.000000	12.000000
0.630000	107.090000	63.000000	624.000000	0.000000	161.000000	59.000000	-27.000000	10.000000
0.640000	106.680000	63.130000	630.000000	0.000000	161.000000	59.000000	-41.000000	13.000000
0.650000	105.940000	63.210000	627.000000	0.000000	161.000000	59.000000	-74.000000	8.000000
0.660000	104.860000	63.210000	631.000000	0.000000	161.000000	59.000000	-108.000000	0.000000
0.670000	103.540000	63.210000	641.000000	0.000000	161.000000	59.000000	-132.000000	0.000000
0.680000	101.890000	63.130000	644.000000	0.000000	161.000000	59.000000	-165.000000	-8.000000
0.690000	99.850000	62.840000	676.000000	0.000000	161.000000	59.000000	-204.000000	-29.000000
0.700000	97.540000	62.430000	724.000000	0.000000	160.000000	58.000000	-231.000000	-41.000000
0.710000	94.990000	61.720000	771.000000	0.000000	160.000000	58.000000	-255.000000	-71.000000
0.720000	92.570000	60.980000	805.000000	0.000000	159.000000	57.000000	-242.000000	-74.000000
0.730000	90.240000	60.170000	826.000000	0.000000	159.000000	57.000000	-233.000000	-81.000000
0.740000	88.780000	59.530000	830.000000	0.000000	159.000000	57.000000	-146.000000	-64.000000
0.750000	87.940000	59.010000	815.000000	0.000000	158.000000	56.000000	-84.000000	-52.000000
0.760000	87.510000	58.490000	814.000000	0.000000	158.000000	56.000000	-43.000000	-52.000000
0.770000	87.280000	58.100000	782.000000	0.000000	157.000000	57.000000	-23.000000	-39.000000
0.780000	87.160000	57.790000	745.000000	0.000000	157.000000	57.000000	-12.000000	-31.000000
0.790000	87.110000	57.380000	702.000000	0.000000	157.000000	57.000000	-5.000000	-41.000000
0.800000	87.110000	57.070000	662.000000	0.000000	158.000000	58.000000	0.000000	-31.000000
0.810000	87.110000	56.840000	636.000000	0.000000	158.000000	58.000000	0.000000	-23.000000
0.820000	87.110000	56.660000	597.000000	0.000000	157.000000	59.000000	0.000000	-18.000000
0.830000	87.110000	56.590000	563.000000	0.000000	157.000000	59.000000	0.000000	-7.000000
0.840000	87.110000	56.590000	509.000000	0.000000	157.000000	60.000000	0.000000	0.000000
0.850000	87.410000	56.670000	334.000000	0.000000	157.000000	60.000000	30.000000	8.000000
0.860000	87.740000	56.840000	30.000000	0.000000	156.000000	61.000000	33.000000	17.000000
