t	x	y	pressure	penup	azimuth	inclination	v_x	v_y
0.000000	52.090000	40.760000	44.000000	1.000000	124.000000	47.000000	0.000000	0.000000
0.010000	52.090000	40.760000	73.000000	0.000000	124.000000	47.000000	0.000000	0.000000
0.020000	52.090000	40.760000	101.000000	0.000000	124.000000	47.000000	0.000000	0.000000
0.030000	52.090000	40.760000	137.000000	0.000000	124.000000	47.000000	0.000000	0.000000
0.040000	52.090000	40.760000	173.000000	0.000000	124.000000	47.000000	0.000000	0.000000
0.050000	52.090000	40.760000	200.000000	0.000000	124.000000	47.000000	0.000000	0.000000
0.060000	52.090000	40.760000	219.000000	0.000000	124.000000	47.000000	0.000000	0.000000
0.070000	52.090000	40.760000	242.000000	0.000000	124.000000	47.000000	0.000000	0.000000
0.080000	52.090000	40.760000	254.000000	0.000000	124.000000	47.000000	0.000000	0.000000
0.090000	52.090000	40.760000	247.000000	0.000000	124.000000	47.000000	0.000000	0.000000
0.100000	52.090000	40.760000	259.000000	0.000000	124.000000	47.000000	0.000000	0.000000
0.110000	52.090000	40.760000	265.000000	0.000000	124.000000	47.000000	0.000000	0.000000
0.120000	52.090000	40.760000	269.000000	0.000000	124.000000	47.000000	0.000000	0.000000
0.130000	52.090000	40.760000	279.000000	0.000000	124.000000	47.000000	0.000000	0.000000
0.140000	52.090000	40.760000	287.000000	0.000000	124.000000	47.000000	0.000000	0.000000
0.150000	52.090000	40.760000	273.000000	0.000000	124.000000	47.000000	0.000000	0.000000
0.160000	52.090000	40.760000	287.000000	0.000000	124.000000	47.000000	0.000000	0.000000
0.170000	52.090000	40.760000	274.000000	0.000000	124.000000	47.000000	0.000000	0.000000
0.180000	52.230000	41.060000	274.000000	0.000000	123.000000	47.000000	14.000000	30.000000
0.190000	52.440000	41.300000	279.000000	0.000000	123.000000	47.000000	21.000000	24.000000
0.200000	52.680000	41.580000	282.000000	0.000000	123.000000	47.000000	24.000000	28.000000
0.210000	52.920000	41.850000	286.000000	0.000000	124.000000	48.000000	24.000000	27.000000
0.220000	53.100000	42.120000	291.000000	0.000000	124.000000	48.000000	18.000000	27.000000
0.230000	53.250000	42.420000	291.000000	0.000000	124.000000	48.000000	15.000000	30.000000
0.240000	53.400000	42.740000	294.000000	0.000000	124.000000	48.000000	15.000000	32.000000
0.250000	53.570000	43.030000	294.000000	0.000000	124.000000	48.000000	17.000000	29.000000
0.260000	53.790000	43.370000	294.000000	0.000000	124.000000	48.000000	22.000000	34.000000
0.270000	54.070000	43.890000	294.000000	0.000000	123.000000	48.000000	28.000000	52.000000
0.280000	54.410000	44.500000	299.000000	0.000000	123.000000	48.000000	34.000000	61.000000
0.290000	54.770000	45.050000	299.000000	0.000000	123.000000	48.000000	36.000000	55.000000
0.300000	55.140000	45.610000	312.000000	0.000000	123.000000	48.000000	37.000000	56.000000
0.310000	55.520000	46.200000	314.000000	0.000000	124.000000	49.000000	38.000000	59.000000
0.320000	55.880000	46.630000	309.000000	0.000000	124.000000	49.000000	36.000000	43.000000
0.330000	56.170000	46.960000	312.000000	0.000000	125.000000	48.000000	29.000000	33.000000
0.340000	56.430000	47.290000	309.000000	0.000000	125.000000	48.000000	26.000000	33.000000
0.350000	56.750000	47.750000	305.000000	0.000000	126.000000	48.000000	32.000000	46.000000
0.360000	57.080000	48.300000	316.000000	0.000000	128.000000	48.000000	33.000000	55.000000
0.370000	57.440000	48.950000	314.000000	0.000000	130.000000	48.000000	36.000000	65.000000
0.380000	57.800000	49.450000	311.000000	0.000000	130.000000	48.000000	36.000000	50.000000
0.390000	58.030000	49.850000	311.000000	0.000000	131.000000	47.000000	23.000000	40.000000
0.400000	58.170000	50.060000	309.000000	0.000000	131.000000	47.000000	14.000000	21.000000
0.410000	58.230000	50.230000	311.000000	0.000000	131.000000	47.000000	6.000000	17.000000
0.420000	58.230000	50.350000	311.000000	0.000000	132.000000	47.000000	0.000000	12.000000
0.430000	58.230000	50.470000	311.000000	0.000000	132.000000	47.000000	0.000000	12.000000
0.440000	58.340000	50.670000	302.000000	0.000000	132.000000	47.000000	11.000000	20.000000
0.450000	58.440000	50.920000	294.000000	0.000000	132.000000	47.000000	10.000000	25.000000
0.460000	58.610000	51.190000	297.000000	0.000000	131.000000	46.000000	17.000000	27.000000
0.470000	58.750000	51.420000	297.000000	0.000000	133.000000	46.000000	14.000000	23.000000
0.480000	58.860000	51.570000	301.000000	0.000000	133.000000	46.000000	11.000000	15.000000
0.490000	58.910000	51.640000	299.000000	0.000000	133.000000	46.000000	5.000000	7.000000
0.500000	58.910000	51.640000	292.000000	0.000000	133.000000	46.000000	0.000000	0.000000
0.510000	58.910000	51.580000	286.000000	0.000000	133.000000	46.000000	0.000000	-6.000000
0.520000	58.910000	51.490000	284.000000	0.000000	134.000000	46.000000	0.000000	-9.000000
0.530000	58.910000	51.340000	284.000000	0.000000	134.000000	46.000000	0.000000	-15.000000
0.540000	58.910000	51.190000	284.000000	0.000000	134.000000	46.000000	0.000000	-15.000000
0.550000	58.910000	51.030000	281.000000	0.000000	134.000000	46.000000	0.000000	-16.000000
0.560000	58.910000	50.900000	282.000000	0.000000	134.000000	46.000000	0.000000	-13.000000
0.570000	58.850000	50.780000	282.000000	0.000000	133.000000	46.000000	-6.000000	-12.000000
0.580000	58.790000	50.570000	287.000000	0.000000	133.000000	46.000000	-6.000000	-21.000000
0.590000	58.650000	50.340000	291.000000	0.000000	133.000000	46.000000	-14.000000	-23.000000
0.600000	58.520000	50.060000	291.000000	0.000000	133.000000	46.000000	-13.000000	-28.000000
0.610000	58.400000	49.740000	292.000000	0.000000	133.000000	46.000000	-12.000000	-32.000000
0.620000	58.260000	49.410000	289.000000	0.000000	133.000000	46.000000	-14.000000	-33.000000
0.630000	58.110000	49.090000	292.000000	0.000000	133.000000	46.000000	-15.000000	-32.000000
0.640000	58.010000	48.820000	291.000000	0.000000	132.000000	47.000000	-10.000000	-27.000000
0.650000	57.920000	48.590000	291.000000	0.000000	131.000000	46.000000	-9.000000	-23.000000
0.660000	57.830000	48.270000	292.000000	0.000000	131.000000	46.000000	-9.000000	-32.000000
0.670000	57.720000	47.950000	291.000000	0.000000	131.000000	46.000000	-11.000000	-32.000000
0.680000	57.630000	47.610000	291.000000	0.000000	131.000000	46.000000	-9.000000	-34.000000
0.690000	57.530000	47.300000	292.000000	0.000000	131.000000	46.000000	-10.000000	-31.000000
0.700000	57.450000	47.010000	292.000000	0.000000	131.000000	46.000000	-8.000000	-29.000000
0.710000	57.390000	46.650000	292.000000	0.000000	131.000000	46.000000	-6.000000	-36.000000
0.720000	57.390000	46.300000	296.000000	0.000000	130.000000	47.000000	0.000000	-35.000000
0.730000	57.330000	45.990000	294.000000	0.000000	130.000000	47.000000	-6.000000	-31.000000
0.740000	57.330000	45.650000	297.000000	0.000000	130.000000	47.000000	0.000000	-34.000000
0.750000	57.330000	45.280000	299.000000	0.000000	128.000000	47.000000	0.000000	-37.000000
0.760000	57.330000	44.860000	297.000000	0.000000	128.000000	47.000000	0.000000	-42.000000
0.770000	57.330000	44.520000	297.000000	0.000000	128.000000	47.000000	0.000000	-34.000000
0.780000	57.420000	44.240000	301.000000	0.000000	127.000000	48.000000	9.000000	-28.000000
0.790000	57.490000	43.870000	299.000000	0.000000	127.000000	48.000000	7.000000	-37.000000
0.800000	57.580000	43.510000	299.000000	0.000000	127.000000	48.000000	9.000000	-36.000000
0.810000	57.680000	43.150000	301.000000	0.000000	127.000000	48.000000	10.000000	-36.000000
0.820000	57.790000	42.820000	299.000000	0.000000	127.000000	48.000000	11.000000	-33.000000
0.830000	57.890000	42.510000	299.000000	0.000000	127.000000	48.000000	10.000000	-31.000000
0.840000	57.980000	42.220000	297.000000	0.000000	127.000000	48.000000	9.000000	-29.000000
0.850000	58.110000	41.890000	292.000000	0.000000	126.000000	48.000000	13.000000	-33.000000
0.860000	58.250000	41.650000	287.000000	0.000000	125.000000	47.000000	14.000000	-24.000000
0.870000	58.430000	41.480000	286.000000	0.000000	125.000000	47.000000	18.000000	-17.000000
0.880000	58.630000	41.350000	281.000000	0.000000	125.000000	47.000000	20.000000	-13.000000
0.890000	58.870000	41.280000	273.000000	0.000000	125.000000	47.000000	24.000000	-7.000000
0.900000	59.090000	41.280000	273.000000	0.000000	125.000000	47.000000	22.000000	0.000000
0.910000	59.290000	41.180000	273.000000	0.000000	125.000000	47.000000	20.000000	-10.000000
0.920000	59.500000	41.180000	276.000000	0.000000	125.000000	47.000000	21.000000	0.000000
0.930000	59.760000	41.180000	282.000000	0.000000	125.000000	47.000000	26.000000	0.000000
0.940000	60.070000	41.260000	284.000000	0.000000	125.000000	47.000000	31.000000	8.000000
0.950000	60.400000	41.440000	282.000000	0.000000	125.000000	47.000000	33.000000	18.000000
0.960000	60.780000	41.670000	282.000000	0.000000	126.000000	48.000000	38.000000	23.000000
0.970000	61.230000	42.090000	282.000000	0.000000	126.000000	48.000000	45.000000	42.000000
0.980000	61.740000	42.600000	284.000000	0.000000	126.000000	48.000000	51.000000	51.000000
0.990000	62.300000	43.160000	284.000000	0.000000	126.000000	48.000000	56.000000	56.000000
1.000000	62.710000	43.740000	284.000000	0.000000	126.000000	48.000000	41.000000	58.000000
1.010000	63.030000	44.200000	291.000000	0.000000	126.000000	49.000000	32.000000	46.000000
1.020000	63.240000	44.580000	311.000000	0.000000	126.000000	49.000000	21.000000	38.000000
1.030000	63.430000	44.940000	312.000000	0.000000	126.000000	49.000000	19.000000	36.000000
1.040000	63.600000	45.360000	304.000000	0.000000	127.000000	50.000000	17.000000	42.000000
1.050000	63.890000	45.840000	307.000000	0.000000	127.000000	50.000000	29.000000	48.000000
1.060000	64.180000	46.340000	307.000000	0.000000	127.000000	50.000000	29.000000	50.000000
1.070000	64.510000	46.860000	307.000000	0.000000	127.000000	50.000000	33.000000	52.000000
1.080000	64.850000	47.370000	309.000000	0.000000	127.000000	50.000000	34.000000	51.000000
1.090000	65.060000	47.840000	315.000000	0.000000	128.000000	49.000000	21.000000	47.000000
1.100000	65.190000	48.100000	337.000000	0.000000	129.000000	49.000000	13.000000	26.000000
1.110000	65.190000	48.230000	349.000000	0.000000	130.000000	50.000000	0.000000	13.000000
1.120000	65.190000	48.330000	356.000000	0.000000	132.000000	49.000000	0.000000	10.000000
1.130000	65.190000	48.450000	358.000000	0.000000	132.000000	49.000000	0.000000	12.000000
1.140000	65.250000	48.560000	359.000000	0.000000	133.000000	48.000000	6.000000	11.000000
1.150000	65.250000	48.650000	364.000000	0.000000	133.000000	48.000000	0.000000	9.000000
1.160000	65.250000	48.650000	361.000000	0.000000	133.000000	48.000000	0.000000	0.000000
1.170000	65.250000	48.650000	366.000000	0.000000	133.000000	48.000000	0.000000	0.000000
1.180000	65.250000	48.650000	362.000000	0.000000	133.000000	48.000000	0.000000	0.000000
1.190000	65.250000	48.590000	362.000000	0.000000	133.000000	48.000000	0.000000	-6.000000
1.200000	65.200000	48.510000	361.000000	0.000000	133.000000	48.000000	-5.000000	-8.000000
1.210000	65.130000	48.340000	362.000000	0.000000	133.000000	48.000000	-7.000000	-17.000000
1.220000	65.070000	48.160000	362.000000	0.000000	133.000000	48.000000	-6.000000	-18.000000
1.230000	65.010000	47.980000	362.000000	0.000000	134.000000	48.000000	-6.000000	-18.000000
1.240000	64.940000	47.870000	362.000000	0.000000	134.000000	48.000000	-7.000000	-11.000000
1.250000	64.890000	47.760000	366.000000	0.000000	134.000000	48.000000	-5.000000	-11.000000
1.260000	64.820000	47.620000	366.000000	0.000000	134.000000	48.000000	-7.000000	-14.000000
1.270000	64.740000	47.510000	364.000000	0.000000	134.000000	48.000000	-8.000000	-11.000000
1.280000	64.690000	47.430000	366.000000	0.000000	134.000000	48.000000	-5.000000	-8.000000
1.290000	64.690000	47.260000	364.000000	0.000000	134.000000	48.000000	0.000000	-17.000000
1.300000	64.620000	47.140000	361.000000	0.000000	134.000000	48.000000	-7.000000	-12.000000
1.310000	64.620000	47.050000	364.000000	0.000000	134.000000	48.000000	0.000000	-9.000000
1.320000	64.620000	46.990000	364.000000	0.000000	133.000000	47.000000	0.000000	-6.000000
1.330000	64.620000	46.990000	367.000000	0.000000	133.000000	47.000000	0.000000	0.000000
1.340000	64.620000	46.990000	366.000000	0.000000	133.000000	47.000000	0.000000	0.000000
1.350000	64.620000	46.910000	367.000000	0.000000	132.000000	48.000000	0.000000	-8.000000
1.360000	64.620000	46.910000	367.000000	0.000000	132.000000	48.000000	0.000000	0.000000
1.370000	64.570000	46.840000	369.000000	0.000000	132.000000	48.000000	-5.000000	-7.000000
1.380000	64.570000	46.840000	369.000000	0.000000	132.000000	48.000000	0.000000	0.000000
1.390000	64.570000	46.790000	369.000000	0.000000	132.000000	48.000000	0.000000	-5.000000
1.400000	64.570000	46.790000	371.000000	0.000000	132.000000	48.000000	0.000000	0.000000
1.410000	64.570000	46.790000	377.000000	0.000000	132.000000	48.000000	0.000000	0.000000
1.420000	64.570000	46.790000	381.000000	0.000000	132.000000	48.000000	0.000000	0.000000
1.430000	64.570000	46.790000	387.000000	0.000000	132.000000	48.000000	0.000000	0.000000
1.440000	64.570000	46.790000	386.000000	0.000000	132.000000	48.000000	0.000000	0.000000
1.450000	64.570000	46.790000	387.000000	0.000000	132.000000	48.000000	0.000000	0.000000
1.460000	64.570000	46.790000	389.000000	0.000000	132.000000	48.000000	0.000000	0.000000
1.470000	64.520000	46.790000	394.000000	0.000000	132.000000	48.000000	-5.000000	0.000000
1.480000	64.520000	46.790000	396.000000	0.000000	132.000000	48.000000	0.000000	0.000000
1.490000	64.520000	46.790000	412.000000	0.000000	132.000000	48.000000	0.000000	0.000000
1.500000	64.520000	46.790000	425.000000	0.000000	132.000000	48.000000	0.000000	0.000000
1.510000	64.520000	46.790000	431.000000	0.000000	133.000000	47.000000	0.000000	0.000000
1.520000	64.520000	46.790000	441.000000	0.000000	133.000000	47.000000	0.000000	0.000000
1.530000	64.520000	46.790000	440.000000	0.000000	133.000000	47.000000	0.000000	0.000000
1.540000	64.520000	46.790000	445.000000	0.000000	133.000000	47.000000	0.000000	0.000000
1.550000	64.520000	46.790000	448.000000	0.000000	133.000000	47.000000	0.000000	0.000000
1.560000	64.520000	46.790000	450.000000	0.000000	133.000000	47.000000	0.000000	0.000000
1.570000	64.520000	46.790000	456.000000	0.000000	133.000000	47.000000	0.000000	0.000000
1.580000	64.520000	46.790000	465.000000	0.000000	133.000000	47.000000	0.000000	0.000000
1.590000	64.520000	46.790000	469.000000	0.000000	133.000000	47.000000	0.000000	0.000000
1.600000	64.520000	46.790000	464.000000	0.000000	133.000000	47.000000	0.000000	0.000000
1.610000	64.520000	46.790000	465.000000	0.000000	133.000000	47.000000	0.000000	0.000000
1.620000	64.520000	46.790000	465.000000	0.000000	133.000000	47.000000	0.000000	0.000000
1.630000	64.520000	46.790000	467.000000	0.000000	133.000000	47.000000	0.000000	0.000000
1.640000	64.520000	46.790000	468.000000	0.000000	133.000000	47.000000	0.000000	0.000000
1.650000	64.520000	46.790000	468.000000	0.000000	133.000000	47.000000	0.000000	0.000000
1.660000	64.520000	46.790000	472.000000	0.000000	133.000000	47.000000	0.000000	0.000000
1.670000	64.520000	46.790000	473.000000	0.000000	133.000000	47.000000	0.000000	0.000000
1.680000	64.520000	46.790000	473.000000	0.000000	133.000000	47.000000	0.000000	0.000000
1.690000	64.520000	46.790000	475.000000	0.000000	133.000000	47.000000	0.000000	0.000000
1.700000	64.520000	46.790000	473.000000	0.000000	133.000000	47.000000	0.000000	0.000000
1.710000	64.520000	46.790000	475.000000	0.000000	133.000000	47.000000	0.000000	0.000000
1.720000	64.520000	46.790000	473.000000	0.000000	133.000000	47.000000	0.000000	0.000000
1.730000	64.520000	46.790000	475.000000	0.000000	133.000000	47.000000	0.000000	0.000000
1.740000	64.520000	46.790000	478.000000	0.000000	133.000000	47.000000	0.000000	0.000000
1.750000	64.520000	46.790000	480.000000	0.000000	133.000000	47.000000	0.000000	0.000000
1.760000	64.520000	46.790000	480.000000	0.000000	133.000000	47.000000	0.000000	0.000000
1.770000	64.520000	46.790000	480.000000	0.000000	133.000000	47.000000	0.000000	0.000000
1.780000	64.520000	46.790000	480.000000	0.000000	133.000000	47.000000	0.000000	0.000000
1.790000	64.520000	46.790000	481.000000	0.000000	133.000000	47.000000	0.000000	0.000000
1.800000	64.520000	46.790000	481.000000	0.000000	133.000000	47.000000	0.000000	0.000000
1.810000	64.520000	46.790000	481.000000	0.000000	133.000000	47.000000	0.000000	0.000000
1.820000	64.520000	46.790000	481.000000	0.000000	133.000000	47.000000	0.000000	0.000000
1.830000	64.520000	46.790000	483.000000	0.000000	133.000000	47.000000	0.000000	0.000000
1.840000	64.520000	46.790000	483.000000	0.000000	133.000000	47.000000	0.000000	0.000000
1.850000	64.520000	46.790000	486.000000	0.000000	133.000000	47.000000	0.000000	0.000000
1.860000	64.520000	46.790000	486.000000	0.000000	133.000000	47.000000	0.000000	0.000000
1.870000	64.520000	46.790000	488.000000	0.000000	133.000000	47.000000	0.000000	0.000000
1.880000	64.520000	46.790000	486.000000	0.000000	133.000000	47.000000	0.000000	0.000000
1.890000	64.520000	46.790000	486.000000	0.000000	133.000000	47.000000	0.000000	0.000000
1.900000	64.520000	46.790000	488.000000	0.000000	133.000000	47.000000	0.000000	0.000000
1.910000	64.520000	46.790000	488.000000	0.000000	133.000000	47.000000	0.000000	0.000000
1.920000	64.520000	46.790000	486.000000	0.000000	133.000000	47.000000	0.000000	0.000000
1.930000	64.520000	46.790000	486.000000	0.000000	133.000000	47.000000	0.000000	0.000000
1.940000	64.520000	46.790000	486.000000	0.000000	133.000000	47.000000	0.000000	0.000000
1.950000	64.520000	46.790000	488.000000	0.000000	133.000000	47.000000	0.000000	0.000000
1.960000	64.520000	46.790000	485.000000	0.000000	133.000000	47.000000	0.000000	0.000000
1.970000	64.520000	46.790000	481.000000	0.000000	133.000000	47.000000	0.000000	0.000000
1.980000	64.520000	46.790000	475.000000	0.000000	133.000000	47.000000	0.000000	0.000000
1.990000	64.520000	46.790000	478.000000	0.000000	133.000000	47.000000	0.000000	0.000000
2.000000	64.520000	46.790000	481.000000	0.000000	133.000000	47.000000	0.000000	0.000000
2.010000	64.520000	46.790000	477.000000	0.000000	133.000000	47.000000	0.000000	0.000000
2.020000	64.900000	46.750000	473.000000	0.000000	133.000000	47.000000	38.000000	-4.000000
2.030000	65.120000	46.850000	473.000000	0.000000	134.000000	48.000000	22.000000	10.000000
2.040000	65.380000	46.940000	464.000000	0.000000	134.000000	48.000000	26.000000	9.000000
2.050000	65.680000	47.030000	471.000000	0.000000	134.000000	48.000000	30.000000	9.000000
2.060000	66.040000	47.120000	455.000000	0.000000	134.000000	48.000000	36.000000	9.000000
2.070000	66.430000	47.210000	445.000000	0.000000	134.000000	48.000000	39.000000	9.000000
2.080000	66.830000	47.300000	441.000000	0.000000	134.000000	48.000000	40.000000	9.000000
2.090000	67.250000	47.380000	417.000000	0.000000	135.000000	49.000000	42.000000	8.000000
2.100000	67.750000	47.510000	410.000000	0.000000	135.000000	49.000000	50.000000	13.000000
2.110000	68.330000	47.680000	397.000000	0.000000	135.000000	49.000000	58.000000	17.000000
2.120000	68.760000	47.840000	392.000000	0.000000	136.000000	48.000000	43.000000	16.000000
2.130000	69.090000	47.990000	392.000000	0.000000	136.000000	48.000000	33.000000	15.000000
2.140000	69.470000	48.100000	399.000000	0.000000	136.000000	48.000000	38.000000	11.000000
2.150000	69.840000	48.170000	394.000000	0.000000	136.000000	48.000000	37.000000	7.000000
2.160000	70.170000	48.170000	381.000000	0.000000	136.000000	48.000000	33.000000	0.000000
2.170000	70.470000	48.170000	361.000000	0.000000	137.000000	48.000000	30.000000	0.000000
2.180000	70.740000	48.170000	369.000000	0.000000	137.000000	48.000000	27.000000	0.000000
2.190000	71.020000	48.090000	368.000000	0.000000	137.000000	48.000000	28.000000	-8.000000
2.200000	71.310000	48.090000	369.000000	0.000000	138.000000	49.000000	29.000000	0.000000
2.210000	71.600000	48.090000	371.000000	0.000000	138.000000	49.000000	29.000000	0.000000
2.220000	71.900000	48.090000	371.000000	0.000000	138.000000	49.000000	30.000000	0.000000
