t	x	y	pressure	penup	azimuth	inclination	v_x	v_y
0.000000	52.570000	57.110000	36.000000	1.000000	121.000000	48.000000	0.000000	0.000000
0.010000	52.570000	57.110000	58.000000	0.000000	121.000000	48.000000	0.000000	0.000000
0.020000	52.570000	57.110000	88.000000	0.000000	120.000000	48.000000	0.000000	0.000000
0.030000	52.570000	57.110000	101.000000	0.000000	120.000000	48.000000	0.000000	0.000000
0.040000	52.570000	57.110000	149.000000	0.000000	120.000000	48.000000	0.000000	0.000000
0.050000	52.570000	57.110000	171.000000	0.000000	120.000000	48.000000	0.000000	0.000000
0.060000	52.570000	57.110000	218.000000	0.000000	120.000000	48.000000	0.000000	0.000000
0.070000	52.570000	57.110000	255.000000	0.000000	120.000000	48.000000	0.000000	0.000000
0.080000	52.570000	57.110000	287.000000	0.000000	120.000000	48.000000	0.000000	0.000000
0.090000	52.570000	57.110000	296.000000	0.000000	120.000000	48.000000	0.000000	0.000000
0.100000	52.570000	57.110000	312.000000	0.000000	120.000000	48.000000	0.000000	0.000000
0.110000	52.570000	57.110000	304.000000	0.000000	120.000000	48.000000	0.000000	0.000000
0.120000	52.640000	57.390000	310.000000	0.000000	121.000000	49.000000	7.000000	28.000000
0.130000	52.760000	57.580000	329.000000	0.000000	121.000000	49.000000	12.000000	19.000000
0.140000	52.930000	57.850000	336.000000	0.000000	121.000000	49.000000	17.000000	27.000000
0.150000	53.140000	58.110000	343.000000	0.000000	122.000000	48.000000	21.000000	26.000000
0.160000	53.350000	58.520000	344.000000	0.000000	122.000000	48.000000	21.000000	41.000000
0.170000	53.540000	59.020000	343.000000	0.000000	122.000000	48.000000	19.000000	50.000000
0.180000	53.770000	59.540000	334.000000	0.000000	123.000000	48.000000	23.000000	52.000000
0.190000	54.060000	60.130000	334.000000	0.000000	123.000000	48.000000	29.000000	59.000000
0.200000	54.360000	60.760000	339.000000	0.000000	124.000000	48.000000	30.000000	63.000000
0.210000	54.630000	61.370000	338.000000	0.000000	124.000000	48.000000	27.000000	61.000000
0.220000	54.880000	61.970000	334.000000	0.000000	126.000000	48.000000	25.000000	60.000000
0.230000	55.200000	62.700000	336.000000	0.000000	126.000000	48.000000	32.000000	73.000000
0.240000	55.580000	63.510000	334.000000	0.000000	126.000000	48.000000	38.000000	81.000000
0.250000	55.980000	64.330000	333.000000	0.000000	127.000000	48.000000	40.000000	82.000000
0.260000	56.380000	65.140000	337.000000	0.000000	127.000000	48.000000	40.000000	81.000000
0.270000	56.710000	65.910000	335.000000	0.000000	127.000000	48.000000	33.000000	77.000000
0.280000	57.040000	66.650000	334.000000	0.000000	128.000000	48.000000	33.000000	74.000000
0.290000	57.360000	67.340000	334.000000	0.000000	128.000000	48.000000	32.000000	69.000000
0.300000	57.680000	67.920000	337.000000	0.000000	130.000000	48.000000	32.000000	58.000000
0.310000	57.950000	68.430000	337.000000	0.000000	130.000000	48.000000	27.000000	51.000000
0.320000	58.180000	68.840000	337.000000	0.000000	131.000000	47.000000	23.000000	41.000000
0.330000	58.300000	69.080000	344.000000	0.000000	131.000000	47.000000	12.000000	24.000000
0.340000	58.300000	69.200000	344.000000	0.000000	132.000000	47.000000	0.000000	12.000000
0.350000	58.300000	69.200000	334.000000	0.000000	131.000000	46.000000	0.000000	0.000000
0.360000	58.350000	69.200000	325.000000	0.000000	132.000000	46.000000	5.000000	0.000000
0.370000	58.350000	69.110000	315.000000	0.000000	132.000000	46.000000	0.000000	-9.000000
0.380000	58.350000	68.960000	305.000000	0.000000	133.000000	45.000000	0.000000	-15.000000
0.390000	58.350000	68.710000	305.000000	0.000000	133.000000	45.000000	0.000000	-25.000000
0.400000	58.350000	68.360000	310.000000	0.000000	133.000000	45.000000	0.000000	-35.000000
0.410000	58.140000	67.940000	309.000000	0.000000	133.000000	45.000000	-21.000000	-42.000000
0.420000	57.930000	67.490000	312.000000	0.000000	132.000000	46.000000	-21.000000	-45.000000
0.430000	57.700000	67.040000	312.000000	0.000000	132.000000	46.000000	-23.000000	-45.000000
0.440000	57.580000	66.680000	309.000000	0.000000	132.000000	46.000000	-12.000000	-36.000000
0.450000	57.460000	66.370000	312.000000	0.000000	131.000000	46.000000	-12.000000	-31.000000
0.460000	57.370000	65.990000	319.000000	0.000000	131.000000	46.000000	-9.000000	-38.000000
0.470000	57.240000	65.450000	330.000000	0.000000	131.000000	46.000000	-13.000000	-54.000000
0.480000	57.070000	64.810000	345.000000	0.000000	132.000000	47.000000	-17.000000	-64.000000
0.490000	56.940000	64.130000	338.000000	0.000000	132.000000	47.000000	-13.000000	-68.000000
0.500000	56.820000	63.430000	348.000000	0.000000	131.000000	47.000000	-12.000000	-70.000000
0.510000	56.730000	62.850000	349.000000	0.000000	131.000000	47.000000	-9.000000	-58.000000
0.520000	56.730000	62.370000	354.000000	0.000000	131.000000	47.000000	0.000000	-48.000000
0.530000	56.790000	62.040000	371.000000	0.000000	131.000000	47.000000	6.000000	-33.000000
0.540000	56.860000	61.740000	361.000000	0.000000	130.000000	48.000000	7.000000	-30.000000
0.550000	56.950000	61.450000	366.000000	0.000000	130.000000	48.000000	9.000000	-29.000000
0.560000	57.060000	61.200000	371.000000	0.000000	130.000000	48.000000	11.000000	-25.000000
0.570000	57.160000	60.930000	376.000000	0.000000	130.000000	48.000000	10.000000	-27.000000
0.580000	57.230000	60.660000	379.000000	0.000000	128.000000	47.000000	7.000000	-27.000000
0.590000	57.360000	60.490000	386.000000	0.000000	128.000000	47.000000	13.000000	-17.000000
0.600000	57.510000	60.380000	381.000000	0.000000	128.000000	47.000000	15.000000	-11.000000
0.610000	57.680000	60.380000	399.000000	0.000000	128.000000	47.000000	17.000000	0.000000
0.620000	57.790000	60.380000	397.000000	0.000000	128.000000	47.000000	11.000000	0.000000
0.630000	57.870000	60.430000	412.000000	0.000000	128.000000	47.000000	8.000000	5.000000
0.640000	58.080000	60.430000	425.000000	0.000000	128.000000	47.000000	21.000000	0.000000
0.650000	58.300000	60.500000	425.000000	0.000000	128.000000	47.000000	22.000000	7.000000
0.660000	58.530000	60.610000	418.000000	0.000000	128.000000	47.000000	23.000000	11.000000
0.670000	58.790000	60.770000	423.000000	0.000000	127.000000	46.000000	26.000000	16.000000
0.680000	59.130000	61.020000	423.000000	0.000000	127.000000	46.000000	34.000000	25.000000
0.690000	59.500000	61.260000	425.000000	0.000000	127.000000	46.000000	37.000000	24.000000
0.700000	59.860000	61.490000	428.000000	0.000000	127.000000	46.000000	36.000000	23.000000
0.710000	60.180000	61.720000	427.000000	0.000000	127.000000	46.000000	32.000000	23.000000
0.720000	60.470000	61.910000	433.000000	0.000000	128.000000	47.000000	29.000000	19.000000
0.730000	60.720000	62.090000	441.000000	0.000000	128.000000	47.000000	25.000000	18.000000
0.740000	60.990000	62.270000	444.000000	0.000000	128.000000	47.000000	27.000000	18.000000
0.750000	61.300000	62.550000	440.000000	0.000000	128.000000	47.000000	31.000000	28.000000
0.760000	61.690000	62.910000	450.000000	0.000000	128.000000	47.000000	39.000000	36.000000
0.770000	62.160000	63.320000	456.000000	0.000000	130.000000	48.000000	47.000000	41.000000
0.780000	62.690000	63.770000	456.000000	0.000000	130.000000	48.000000	53.000000	45.000000
0.790000	63.240000	64.250000	456.000000	0.000000	130.000000	48.000000	55.000000	48.000000
0.800000	63.630000	64.660000	456.000000	0.000000	130.000000	48.000000	39.000000	41.000000
0.810000	63.910000	64.930000	458.000000	0.000000	131.000000	48.000000	28.000000	27.000000
0.820000	64.170000	65.120000	458.000000	0.000000	131.000000	48.000000	26.000000	19.000000
0.830000	64.380000	65.320000	460.000000	0.000000	131.000000	48.000000	21.000000	20.000000
0.840000	64.560000	65.520000	463.000000	0.000000	131.000000	48.000000	18.000000	20.000000
0.850000	64.770000	65.740000	460.000000	0.000000	131.000000	48.000000	21.000000	22.000000
0.860000	65.000000	66.000000	460.000000	0.000000	132.000000	49.000000	23.000000	26.000000
0.870000	65.240000	66.190000	447.000000	0.000000	132.000000	49.000000	24.000000	19.000000
0.880000	65.430000	66.290000	447.000000	0.000000	132.000000	49.000000	19.000000	10.000000
0.890000	65.600000	66.370000	443.000000	0.000000	133.000000	48.000000	17.000000	8.000000
0.900000	65.790000	66.440000	442.000000	0.000000	133.000000	48.000000	19.000000	7.000000
0.910000	65.970000	66.520000	440.000000	0.000000	133.000000	48.000000	18.000000	8.000000
0.920000	66.100000	66.590000	435.000000	0.000000	133.000000	48.000000	13.000000	7.000000
0.930000	66.200000	66.590000	427.000000	0.000000	133.000000	48.000000	10.000000	0.000000
0.940000	66.280000	66.590000	423.000000	0.000000	134.000000	48.000000	8.000000	0.000000
0.950000	66.280000	66.510000	418.000000	0.000000	134.000000	48.000000	0.000000	-8.000000
0.960000	66.330000	66.450000	414.000000	0.000000	134.000000	48.000000	5.000000	-6.000000
0.970000	66.400000	66.350000	418.000000	0.000000	135.000000	49.000000	7.000000	-10.000000
0.980000	66.500000	66.240000	417.000000	0.000000	135.000000	49.000000	10.000000	-11.000000
0.990000	66.700000	66.100000	418.000000	0.000000	135.000000	49.000000	20.000000	-14.000000
1.000000	66.990000	65.960000	420.000000	0.000000	135.000000	49.000000	29.000000	-14.000000
1.010000	67.340000	65.870000	420.000000	0.000000	135.000000	49.000000	35.000000	-9.000000
1.020000	67.760000	65.820000	417.000000	0.000000	134.000000	49.000000	42.000000	-5.000000
1.030000	68.170000	65.740000	414.000000	0.000000	134.000000	49.000000	41.000000	-8.000000
1.040000	68.550000	65.650000	414.000000	0.000000	134.000000	49.000000	38.000000	-9.000000
1.050000	68.820000	65.650000	422.000000	0.000000	133.000000	50.000000	27.000000	0.000000
1.060000	69.030000	65.650000	414.000000	0.000000	133.000000	50.000000	21.000000	0.000000
1.070000	69.300000	65.720000	420.000000	0.000000	132.000000	50.000000	27.000000	7.000000
1.080000	69.580000	65.950000	420.000000	0.000000	129.000000	50.000000	28.000000	23.000000
1.090000	69.900000	66.260000	422.000000	0.000000	129.000000	50.000000	32.000000	31.000000
1.100000	70.240000	66.670000	420.000000	0.000000	128.000000	50.000000	34.000000	41.000000
1.110000	70.630000	67.080000	418.000000	0.000000	128.000000	50.000000	39.000000	41.000000
1.120000	71.000000	67.340000	423.000000	0.000000	128.000000	50.000000	37.000000	26.000000
1.130000	71.340000	67.510000	423.000000	0.000000	128.000000	50.000000	34.000000	17.000000
1.140000	71.660000	67.820000	425.000000	0.000000	130.000000	51.000000	32.000000	31.000000
1.150000	72.130000	68.170000	423.000000	0.000000	130.000000	51.000000	47.000000	35.000000
1.160000	72.660000	68.550000	418.000000	0.000000	132.000000	50.000000	53.000000	38.000000
1.170000	73.150000	68.940000	418.000000	0.000000	134.000000	50.000000	49.000000	39.000000
1.180000	73.580000	69.280000	420.000000	0.000000	135.000000	50.000000	43.000000	34.000000
1.190000	73.840000	69.590000	428.000000	0.000000	136.000000	50.000000	26.000000	31.000000
1.200000	73.980000	69.690000	449.000000	0.000000	137.000000	50.000000	14.000000	10.000000
1.210000	74.040000	69.740000	465.000000	0.000000	138.000000	50.000000	6.000000	5.000000
1.220000	74.040000	69.740000	467.000000	0.000000	138.000000	50.000000	0.000000	0.000000
1.230000	74.040000	69.740000	485.000000	0.000000	141.000000	50.000000	0.000000	0.000000
1.240000	74.040000	69.740000	522.000000	0.000000	141.000000	50.000000	0.000000	0.000000
1.250000	74.040000	69.790000	570.000000	0.000000	141.000000	50.000000	0.000000	5.000000
1.260000	73.940000	69.790000	592.000000	0.000000	141.000000	50.000000	-10.000000	0.000000
1.270000	73.800000	69.790000	603.000000	0.000000	141.000000	50.000000	-14.000000	0.000000
1.280000	73.440000	69.790000	597.000000	0.000000	141.000000	50.000000	-36.000000	0.000000
1.290000	72.670000	69.430000	602.000000	0.000000	141.000000	50.000000	-77.000000	-36.000000
1.300000	71.620000	68.900000	595.000000	0.000000	141.000000	50.000000	-105.000000	-53.000000
1.310000	70.310000	68.190000	608.000000	0.000000	141.000000	50.000000	-131.000000	-71.000000
1.320000	68.580000	67.460000	611.000000	0.000000	141.000000	50.000000	-173.000000	-73.000000
1.330000	66.580000	66.670000	606.000000	0.000000	140.000000	50.000000	-200.000000	-79.000000
1.340000	64.430000	65.820000	610.000000	0.000000	140.000000	50.000000	-215.000000	-85.000000
1.350000	62.070000	64.880000	614.000000	0.000000	138.000000	49.000000	-236.000000	-94.000000
1.360000	59.580000	63.760000	614.000000	0.000000	137.000000	50.000000	-249.000000	-112.000000
1.370000	56.920000	62.540000	603.000000	0.000000	136.000000	49.000000	-266.000000	-122.000000
1.380000	54.000000	61.290000	606.000000	0.000000	135.000000	49.000000	-292.000000	-125.000000
1.390000	50.910000	60.000000	628.000000	0.000000	134.000000	48.000000	-309.000000	-129.000000
1.400000	48.240000	58.910000	603.000000	0.000000	134.000000	48.000000	-267.000000	-109.000000
1.410000	46.120000	57.960000	556.000000	0.000000	133.000000	47.000000	-212.000000	-95.000000
1.420000	44.370000	57.400000	529.000000	0.000000	131.000000	47.000000	-175.000000	-56.000000
1.430000	43.080000	57.120000	519.000000	0.000000	130.000000	47.000000	-129.000000	-28.000000
1.440000	42.310000	57.040000	425.000000	0.000000	127.000000	46.000000	-77.000000	-8.000000
1.450000	41.880000	56.980000	155.000000	0.000000	126.000000	46.000000	-43.000000	-6.000000
