t	x	y	pressure	penup	azimuth	inclination	v_x	v_y
0.000000	56.800000	77.880000	58.000000	1.000000	108.000000	60.000000	0.000000	0.000000
0.010000	56.800000	77.880000	113.000000	0.000000	108.000000	60.000000	0.000000	0.000000
0.020000	56.800000	77.880000	170.000000	0.000000	108.000000	60.000000	0.000000	0.000000
0.030000	57.060000	78.150000	253.000000	0.000000	107.000000	59.000000	26.000000	27.000000
0.040000	57.200000	78.480000	312.000000	0.000000	107.000000	59.000000	14.000000	33.000000
0.050000	57.370000	78.900000	334.000000	0.000000	107.000000	59.000000	17.000000	42.000000
0.060000	57.560000	79.550000	369.000000	0.000000	108.000000	58.000000	19.000000	65.000000
0.070000	57.740000	80.290000	418.000000	0.000000	108.000000	58.000000	18.000000	74.000000
0.080000	57.910000	81.080000	440.000000	0.000000	108.000000	58.000000	17.000000	79.000000
0.090000	58.070000	82.000000	469.000000	0.000000	109.000000	57.000000	16.000000	92.000000
0.100000	58.220000	83.010000	481.000000	0.000000	109.000000	57.000000	15.000000	101.000000
0.110000	58.400000	84.090000	497.000000	0.000000	109.000000	57.000000	18.000000	108.000000
0.120000	58.490000	84.830000	507.000000	0.000000	111.000000	57.000000	9.000000	74.000000
0.130000	58.490000	85.330000	515.000000	0.000000	111.000000	57.000000	0.000000	50.000000
0.140000	58.490000	85.680000	515.000000	0.000000	112.000000	58.000000	0.000000	35.000000
0.150000	58.490000	85.930000	529.000000	0.000000	112.000000	58.000000	0.000000	25.000000
0.160000	58.490000	86.010000	540.000000	0.000000	110.000000	58.000000	0.000000	8.000000
0.170000	58.490000	86.010000	535.000000	0.000000	110.000000	58.000000	0.000000	0.000000
0.180000	58.490000	85.920000	538.000000	0.000000	110.000000	58.000000	0.000000	-9.000000
0.190000	58.590000	85.620000	538.000000	0.000000	110.000000	58.000000	10.000000	-30.000000
0.200000	58.720000	85.150000	529.000000	0.000000	110.000000	58.000000	13.000000	-47.000000
0.210000	58.820000	84.650000	519.000000	0.000000	110.000000	58.000000	10.000000	-50.000000
0.220000	58.890000	84.110000	522.000000	0.000000	110.000000	58.000000	7.000000	-54.000000
0.230000	58.890000	83.610000	522.000000	0.000000	111.000000	59.000000	0.000000	-50.000000
0.240000	58.710000	83.150000	519.000000	0.000000	111.000000	59.000000	-18.000000	-46.000000
0.250000	58.510000	82.690000	522.000000	0.000000	111.000000	59.000000	-20.000000	-46.000000
0.260000	58.150000	82.280000	537.000000	0.000000	111.000000	59.000000	-36.000000	-41.000000
0.270000	57.690000	81.960000	536.000000	0.000000	111.000000	59.000000	-46.000000	-32.000000
0.280000	57.170000	81.680000	570.000000	0.000000	112.000000	58.000000	-52.000000	-28.000000
0.290000	56.700000	81.540000	570.000000	0.000000	112.000000	58.000000	-47.000000	-14.000000
0.300000	56.230000	81.540000	569.000000	0.000000	112.000000	58.000000	-47.000000	0.000000
0.310000	55.780000	81.540000	577.000000	0.000000	113.000000	57.000000	-45.000000	0.000000
0.320000	55.470000	81.670000	574.000000	0.000000	113.000000	57.000000	-31.000000	13.000000
0.330000	55.250000	81.790000	572.000000	0.000000	112.000000	56.000000	-22.000000	12.000000
0.340000	55.250000	81.930000	568.000000	0.000000	112.000000	56.000000	0.000000	14.000000
0.350000	55.250000	82.060000	564.000000	0.000000	112.000000	56.000000	0.000000	13.000000
0.360000	55.340000	82.220000	557.000000	0.000000	111.000000	55.000000	9.000000	16.000000
0.370000	55.640000	82.460000	546.000000	0.000000	111.000000	55.000000	30.000000	24.000000
0.380000	56.050000	82.740000	545.000000	0.000000	111.000000	55.000000	41.000000	28.000000
0.390000	56.510000	82.980000	539.000000	0.000000	111.000000	55.000000	46.000000	24.000000
0.400000	57.020000	83.250000	546.000000	0.000000	111.000000	55.000000	51.000000	27.000000
0.410000	57.670000	83.580000	537.000000	0.000000	111.000000	55.000000	65.000000	33.000000
0.420000	58.380000	83.930000	521.000000	0.000000	112.000000	56.000000	71.000000	35.000000
0.430000	59.040000	84.370000	514.000000	0.000000	110.000000	56.000000	66.000000	44.000000
0.440000	59.710000	84.840000	497.000000	0.000000	111.000000	57.000000	67.000000	47.000000
0.450000	60.370000	85.320000	496.000000	0.000000	111.000000	57.000000	66.000000	48.000000
0.460000	60.950000	85.790000	478.000000	0.000000	110.000000	58.000000	58.000000	47.000000
0.470000	61.480000	86.270000	472.000000	0.000000	110.000000	58.000000	53.000000	48.000000
0.480000	61.860000	86.630000	464.000000	0.000000	109.000000	59.000000	38.000000	36.000000
0.490000	62.110000	86.910000	473.000000	0.000000	109.000000	59.000000	25.000000	28.000000
0.500000	62.280000	87.210000	474.000000	0.000000	107.000000	59.000000	17.000000	30.000000
0.510000	62.370000	87.340000	481.000000	0.000000	107.000000	59.000000	9.000000	13.000000
0.520000	62.280000	87.340000	493.000000	0.000000	107.000000	59.000000	-9.000000	0.000000
0.530000	62.070000	87.260000	491.000000	0.000000	107.000000	59.000000	-21.000000	-8.000000
0.540000	61.550000	86.910000	488.000000	0.000000	107.000000	59.000000	-52.000000	-35.000000
0.550000	60.800000	86.400000	489.000000	0.000000	107.000000	59.000000	-75.000000	-51.000000
0.560000	59.890000	85.640000	502.000000	0.000000	107.000000	59.000000	-91.000000	-76.000000
0.570000	58.850000	84.820000	522.000000	0.000000	107.000000	59.000000	-104.000000	-82.000000
0.580000	57.840000	84.040000	520.000000	0.000000	109.000000	59.000000	-101.000000	-78.000000
0.590000	56.860000	83.310000	514.000000	0.000000	109.000000	59.000000	-98.000000	-73.000000
0.600000	56.110000	82.780000	512.000000	0.000000	110.000000	58.000000	-75.000000	-53.000000
0.610000	55.400000	82.350000	516.000000	0.000000	110.000000	58.000000	-71.000000	-43.000000
0.620000	54.880000	82.000000	519.000000	0.000000	111.000000	57.000000	-52.000000	-35.000000
0.630000	54.460000	81.800000	521.000000	0.000000	113.000000	57.000000	-42.000000	-20.000000
0.640000	54.260000	81.590000	521.000000	0.000000	114.000000	57.000000	-20.000000	-21.000000
0.650000	54.090000	81.440000	512.000000	0.000000	113.000000	56.000000	-17.000000	-15.000000
0.660000	54.090000	81.330000	491.000000	0.000000	113.000000	56.000000	0.000000	-11.000000
0.670000	54.140000	81.270000	486.000000	0.000000	115.000000	55.000000	5.000000	-6.000000
0.680000	54.300000	81.270000	468.000000	0.000000	115.000000	55.000000	16.000000	0.000000
0.690000	54.490000	81.200000	465.000000	0.000000	115.000000	55.000000	19.000000	-7.000000
0.700000	54.720000	81.200000	471.000000	0.000000	115.000000	55.000000	23.000000	0.000000
0.710000	54.970000	81.200000	468.000000	0.000000	115.000000	55.000000	25.000000	0.000000
0.720000	55.270000	81.350000	465.000000	0.000000	115.000000	55.000000	30.000000	15.000000
0.730000	55.710000	81.520000	458.000000	0.000000	115.000000	55.000000	44.000000	17.000000
0.740000	56.100000	81.520000	443.000000	0.000000	115.000000	55.000000	39.000000	0.000000
0.750000	56.450000	81.520000	428.000000	0.000000	115.000000	55.000000	35.000000	0.000000
0.760000	56.920000	81.630000	417.000000	0.000000	115.000000	55.000000	47.000000	11.000000
0.770000	57.360000	81.750000	379.000000	0.000000	115.000000	55.000000	44.000000	12.000000
0.780000	57.780000	81.800000	359.000000	0.000000	116.000000	56.000000	42.000000	5.000000
0.790000	57.970000	81.800000	314.000000	0.000000	116.000000	56.000000	19.000000	0.000000
0.800000	57.970000	81.800000	317.000000	0.000000	116.000000	56.000000	0.000000	0.000000
0.810000	57.970000	81.660000	314.000000	0.000000	116.000000	56.000000	0.000000	-14.000000
0.820000	57.650000	81.490000	319.000000	0.000000	116.000000	56.000000	-32.000000	-17.000000
0.830000	57.200000	81.280000	317.000000	0.000000	116.000000	56.000000	-45.000000	-21.000000
0.840000	56.630000	81.070000	310.000000	0.000000	116.000000	56.000000	-57.000000	-21.000000
0.850000	56.120000	80.890000	309.000000	0.000000	116.000000	56.000000	-51.000000	-18.000000
0.860000	55.600000	80.750000	309.000000	0.000000	116.000000	56.000000	-52.000000	-14.000000
0.870000	55.100000	80.670000	345.000000	0.000000	116.000000	56.000000	-50.000000	-8.000000
0.880000	54.620000	80.600000	382.000000	0.000000	116.000000	56.000000	-48.000000	-7.000000
0.890000	54.350000	80.530000	412.000000	0.000000	116.000000	56.000000	-27.000000	-7.000000
0.900000	54.250000	80.530000	431.000000	0.000000	116.000000	56.000000	-10.000000	0.000000
0.910000	54.250000	80.460000	450.000000	0.000000	113.000000	56.000000	0.000000	-7.000000
0.920000	54.410000	80.460000	465.000000	0.000000	113.000000	56.000000	16.000000	0.000000
0.930000	54.820000	80.460000	475.000000	0.000000	113.000000	56.000000	41.000000	0.000000
0.940000	55.400000	80.630000	491.000000	0.000000	113.000000	56.000000	58.000000	17.000000
0.950000	56.200000	80.890000	504.000000	0.000000	113.000000	56.000000	80.000000	26.000000
0.960000	57.260000	81.220000	514.000000	0.000000	114.000000	57.000000	106.000000	33.000000
0.970000	58.480000	81.590000	519.000000	0.000000	114.000000	57.000000	122.000000	37.000000
0.980000	59.520000	82.000000	504.000000	0.000000	115.000000	58.000000	104.000000	41.000000
0.990000	60.550000	82.430000	499.000000	0.000000	115.000000	58.000000	103.000000	43.000000
1.000000	61.570000	82.880000	497.000000	0.000000	116.000000	58.000000	102.000000	45.000000
1.010000	62.450000	83.240000	499.000000	0.000000	116.000000	58.000000	88.000000	36.000000
1.020000	63.140000	83.570000	497.000000	0.000000	116.000000	58.000000	69.000000	33.000000
1.030000	63.710000	83.820000	499.000000	0.000000	114.000000	59.000000	57.000000	25.000000
1.040000	64.050000	83.920000	501.000000	0.000000	114.000000	59.000000	34.000000	10.000000
1.050000	64.220000	83.920000	501.000000	0.000000	114.000000	59.000000	17.000000	0.000000
1.060000	64.270000	83.920000	507.000000	0.000000	114.000000	59.000000	5.000000	0.000000
1.070000	64.270000	83.920000	514.000000	0.000000	114.000000	59.000000	0.000000	0.000000
1.080000	64.210000	83.920000	517.000000	0.000000	113.000000	58.000000	-6.000000	0.000000
1.090000	64.210000	83.920000	519.000000	0.000000	113.000000	58.000000	0.000000	0.000000
1.100000	64.210000	83.920000	515.000000	0.000000	113.000000	58.000000	0.000000	0.000000
1.110000	64.210000	83.920000	515.000000	0.000000	113.000000	58.000000	0.000000	0.000000
1.120000	64.210000	83.920000	514.000000	0.000000	113.000000	58.000000	0.000000	0.000000
1.130000	64.210000	83.920000	515.000000	0.000000	113.000000	58.000000	0.000000	0.000000
1.140000	64.210000	83.920000	512.000000	0.000000	113.000000	58.000000	0.000000	0.000000
1.150000	64.270000	83.920000	515.000000	0.000000	113.000000	58.000000	6.000000	0.000000
1.160000	64.380000	83.920000	515.000000	0.000000	113.000000	58.000000	11.000000	0.000000
1.170000	64.530000	83.920000	514.000000	0.000000	112.000000	58.000000	15.000000	0.000000
1.180000	64.730000	83.920000	514.000000	0.000000	112.000000	58.000000	20.000000	0.000000
1.190000	64.730000	83.920000	515.000000	0.000000	112.000000	58.000000	0.000000	0.000000
1.200000	65.230000	84.110000	517.000000	0.000000	112.000000	58.000000	50.000000	19.000000
1.210000	65.520000	84.160000	519.000000	0.000000	112.000000	58.000000	29.000000	5.000000
1.220000	65.820000	84.210000	512.000000	0.000000	112.000000	58.000000	30.000000	5.000000
1.230000	66.180000	84.260000	530.000000	0.000000	112.000000	58.000000	36.000000	5.000000
1.240000	66.610000	84.390000	546.000000	0.000000	112.000000	58.000000	43.000000	13.000000
1.250000	67.160000	84.580000	542.000000	0.000000	112.000000	58.000000	55.000000	19.000000
1.260000	67.760000	84.780000	542.000000	0.000000	112.000000	58.000000	60.000000	20.000000
1.270000	68.260000	84.960000	546.000000	0.000000	111.000000	59.000000	50.000000	18.000000
1.280000	68.630000	85.080000	545.000000	0.000000	111.000000	59.000000	37.000000	12.000000
1.290000	68.920000	85.130000	543.000000	0.000000	111.000000	59.000000	29.000000	5.000000
1.300000	69.160000	85.130000	527.000000	0.000000	112.000000	60.000000	24.000000	0.000000
1.310000	69.400000	85.130000	504.000000	0.000000	112.000000	60.000000	24.000000	0.000000
1.320000	69.610000	85.130000	469.000000	0.000000	113.000000	61.000000	21.000000	0.000000
1.330000	69.810000	85.130000	397.000000	0.000000	114.000000	62.000000	20.000000	0.000000
1.340000	69.890000	85.130000	282.000000	0.000000	115.000000	63.000000	8.000000	0.000000
1.350000	69.840000	85.130000	20.000000	0.000000	115.000000	63.000000	-5.000000	0.000000
1.360000	69.840000	85.130000	0.000000	1.000000	115.000000	63.000000	0.000000	0.000000
1.370000	69.350000	85.130000	0.000000	0.000000	115.000000	63.000000	-49.000000	0.000000
1.380000	68.770000	85.130000	0.000000	0.000000	115.000000	63.000000	-58.000000	0.000000
1.390000	68.020000	85.130000	0.000000	0.000000	115.000000	63.000000	-75.000000	0.000000
1.400000	67.090000	85.050000	0.000000	0.000000	115.000000	63.000000	-93.000000	-8.000000
1.410000	66.080000	84.860000	0.000000	0.000000	114.000000	62.000000	-101.000000	-19.000000
1.420000	65.020000	84.550000	0.000000	0.000000	114.000000	62.000000	-106.000000	-31.000000
1.430000	63.910000	84.170000	0.000000	0.000000	113.000000	61.000000	-111.000000	-38.000000
1.440000	62.820000	83.770000	0.000000	0.000000	113.000000	60.000000	-109.000000	-40.000000
1.450000	61.770000	83.360000	0.000000	0.000000	113.000000	59.000000	-105.000000	-41.000000
1.460000	61.040000	83.110000	0.000000	0.000000	112.000000	58.000000	-73.000000	-25.000000
1.470000	60.510000	82.960000	0.000000	0.000000	113.000000	57.000000	-53.000000	-15.000000
1.480000	60.260000	82.850000	0.000000	0.000000	113.000000	57.000000	-25.000000	-11.000000
1.490000	60.060000	82.850000	0.000000	0.000000	113.000000	57.000000	-20.000000	0.000000
1.500000	60.060000	82.850000	0.000000	0.000000	112.000000	56.000000	0.000000	0.000000
1.510000	60.130000	82.900000	0.000000	0.000000	114.000000	57.000000	7.000000	5.000000
1.520000	60.340000	82.990000	0.000000	0.000000	114.000000	57.000000	21.000000	9.000000
1.530000	60.340000	82.990000	93.000000	1.000000	114.000000	57.000000	0.000000	0.000000
1.540000	60.820000	83.180000	146.000000	0.000000	115.000000	58.000000	48.000000	19.000000
1.550000	61.050000	83.270000	233.000000	0.000000	115.000000	58.000000	23.000000	9.000000
1.560000	61.380000	83.380000	287.000000	0.000000	116.000000	58.000000	33.000000	11.000000
1.570000	61.680000	83.520000	309.000000	0.000000	116.000000	58.000000	30.000000	14.000000
1.580000	61.960000	83.660000	345.000000	0.000000	116.000000	58.000000	28.000000	14.000000
1.590000	62.230000	83.830000	353.000000	0.000000	116.000000	58.000000	27.000000	17.000000
1.600000	62.380000	83.990000	366.000000	0.000000	116.000000	58.000000	15.000000	16.000000
1.610000	62.450000	84.100000	413.000000	0.000000	116.000000	58.000000	7.000000	11.000000
1.620000	62.360000	84.160000	450.000000	0.000000	114.000000	59.000000	-9.000000	6.000000
1.630000	62.140000	84.160000	465.000000	0.000000	114.000000	59.000000	-22.000000	0.000000
1.640000	61.830000	84.070000	465.000000	0.000000	113.000000	58.000000	-31.000000	-9.000000
1.650000	61.400000	83.810000	481.000000	0.000000	114.000000	59.000000	-43.000000	-26.000000
1.660000	60.970000	83.460000	485.000000	0.000000	114.000000	59.000000	-43.000000	-35.000000
1.670000	60.720000	83.210000	485.000000	0.000000	114.000000	59.000000	-25.000000	-25.000000
1.680000	60.580000	83.050000	472.000000	0.000000	114.000000	59.000000	-14.000000	-16.000000
1.690000	60.650000	82.950000	467.000000	0.000000	116.000000	58.000000	7.000000	-10.000000
1.700000	60.860000	82.950000	467.000000	0.000000	116.000000	58.000000	21.000000	0.000000
1.710000	61.170000	82.950000	467.000000	0.000000	116.000000	58.000000	31.000000	0.000000
1.720000	61.620000	83.060000	470.000000	0.000000	116.000000	58.000000	45.000000	11.000000
1.730000	62.210000	83.380000	473.000000	0.000000	116.000000	58.000000	59.000000	32.000000
1.740000	62.890000	83.790000	473.000000	0.000000	116.000000	58.000000	68.000000	41.000000
1.750000	63.550000	84.270000	473.000000	0.000000	114.000000	59.000000	66.000000	48.000000
1.760000	64.010000	84.720000	473.000000	0.000000	114.000000	59.000000	46.000000	45.000000
1.770000	64.330000	84.990000	480.000000	0.000000	114.000000	59.000000	32.000000	27.000000
1.780000	64.470000	85.130000	515.000000	0.000000	112.000000	58.000000	14.000000	14.000000
1.790000	64.470000	85.080000	546.000000	0.000000	112.000000	58.000000	0.000000	-5.000000
1.800000	64.350000	84.990000	578.000000	0.000000	110.000000	58.000000	-12.000000	-9.000000
1.810000	64.190000	84.800000	588.000000	0.000000	109.000000	57.000000	-16.000000	-19.000000
1.820000	63.930000	84.450000	588.000000	0.000000	109.000000	57.000000	-26.000000	-35.000000
1.830000	63.590000	84.020000	584.000000	0.000000	109.000000	57.000000	-34.000000	-43.000000
1.840000	63.590000	83.800000	563.000000	0.000000	109.000000	57.000000	0.000000	-22.000000
1.850000	63.690000	83.690000	556.000000	0.000000	109.000000	57.000000	10.000000	-11.000000
1.860000	63.860000	83.690000	551.000000	0.000000	109.000000	57.000000	17.000000	0.000000
1.870000	64.080000	83.690000	548.000000	0.000000	111.000000	57.000000	22.000000	0.000000
1.880000	64.390000	83.900000	540.000000	0.000000	111.000000	57.000000	31.000000	21.000000
1.890000	64.760000	84.210000	537.000000	0.000000	111.000000	57.000000	37.000000	31.000000
1.900000	65.010000	84.540000	546.000000	0.000000	111.000000	57.000000	25.000000	33.000000
1.910000	65.160000	84.840000	546.000000	0.000000	109.000000	57.000000	15.000000	30.000000
1.920000	65.250000	85.070000	542.000000	0.000000	109.000000	57.000000	9.000000	23.000000
1.930000	65.140000	85.230000	561.000000	0.000000	109.000000	57.000000	-11.000000	16.000000
1.940000	64.930000	85.230000	559.000000	0.000000	109.000000	57.000000	-21.000000	0.000000
1.950000	64.650000	85.230000	565.000000	0.000000	109.000000	57.000000	-28.000000	0.000000
1.960000	64.250000	84.980000	561.000000	0.000000	109.000000	57.000000	-40.000000	-25.000000
1.970000	63.950000	84.640000	546.000000	0.000000	109.000000	57.000000	-30.000000	-34.000000
1.980000	63.720000	84.320000	490.000000	0.000000	109.000000	57.000000	-23.000000	-32.000000
1.990000	63.780000	84.220000	402.000000	0.000000	109.000000	57.000000	6.000000	-10.000000
2.000000	63.900000	84.220000	353.000000	0.000000	109.000000	57.000000	12.000000	0.000000
2.010000	64.190000	84.450000	311.000000	0.000000	109.000000	57.000000	29.000000	23.000000
2.020000	64.570000	84.880000	287.000000	0.000000	109.000000	57.000000	38.000000	43.000000
2.030000	64.990000	85.460000	282.000000	0.000000	109.000000	57.000000	42.000000	58.000000
2.040000	65.410000	86.040000	277.000000	0.000000	108.000000	58.000000	42.000000	58.000000
2.050000	65.810000	86.680000	275.000000	0.000000	108.000000	58.000000	40.000000	64.000000
2.060000	66.180000	87.370000	275.000000	0.000000	108.000000	58.000000	37.000000	69.000000
2.070000	66.430000	87.950000	292.000000	0.000000	106.000000	58.000000	25.000000	58.000000
2.080000	66.620000	88.250000	346.000000	0.000000	106.000000	58.000000	19.000000	30.000000
2.090000	66.620000	88.360000	402.000000	0.000000	106.000000	58.000000	0.000000	11.000000
2.100000	66.540000	88.250000	445.000000	0.000000	106.000000	58.000000	-8.000000	-11.000000
2.110000	66.350000	87.870000	483.000000	0.000000	106.000000	58.000000	-19.000000	-38.000000
2.120000	66.070000	87.310000	516.000000	0.000000	106.000000	58.000000	-28.000000	-56.000000
2.130000	65.690000	86.410000	529.000000	0.000000	106.000000	58.000000	-38.000000	-90.000000
2.140000	65.250000	85.510000	526.000000	0.000000	106.000000	58.000000	-44.000000	-90.000000
2.150000	64.980000	84.860000	495.000000	0.000000	106.000000	58.000000	-27.000000	-65.000000
2.160000	64.980000	84.380000	448.000000	0.000000	106.000000	58.000000	0.000000	-48.000000
2.170000	65.200000	84.160000	379.000000	0.000000	106.000000	58.000000	22.000000	-22.000000
2.180000	65.380000	84.160000	344.000000	0.000000	106.000000	58.000000	18.000000	0.000000
2.190000	65.560000	84.240000	306.000000	0.000000	106.000000	58.000000	18.000000	8.000000
2.200000	65.750000	84.530000	282.000000	0.000000	108.000000	58.000000	19.000000	29.000000
