t	x	y	pressure	penup	azimuth	inclination	v_x	v_y
0.000000	19.760000	8.330000	131.000000	1.000000	143.000000	46.000000	0.000000	0.000000
0.010000	19.870000	8.020000	171.000000	0.000000	143.000000	46.000000	11.000000	-31.000000
0.020000	19.410000	7.950000	223.000000	0.000000	142.000000	47.000000	-46.000000	-7.000000
0.030000	19.410000	7.880000	279.000000	0.000000	140.000000	48.000000	0.000000	-7.000000
0.040000	19.340000	7.880000	329.000000	0.000000	139.000000	48.000000	-7.000000	0.000000
0.050000	19.340000	7.880000	396.000000	0.000000	138.000000	49.000000	0.000000	0.000000
0.060000	19.340000	7.880000	455.000000	0.000000	137.000000	48.000000	0.000000	0.000000
0.070000	19.340000	7.880000	488.000000	0.000000	136.000000	49.000000	0.000000	0.000000
0.080000	19.340000	8.000000	494.000000	0.000000	135.000000	50.000000	0.000000	12.000000
0.090000	19.340000	8.130000	499.000000	0.000000	135.000000	50.000000	0.000000	13.000000
0.100000	19.340000	8.390000	496.000000	0.000000	135.000000	50.000000	0.000000	26.000000
0.110000	19.340000	8.720000	492.000000	0.000000	135.000000	50.000000	0.000000	33.000000
0.120000	19.490000	9.090000	494.000000	0.000000	135.000000	50.000000	15.000000	37.000000
0.130000	19.690000	9.630000	489.000000	0.000000	135.000000	50.000000	20.000000	54.000000
0.140000	19.940000	10.310000	494.000000	0.000000	136.000000	49.000000	25.000000	68.000000
0.150000	20.330000	11.080000	496.000000	0.000000	136.000000	49.000000	39.000000	77.000000
0.160000	20.820000	12.090000	509.000000	0.000000	136.000000	49.000000	49.000000	101.000000
0.170000	21.320000	13.060000	504.000000	0.000000	136.000000	49.000000	50.000000	97.000000
0.180000	21.830000	13.960000	504.000000	0.000000	136.000000	49.000000	51.000000	90.000000
0.190000	22.250000	14.580000	502.000000	0.000000	136.000000	49.000000	42.000000	62.000000
0.200000	22.610000	15.030000	504.000000	0.000000	135.000000	49.000000	36.000000	45.000000
0.210000	22.860000	15.310000	507.000000	0.000000	135.000000	49.000000	25.000000	28.000000
0.220000	23.000000	15.410000	504.000000	0.000000	135.000000	49.000000	14.000000	10.000000
0.230000	23.070000	15.410000	509.000000	0.000000	134.000000	49.000000	7.000000	0.000000
0.240000	23.140000	15.360000	507.000000	0.000000	134.000000	49.000000	7.000000	-5.000000
0.250000	23.230000	15.360000	505.000000	0.000000	134.000000	49.000000	9.000000	0.000000
0.260000	23.340000	15.120000	492.000000	0.000000	134.000000	49.000000	11.000000	-24.000000
0.270000	23.500000	14.820000	501.000000	0.000000	134.000000	49.000000	16.000000	-30.000000
0.280000	23.650000	14.220000	502.000000	0.000000	134.000000	49.000000	15.000000	-60.000000
0.290000	23.700000	13.420000	495.000000	0.000000	134.000000	49.000000	5.000000	-80.000000
0.300000	23.700000	12.480000	480.000000	0.000000	134.000000	49.000000	0.000000	-94.000000
0.310000	23.700000	11.480000	483.000000	0.000000	135.000000	50.000000	0.000000	-100.000000
0.320000	23.700000	10.820000	475.000000	0.000000	135.000000	50.000000	0.000000	-66.000000
0.330000	23.700000	10.390000	475.000000	0.000000	135.000000	50.000000	0.000000	-43.000000
0.340000	23.700000	9.960000	475.000000	0.000000	136.000000	50.000000	0.000000	-43.000000
0.350000	23.700000	9.660000	472.000000	0.000000	136.000000	50.000000	0.000000	-30.000000
0.360000	23.630000	9.460000	464.000000	0.000000	136.000000	50.000000	-7.000000	-20.000000
0.370000	23.630000	9.320000	468.000000	0.000000	137.000000	51.000000	0.000000	-14.000000
0.380000	23.630000	9.170000	458.000000	0.000000	137.000000	51.000000	0.000000	-15.000000
0.390000	23.630000	9.010000	446.000000	0.000000	137.000000	51.000000	0.000000	-16.000000
0.400000	23.570000	8.950000	430.000000	0.000000	137.000000	51.000000	-6.000000	-6.000000
0.410000	23.570000	8.950000	436.000000	0.000000	136.000000	51.000000	0.000000	0.000000
0.420000	23.620000	9.150000	431.000000	0.000000	136.000000	51.000000	5.000000	20.000000
0.430000	23.670000	9.480000	431.000000	0.000000	136.000000	51.000000	5.000000	33.000000
0.440000	23.740000	9.910000	440.000000	0.000000	136.000000	51.000000	7.000000	43.000000
0.450000	23.830000	10.370000	448.000000	0.000000	136.000000	51.000000	9.000000	46.000000
0.460000	23.980000	10.930000	449.000000	0.000000	136.000000	51.000000	15.000000	56.000000
0.470000	24.190000	11.570000	440.000000	0.000000	136.000000	51.000000	21.000000	64.000000
0.480000	24.430000	12.330000	445.000000	0.000000	135.000000	51.000000	24.000000	76.000000
0.490000	24.750000	13.070000	448.000000	0.000000	136.000000	50.000000	32.000000	74.000000
0.500000	25.150000	13.790000	448.000000	0.000000	136.000000	50.000000	40.000000	72.000000
0.510000	25.600000	14.300000	456.000000	0.000000	135.000000	51.000000	45.000000	51.000000
0.520000	25.950000	14.760000	467.000000	0.000000	135.000000	51.000000	35.000000	46.000000
0.530000	26.230000	15.130000	495.000000	0.000000	135.000000	51.000000	28.000000	37.000000
0.540000	26.470000	15.460000	498.000000	0.000000	135.000000	51.000000	24.000000	33.000000
0.550000	26.650000	15.750000	496.000000	0.000000	135.000000	51.000000	18.000000	29.000000
0.560000	26.750000	15.860000	513.000000	0.000000	134.000000	50.000000	10.000000	11.000000
0.570000	26.800000	15.860000	519.000000	0.000000	133.000000	50.000000	5.000000	0.000000
0.580000	26.890000	15.780000	519.000000	0.000000	133.000000	50.000000	9.000000	-8.000000
0.590000	26.970000	15.540000	515.000000	0.000000	132.000000	49.000000	8.000000	-24.000000
0.600000	27.040000	15.170000	520.000000	0.000000	131.000000	48.000000	7.000000	-37.000000
0.610000	27.040000	14.610000	519.000000	0.000000	131.000000	48.000000	0.000000	-56.000000
0.620000	27.040000	14.020000	513.000000	0.000000	131.000000	48.000000	0.000000	-59.000000
0.630000	27.040000	13.410000	515.000000	0.000000	130.000000	48.000000	0.000000	-61.000000
0.640000	27.040000	12.800000	519.000000	0.000000	130.000000	48.000000	0.000000	-61.000000
0.650000	27.040000	12.140000	518.000000	0.000000	130.000000	48.000000	0.000000	-66.000000
0.660000	27.040000	11.450000	516.000000	0.000000	130.000000	48.000000	0.000000	-69.000000
0.670000	27.040000	10.810000	522.000000	0.000000	130.000000	48.000000	0.000000	-64.000000
0.680000	27.040000	10.400000	496.000000	0.000000	131.000000	48.000000	0.000000	-41.000000
0.690000	27.140000	10.110000	441.000000	0.000000	131.000000	48.000000	10.000000	-29.000000
0.700000	27.230000	9.880000	373.000000	0.000000	131.000000	48.000000	9.000000	-23.000000
0.710000	27.310000	9.690000	240.000000	0.000000	129.000000	49.000000	8.000000	-19.000000
0.720000	27.310000	9.690000	0.000000	1.000000	129.000000	49.000000	0.000000	0.000000
0.730000	27.420000	9.360000	0.000000	0.000000	129.000000	49.000000	11.000000	-33.000000
0.740000	27.470000	9.450000	0.000000	0.000000	129.000000	49.000000	5.000000	9.000000
0.750000	27.770000	9.720000	0.000000	0.000000	130.000000	50.000000	30.000000	27.000000
0.760000	28.350000	10.180000	0.000000	0.000000	130.000000	50.000000	58.000000	46.000000
0.770000	29.120000	10.870000	0.000000	0.000000	130.000000	50.000000	77.000000	69.000000
0.780000	30.600000	11.710000	0.000000	0.000000	132.000000	49.000000	148.000000	84.000000
0.790000	32.440000	12.920000	0.000000	0.000000	133.000000	48.000000	184.000000	121.000000
0.800000	34.510000	13.900000	0.000000	0.000000	135.000000	49.000000	207.000000	98.000000
0.810000	36.020000	14.720000	0.000000	0.000000	137.000000	48.000000	151.000000	82.000000
0.820000	36.810000	15.030000	0.000000	0.000000	137.000000	48.000000	79.000000	31.000000
0.830000	37.120000	14.890000	0.000000	0.000000	137.000000	47.000000	31.000000	-14.000000
0.840000	36.900000	14.450000	0.000000	0.000000	138.000000	47.000000	-22.000000	-44.000000
0.850000	36.520000	14.040000	0.000000	0.000000	137.000000	46.000000	-38.000000	-41.000000
0.860000	36.030000	13.970000	0.000000	0.000000	138.000000	46.000000	-49.000000	-7.000000
0.870000	35.680000	14.130000	0.000000	0.000000	139.000000	46.000000	-35.000000	16.000000
0.880000	35.290000	14.260000	0.000000	0.000000	139.000000	46.000000	-39.000000	13.000000
0.890000	34.770000	14.370000	0.000000	0.000000	139.000000	46.000000	-52.000000	11.000000
0.900000	34.180000	14.370000	0.000000	0.000000	140.000000	47.000000	-59.000000	0.000000
0.910000	33.660000	14.370000	0.000000	0.000000	141.000000	46.000000	-52.000000	0.000000
0.920000	33.190000	14.370000	0.000000	0.000000	143.000000	46.000000	-47.000000	0.000000
0.930000	32.720000	14.280000	0.000000	0.000000	144.000000	47.000000	-47.000000	-9.000000
0.940000	32.220000	14.210000	0.000000	0.000000	143.000000	46.000000	-50.000000	-7.000000
0.950000	31.540000	14.120000	0.000000	0.000000	142.000000	45.000000	-68.000000	-9.000000
0.960000	30.800000	14.030000	0.000000	0.000000	141.000000	45.000000	-74.000000	-9.000000
0.970000	30.010000	13.900000	0.000000	0.000000	140.000000	45.000000	-79.000000	-13.000000
0.980000	29.530000	13.730000	0.000000	0.000000	139.000000	44.000000	-48.000000	-17.000000
0.990000	29.530000	13.590000	0.000000	0.000000	139.000000	43.000000	0.000000	-14.000000
1.000000	29.760000	13.590000	0.000000	0.000000	139.000000	43.000000	23.000000	0.000000
1.010000	29.430000	13.680000	0.000000	0.000000	138.000000	43.000000	-33.000000	9.000000
1.020000	29.330000	13.740000	0.000000	0.000000	138.000000	43.000000	-10.000000	6.000000
1.030000	29.330000	13.800000	0.000000	0.000000	137.000000	43.000000	0.000000	6.000000
1.040000	29.330000	13.860000	0.000000	0.000000	138.000000	44.000000	0.000000	6.000000
1.050000	29.230000	13.910000	0.000000	0.000000	138.000000	44.000000	-10.000000	5.000000
1.060000	29.230000	13.960000	0.000000	0.000000	137.000000	44.000000	0.000000	5.000000
1.070000	29.070000	13.810000	0.000000	0.000000	137.000000	44.000000	-16.000000	-15.000000
1.080000	28.830000	13.540000	0.000000	0.000000	137.000000	44.000000	-24.000000	-27.000000
1.090000	28.650000	13.340000	0.000000	0.000000	137.000000	45.000000	-18.000000	-20.000000
1.100000	28.520000	13.260000	0.000000	0.000000	137.000000	45.000000	-13.000000	-8.000000
1.110000	28.470000	13.260000	0.000000	0.000000	137.000000	45.000000	-5.000000	0.000000
1.120000	28.470000	13.260000	0.000000	0.000000	137.000000	46.000000	0.000000	0.000000
1.130000	28.470000	13.350000	0.000000	0.000000	137.000000	46.000000	0.000000	9.000000
1.140000	28.570000	13.420000	0.000000	0.000000	138.000000	47.000000	10.000000	7.000000
1.150000	28.620000	13.420000	0.000000	0.000000	137.000000	47.000000	5.000000	0.000000
1.160000	28.620000	13.420000	0.000000	0.000000	137.000000	47.000000	0.000000	0.000000
1.170000	28.550000	13.370000	0.000000	0.000000	136.000000	48.000000	-7.000000	-5.000000
1.180000	28.400000	13.240000	0.000000	0.000000	136.000000	48.000000	-15.000000	-13.000000
1.190000	28.280000	13.110000	0.000000	0.000000	136.000000	48.000000	-12.000000	-13.000000
1.200000	28.210000	13.000000	0.000000	0.000000	135.000000	49.000000	-7.000000	-11.000000
1.210000	28.150000	12.910000	0.000000	0.000000	134.000000	48.000000	-6.000000	-9.000000
1.220000	28.150000	12.910000	0.000000	0.000000	134.000000	48.000000	0.000000	0.000000
1.230000	28.150000	12.910000	0.000000	0.000000	133.000000	48.000000	0.000000	0.000000
1.240000	28.240000	13.010000	0.000000	0.000000	133.000000	48.000000	9.000000	10.000000
1.250000	28.320000	13.100000	0.000000	0.000000	132.000000	49.000000	8.000000	9.000000
1.260000	28.390000	13.190000	0.000000	0.000000	131.000000	48.000000	7.000000	9.000000
1.270000	28.390000	13.190000	44.000000	1.000000	130.000000	50.000000	0.000000	0.000000
1.280000	28.390000	13.190000	91.000000	0.000000	130.000000	50.000000	0.000000	0.000000
1.290000	28.390000	13.190000	165.000000	0.000000	130.000000	50.000000	0.000000	0.000000
1.300000	28.390000	13.470000	216.000000	0.000000	130.000000	50.000000	0.000000	28.000000
1.310000	28.390000	13.470000	273.000000	0.000000	130.000000	50.000000	0.000000	0.000000
1.320000	28.390000	13.540000	341.000000	0.000000	132.000000	49.000000	0.000000	7.000000
1.330000	28.450000	13.540000	396.000000	0.000000	132.000000	49.000000	6.000000	0.000000
1.340000	28.450000	13.640000	420.000000	0.000000	132.000000	49.000000	0.000000	10.000000
1.350000	28.580000	13.730000	446.000000	0.000000	133.000000	48.000000	13.000000	9.000000
1.360000	28.710000	13.900000	448.000000	0.000000	133.000000	48.000000	13.000000	17.000000
1.370000	28.890000	14.050000	473.000000	0.000000	133.000000	48.000000	18.000000	15.000000
1.380000	29.090000	14.180000	489.000000	0.000000	133.000000	48.000000	20.000000	13.000000
1.390000	29.320000	14.280000	489.000000	0.000000	132.000000	49.000000	23.000000	10.000000
1.400000	29.450000	14.330000	491.000000	0.000000	132.000000	49.000000	13.000000	5.000000
1.410000	29.520000	14.330000	499.000000	0.000000	132.000000	49.000000	7.000000	0.000000
1.420000	29.600000	14.380000	502.000000	0.000000	132.000000	49.000000	8.000000	5.000000
1.430000	29.660000	14.440000	513.000000	0.000000	132.000000	49.000000	6.000000	6.000000
1.440000	29.660000	14.520000	521.000000	0.000000	132.000000	49.000000	0.000000	8.000000
1.450000	29.710000	14.630000	518.000000	0.000000	132.000000	49.000000	5.000000	11.000000
1.460000	29.710000	14.750000	512.000000	0.000000	132.000000	49.000000	0.000000	12.000000
1.470000	29.710000	14.840000	512.000000	0.000000	132.000000	49.000000	0.000000	9.000000
1.480000	29.640000	14.840000	496.000000	0.000000	132.000000	49.000000	-7.000000	0.000000
1.490000	29.530000	14.840000	485.000000	0.000000	132.000000	49.000000	-11.000000	0.000000
1.500000	29.350000	14.620000	485.000000	0.000000	132.000000	49.000000	-18.000000	-22.000000
1.510000	29.130000	14.380000	483.000000	0.000000	132.000000	49.000000	-22.000000	-24.000000
1.520000	28.940000	14.080000	483.000000	0.000000	132.000000	49.000000	-19.000000	-30.000000
1.530000	28.800000	13.780000	483.000000	0.000000	132.000000	49.000000	-14.000000	-30.000000
1.540000	28.740000	13.520000	483.000000	0.000000	132.000000	49.000000	-6.000000	-26.000000
1.550000	28.800000	13.290000	472.000000	0.000000	133.000000	48.000000	6.000000	-23.000000
1.560000	28.940000	13.140000	460.000000	0.000000	133.000000	48.000000	14.000000	-15.000000
1.570000	29.170000	13.050000	445.000000	0.000000	133.000000	48.000000	23.000000	-9.000000
1.580000	29.470000	13.050000	440.000000	0.000000	133.000000	48.000000	30.000000	0.000000
1.590000	29.810000	13.050000	430.000000	0.000000	133.000000	48.000000	34.000000	0.000000
1.600000	30.140000	13.150000	427.000000	0.000000	132.000000	49.000000	33.000000	10.000000
1.610000	30.440000	13.290000	423.000000	0.000000	132.000000	49.000000	30.000000	14.000000
1.620000	30.700000	13.430000	423.000000	0.000000	133.000000	50.000000	26.000000	14.000000
1.630000	30.920000	13.640000	417.000000	0.000000	133.000000	50.000000	22.000000	21.000000
1.640000	31.060000	13.900000	420.000000	0.000000	133.000000	50.000000	14.000000	26.000000
1.650000	31.130000	14.150000	430.000000	0.000000	133.000000	50.000000	7.000000	25.000000
1.660000	31.130000	14.400000	450.000000	0.000000	133.000000	50.000000	0.000000	25.000000
1.670000	31.070000	14.530000	473.000000	0.000000	133.000000	50.000000	-6.000000	13.000000
1.680000	31.000000	14.580000	475.000000	0.000000	133.000000	50.000000	-7.000000	5.000000
1.690000	30.940000	14.580000	465.000000	0.000000	133.000000	50.000000	-6.000000	0.000000
1.700000	30.940000	14.580000	469.000000	0.000000	133.000000	50.000000	0.000000	0.000000
1.710000	30.940000	14.490000	463.000000	0.000000	133.000000	50.000000	0.000000	-9.000000
1.720000	31.060000	14.400000	448.000000	0.000000	133.000000	50.000000	12.000000	-9.000000
1.730000	31.150000	14.320000	440.000000	0.000000	133.000000	50.000000	9.000000	-8.000000
1.740000	31.250000	14.320000	431.000000	0.000000	133.000000	50.000000	10.000000	0.000000
1.750000	31.350000	14.320000	440.000000	0.000000	133.000000	50.000000	10.000000	0.000000
1.760000	31.410000	14.390000	446.000000	0.000000	133.000000	50.000000	6.000000	7.000000
1.770000	31.410000	14.500000	456.000000	0.000000	133.000000	50.000000	0.000000	11.000000
1.780000	31.540000	14.620000	463.000000	0.000000	133.000000	50.000000	13.000000	12.000000
1.790000	31.600000	14.780000	463.000000	0.000000	133.000000	50.000000	6.000000	16.000000
1.800000	31.600000	14.920000	465.000000	0.000000	133.000000	50.000000	0.000000	14.000000
1.810000	31.600000	15.060000	465.000000	0.000000	133.000000	50.000000	0.000000	14.000000
1.820000	31.600000	15.130000	450.000000	0.000000	133.000000	50.000000	0.000000	7.000000
1.830000	31.500000	15.190000	447.000000	0.000000	133.000000	50.000000	-10.000000	6.000000
1.840000	31.380000	15.190000	449.000000	0.000000	133.000000	50.000000	-12.000000	0.000000
1.850000	31.180000	15.120000	441.000000	0.000000	133.000000	50.000000	-20.000000	-7.000000
1.860000	30.950000	14.900000	444.000000	0.000000	133.000000	50.000000	-23.000000	-22.000000
1.870000	30.690000	14.600000	441.000000	0.000000	133.000000	50.000000	-26.000000	-30.000000
1.880000	30.540000	14.300000	441.000000	0.000000	133.000000	50.000000	-15.000000	-30.000000
1.890000	30.450000	13.990000	436.000000	0.000000	133.000000	50.000000	-9.000000	-31.000000
1.900000	30.450000	13.770000	422.000000	0.000000	133.000000	50.000000	0.000000	-22.000000
1.910000	30.580000	13.620000	423.000000	0.000000	133.000000	50.000000	13.000000	-15.000000
1.920000	30.730000	13.530000	423.000000	0.000000	133.000000	50.000000	15.000000	-9.000000
1.930000	30.920000	13.530000	423.000000	0.000000	133.000000	50.000000	19.000000	0.000000
1.940000	31.180000	13.670000	423.000000	0.000000	133.000000	50.000000	26.000000	14.000000
1.950000	31.510000	13.900000	425.000000	0.000000	133.000000	50.000000	33.000000	23.000000
1.960000	31.820000	14.230000	414.000000	0.000000	133.000000	50.000000	31.000000	33.000000
1.970000	32.100000	14.620000	420.000000	0.000000	134.000000	50.000000	28.000000	39.000000
1.980000	32.360000	15.020000	430.000000	0.000000	134.000000	50.000000	26.000000	40.000000
1.990000	32.560000	15.420000	449.000000	0.000000	134.000000	50.000000	20.000000	40.000000
2.000000	32.710000	15.800000	449.000000	0.000000	134.000000	50.000000	15.000000	38.000000
2.010000	32.800000	16.230000	455.000000	0.000000	134.000000	50.000000	9.000000	43.000000
2.020000	32.890000	16.700000	463.000000	0.000000	134.000000	50.000000	9.000000	47.000000
2.030000	32.980000	17.130000	480.000000	0.000000	134.000000	50.000000	9.000000	43.000000
2.040000	32.980000	17.320000	499.000000	0.000000	134.000000	50.000000	0.000000	19.000000
2.050000	32.980000	17.320000	501.000000	0.000000	134.000000	50.000000	0.000000	0.000000
2.060000	32.980000	17.320000	492.000000	0.000000	135.000000	50.000000	0.000000	0.000000
2.070000	32.910000	17.010000	494.000000	0.000000	135.000000	50.000000	-7.000000	-31.000000
2.080000	32.910000	16.610000	496.000000	0.000000	135.000000	50.000000	0.000000	-40.000000
2.090000	32.800000	16.020000	494.000000	0.000000	136.000000	49.000000	-11.000000	-59.000000
2.100000	32.720000	15.420000	491.000000	0.000000	135.000000	50.000000	-8.000000	-60.000000
2.110000	32.720000	15.020000	498.000000	0.000000	135.000000	50.000000	0.000000	-40.000000
2.120000	32.790000	14.760000	485.000000	0.000000	135.000000	50.000000	7.000000	-26.000000
2.130000	32.840000	14.610000	475.000000	0.000000	135.000000	51.000000	5.000000	-15.000000
2.140000	32.940000	14.610000	486.000000	0.000000	135.000000	51.000000	10.000000	0.000000
2.150000	33.070000	14.610000	489.000000	0.000000	135.000000	51.000000	13.000000	0.000000
2.160000	33.250000	14.810000	496.000000	0.000000	135.000000	51.000000	18.000000	20.000000
2.170000	33.450000	15.040000	509.000000	0.000000	135.000000	51.000000	20.000000	23.000000
2.180000	33.680000	15.320000	520.000000	0.000000	134.000000	51.000000	23.000000	28.000000
2.190000	33.930000	15.490000	537.000000	0.000000	134.000000	51.000000	25.000000	17.000000
2.200000	34.160000	15.640000	561.000000	0.000000	134.000000	51.000000	23.000000	15.000000
2.210000	34.310000	15.640000	569.000000	0.000000	134.000000	51.000000	15.000000	0.000000
2.220000	34.400000	15.640000	578.000000	0.000000	134.000000	51.000000	9.000000	0.000000
