t	x	y	pressure	penup	azimuth	inclination	v_x	v_y
0.000000	24.540000	4.760000	18.000000	1.000000	146.000000	62.000000	0.000000	0.000000
0.010000	24.540000	4.760000	73.000000	0.000000	144.000000	62.000000	0.000000	0.000000
0.020000	24.540000	4.760000	134.000000	0.000000	143.000000	63.000000	0.000000	0.000000
0.030000	24.600000	4.500000	203.000000	0.000000	143.000000	63.000000	6.000000	-26.000000
0.040000	24.600000	4.450000	304.000000	0.000000	141.000000	64.000000	0.000000	-5.000000
0.050000	24.600000	4.450000	407.000000	0.000000	140.000000	65.000000	0.000000	0.000000
0.060000	24.600000	4.450000	519.000000	0.000000	140.000000	65.000000	0.000000	0.000000
0.070000	24.600000	4.400000	605.000000	0.000000	138.000000	65.000000	0.000000	-5.000000
0.080000	24.600000	4.400000	694.000000	0.000000	138.000000	65.000000	0.000000	0.000000
0.090000	24.600000	4.400000	758.000000	0.000000	138.000000	65.000000	0.000000	0.000000
0.100000	24.600000	4.470000	783.000000	0.000000	137.000000	66.000000	0.000000	7.000000
0.110000	24.600000	4.640000	793.000000	0.000000	137.000000	66.000000	0.000000	17.000000
0.120000	24.520000	4.890000	808.000000	0.000000	137.000000	66.000000	-8.000000	25.000000
0.130000	24.440000	5.470000	805.000000	0.000000	137.000000	66.000000	-8.000000	58.000000
0.140000	24.360000	6.260000	808.000000	0.000000	138.000000	65.000000	-8.000000	79.000000
0.150000	24.300000	7.190000	797.000000	0.000000	140.000000	65.000000	-6.000000	93.000000
0.160000	24.160000	8.390000	796.000000	0.000000	138.000000	64.000000	-14.000000	120.000000
0.170000	23.960000	9.850000	785.000000	0.000000	138.000000	64.000000	-20.000000	146.000000
0.180000	23.840000	11.490000	791.000000	0.000000	138.000000	63.000000	-12.000000	164.000000
0.190000	23.900000	13.360000	774.000000	0.000000	138.000000	63.000000	6.000000	187.000000
0.200000	24.080000	14.910000	770.000000	0.000000	138.000000	61.000000	18.000000	155.000000
0.210000	24.330000	16.260000	762.000000	0.000000	136.000000	61.000000	25.000000	135.000000
0.220000	24.610000	17.330000	754.000000	0.000000	136.000000	61.000000	28.000000	107.000000
0.230000	25.030000	18.140000	727.000000	0.000000	135.000000	62.000000	42.000000	81.000000
0.240000	25.520000	18.780000	690.000000	0.000000	134.000000	61.000000	49.000000	64.000000
0.250000	26.050000	19.410000	670.000000	0.000000	134.000000	61.000000	53.000000	63.000000
0.260000	26.590000	19.830000	653.000000	0.000000	132.000000	60.000000	54.000000	42.000000
0.270000	27.110000	20.110000	614.000000	0.000000	132.000000	60.000000	52.000000	28.000000
0.280000	27.450000	20.110000	589.000000	0.000000	129.000000	60.000000	34.000000	0.000000
0.290000	27.690000	20.110000	564.000000	0.000000	129.000000	60.000000	24.000000	0.000000
0.300000	27.740000	19.910000	561.000000	0.000000	128.000000	59.000000	5.000000	-20.000000
0.310000	27.740000	19.630000	561.000000	0.000000	128.000000	59.000000	0.000000	-28.000000
0.320000	27.670000	19.280000	561.000000	0.000000	128.000000	59.000000	-7.000000	-35.000000
0.330000	27.570000	18.880000	560.000000	0.000000	127.000000	59.000000	-10.000000	-40.000000
0.340000	27.390000	18.370000	561.000000	0.000000	127.000000	59.000000	-18.000000	-51.000000
0.350000	27.150000	17.810000	570.000000	0.000000	127.000000	59.000000	-24.000000	-56.000000
0.360000	26.780000	17.120000	569.000000	0.000000	128.000000	59.000000	-37.000000	-69.000000
0.370000	26.380000	16.350000	594.000000	0.000000	128.000000	59.000000	-40.000000	-77.000000
0.380000	25.970000	15.570000	597.000000	0.000000	129.000000	59.000000	-41.000000	-78.000000
0.390000	25.520000	14.780000	610.000000	0.000000	131.000000	60.000000	-45.000000	-79.000000
0.400000	25.110000	13.990000	634.000000	0.000000	134.000000	60.000000	-41.000000	-79.000000
0.410000	24.720000	13.220000	646.000000	0.000000	135.000000	60.000000	-39.000000	-77.000000
0.420000	24.340000	12.510000	658.000000	0.000000	135.000000	60.000000	-38.000000	-71.000000
0.430000	23.980000	11.830000	678.000000	0.000000	136.000000	61.000000	-36.000000	-68.000000
0.440000	23.620000	11.110000	684.000000	0.000000	138.000000	61.000000	-36.000000	-72.000000
0.450000	23.260000	10.550000	702.000000	0.000000	138.000000	61.000000	-36.000000	-56.000000
0.460000	22.860000	10.090000	711.000000	0.000000	138.000000	61.000000	-40.000000	-46.000000
0.470000	22.440000	9.610000	725.000000	0.000000	138.000000	61.000000	-42.000000	-48.000000
0.480000	21.960000	9.200000	731.000000	0.000000	138.000000	61.000000	-48.000000	-41.000000
0.490000	21.480000	8.830000	742.000000	0.000000	138.000000	61.000000	-48.000000	-37.000000
0.500000	20.990000	8.520000	745.000000	0.000000	139.000000	61.000000	-49.000000	-31.000000
0.510000	20.480000	8.220000	748.000000	0.000000	141.000000	60.000000	-51.000000	-30.000000
0.520000	19.980000	7.940000	745.000000	0.000000	144.000000	60.000000	-50.000000	-28.000000
0.530000	19.420000	7.710000	748.000000	0.000000	146.000000	58.000000	-56.000000	-23.000000
0.540000	18.820000	7.490000	730.000000	0.000000	147.000000	58.000000	-60.000000	-22.000000
0.550000	18.250000	7.280000	739.000000	0.000000	150.000000	57.000000	-57.000000	-21.000000
0.560000	17.800000	7.150000	734.000000	0.000000	151.000000	56.000000	-45.000000	-13.000000
0.570000	17.430000	7.030000	731.000000	0.000000	152.000000	56.000000	-37.000000	-12.000000
0.580000	17.050000	6.910000	736.000000	0.000000	152.000000	56.000000	-38.000000	-12.000000
0.590000	16.670000	6.830000	740.000000	0.000000	154.000000	55.000000	-38.000000	-8.000000
0.600000	16.330000	6.740000	737.000000	0.000000	155.000000	54.000000	-34.000000	-9.000000
0.610000	16.000000	6.640000	739.000000	0.000000	158.000000	55.000000	-33.000000	-10.000000
0.620000	15.710000	6.510000	740.000000	0.000000	160.000000	54.000000	-29.000000	-13.000000
0.630000	15.440000	6.340000	740.000000	0.000000	163.000000	55.000000	-27.000000	-17.000000
0.640000	15.230000	6.250000	745.000000	0.000000	165.000000	55.000000	-21.000000	-9.000000
0.650000	15.080000	6.250000	743.000000	0.000000	169.000000	54.000000	-15.000000	0.000000
0.660000	14.940000	6.200000	740.000000	0.000000	170.000000	55.000000	-14.000000	-5.000000
0.670000	14.790000	6.200000	745.000000	0.000000	173.000000	55.000000	-15.000000	0.000000
0.680000	14.720000	6.270000	737.000000	0.000000	174.000000	55.000000	-7.000000	7.000000
0.690000	14.630000	6.500000	740.000000	0.000000	174.000000	55.000000	-9.000000	23.000000
0.700000	14.490000	6.690000	734.000000	0.000000	175.000000	54.000000	-14.000000	19.000000
0.710000	14.390000	6.830000	736.000000	0.000000	175.000000	54.000000	-10.000000	14.000000
0.720000	14.270000	6.960000	737.000000	0.000000	175.000000	54.000000	-12.000000	13.000000
0.730000	14.210000	7.070000	725.000000	0.000000	175.000000	54.000000	-6.000000	11.000000
0.740000	14.150000	7.200000	731.000000	0.000000	176.000000	54.000000	-6.000000	13.000000
0.750000	14.150000	7.400000	724.000000	0.000000	176.000000	54.000000	0.000000	20.000000
0.760000	14.150000	7.620000	710.000000	0.000000	177.000000	54.000000	0.000000	22.000000
0.770000	14.230000	8.020000	703.000000	0.000000	177.000000	55.000000	8.000000	40.000000
0.780000	14.340000	8.410000	702.000000	0.000000	177.000000	55.000000	11.000000	39.000000
0.790000	14.460000	8.800000	690.000000	0.000000	177.000000	55.000000	12.000000	39.000000
0.800000	14.590000	9.190000	697.000000	0.000000	177.000000	56.000000	13.000000	39.000000
0.810000	14.710000	9.470000	697.000000	0.000000	177.000000	56.000000	12.000000	28.000000
0.820000	14.830000	9.680000	693.000000	0.000000	176.000000	56.000000	12.000000	21.000000
0.830000	15.000000	10.060000	693.000000	0.000000	175.000000	57.000000	17.000000	38.000000
0.840000	15.270000	10.450000	691.000000	0.000000	174.000000	57.000000	27.000000	39.000000
0.850000	15.580000	10.840000	693.000000	0.000000	172.000000	57.000000	31.000000	39.000000
0.860000	15.910000	11.320000	693.000000	0.000000	170.000000	58.000000	33.000000	48.000000
0.870000	16.400000	11.860000	691.000000	0.000000	167.000000	57.000000	49.000000	54.000000
0.880000	16.920000	12.440000	690.000000	0.000000	164.000000	58.000000	52.000000	58.000000
0.890000	17.510000	13.020000	702.000000	0.000000	159.000000	57.000000	59.000000	58.000000
0.900000	18.130000	13.630000	697.000000	0.000000	154.000000	56.000000	62.000000	61.000000
0.910000	18.790000	14.260000	687.000000	0.000000	152.000000	56.000000	66.000000	63.000000
0.920000	19.540000	14.820000	681.000000	0.000000	149.000000	55.000000	75.000000	56.000000
0.930000	20.340000	15.370000	675.000000	0.000000	146.000000	54.000000	80.000000	55.000000
0.940000	21.210000	15.870000	678.000000	0.000000	145.000000	54.000000	87.000000	50.000000
0.950000	22.160000	16.240000	673.000000	0.000000	146.000000	53.000000	95.000000	37.000000
0.960000	23.110000	16.530000	663.000000	0.000000	146.000000	53.000000	95.000000	29.000000
0.970000	24.090000	16.870000	668.000000	0.000000	146.000000	53.000000	98.000000	34.000000
0.980000	25.100000	17.180000	646.000000	0.000000	146.000000	54.000000	101.000000	31.000000
0.990000	26.170000	17.430000	645.000000	0.000000	145.000000	55.000000	107.000000	25.000000
1.000000	27.230000	17.640000	616.000000	0.000000	144.000000	56.000000	106.000000	21.000000
1.010000	28.220000	17.840000	594.000000	0.000000	142.000000	57.000000	99.000000	20.000000
1.020000	29.160000	18.080000	578.000000	0.000000	140.000000	58.000000	94.000000	24.000000
1.030000	30.090000	18.340000	556.000000	0.000000	138.000000	59.000000	93.000000	26.000000
1.040000	30.950000	18.550000	526.000000	0.000000	136.000000	60.000000	86.000000	21.000000
1.050000	31.770000	18.730000	519.000000	0.000000	136.000000	60.000000	82.000000	18.000000
1.060000	32.330000	18.730000	499.000000	0.000000	135.000000	60.000000	56.000000	0.000000
1.070000	32.690000	18.730000	488.000000	0.000000	138.000000	60.000000	36.000000	0.000000
1.080000	32.910000	18.610000	489.000000	0.000000	138.000000	60.000000	22.000000	-12.000000
1.090000	32.910000	18.480000	507.000000	0.000000	138.000000	60.000000	0.000000	-13.000000
1.100000	32.850000	18.300000	532.000000	0.000000	139.000000	61.000000	-6.000000	-18.000000
1.110000	32.670000	18.080000	556.000000	0.000000	139.000000	61.000000	-18.000000	-22.000000
1.120000	32.230000	17.810000	564.000000	0.000000	138.000000	61.000000	-44.000000	-27.000000
1.130000	31.520000	17.460000	588.000000	0.000000	138.000000	61.000000	-71.000000	-35.000000
1.140000	30.630000	17.070000	586.000000	0.000000	139.000000	61.000000	-89.000000	-39.000000
1.150000	29.540000	16.620000	602.000000	0.000000	139.000000	61.000000	-109.000000	-45.000000
1.160000	28.270000	16.150000	613.000000	0.000000	141.000000	60.000000	-127.000000	-47.000000
1.170000	26.890000	15.660000	620.000000	0.000000	141.000000	59.000000	-138.000000	-49.000000
1.180000	25.390000	15.150000	616.000000	0.000000	142.000000	58.000000	-150.000000	-51.000000
1.190000	23.940000	14.530000	616.000000	0.000000	142.000000	57.000000	-145.000000	-62.000000
1.200000	22.400000	13.840000	610.000000	0.000000	143.000000	56.000000	-154.000000	-69.000000
1.210000	20.780000	13.040000	620.000000	0.000000	144.000000	56.000000	-162.000000	-80.000000
1.220000	19.200000	12.110000	610.000000	0.000000	144.000000	56.000000	-158.000000	-93.000000
1.230000	17.660000	11.100000	609.000000	0.000000	146.000000	55.000000	-154.000000	-101.000000
1.240000	16.210000	10.430000	606.000000	0.000000	148.000000	56.000000	-145.000000	-67.000000
1.250000	14.980000	9.820000	608.000000	0.000000	151.000000	56.000000	-123.000000	-61.000000
1.260000	13.900000	9.250000	611.000000	0.000000	154.000000	56.000000	-108.000000	-57.000000
1.270000	12.980000	8.780000	613.000000	0.000000	158.000000	56.000000	-92.000000	-47.000000
1.280000	12.190000	8.290000	614.000000	0.000000	162.000000	56.000000	-79.000000	-49.000000
1.290000	11.480000	7.750000	616.000000	0.000000	165.000000	55.000000	-71.000000	-54.000000
1.300000	10.710000	7.190000	613.000000	0.000000	170.000000	55.000000	-77.000000	-56.000000
1.310000	10.220000	6.630000	617.000000	0.000000	172.000000	53.000000	-49.000000	-56.000000
1.320000	9.910000	6.290000	614.000000	0.000000	175.000000	52.000000	-31.000000	-34.000000
1.330000	10.150000	6.290000	627.000000	0.000000	175.000000	51.000000	24.000000	0.000000
1.340000	10.960000	6.480000	640.000000	0.000000	175.000000	50.000000	81.000000	19.000000
1.350000	12.160000	7.120000	678.000000	0.000000	175.000000	49.000000	120.000000	64.000000
1.360000	13.900000	8.010000	690.000000	0.000000	175.000000	49.000000	174.000000	89.000000
1.370000	16.140000	9.060000	710.000000	0.000000	174.000000	50.000000	224.000000	105.000000
1.380000	18.710000	10.120000	722.000000	0.000000	173.000000	51.000000	257.000000	106.000000
1.390000	21.520000	11.150000	725.000000	0.000000	171.000000	52.000000	281.000000	103.000000
1.400000	24.320000	12.250000	736.000000	0.000000	168.000000	53.000000	280.000000	110.000000
1.410000	27.120000	13.420000	752.000000	0.000000	165.000000	55.000000	280.000000	117.000000
1.420000	29.640000	14.240000	746.000000	0.000000	161.000000	57.000000	252.000000	82.000000
1.430000	32.010000	14.820000	728.000000	0.000000	157.000000	58.000000	237.000000	58.000000
1.440000	34.290000	15.230000	667.000000	0.000000	153.000000	59.000000	228.000000	41.000000
1.450000	36.100000	15.520000	622.000000	0.000000	151.000000	60.000000	181.000000	29.000000
1.460000	37.500000	15.780000	589.000000	0.000000	148.000000	60.000000	140.000000	26.000000
1.470000	38.630000	15.980000	570.000000	0.000000	148.000000	60.000000	113.000000	20.000000
1.480000	39.270000	16.090000	570.000000	0.000000	145.000000	60.000000	64.000000	11.000000
1.490000	39.600000	16.090000	543.000000	0.000000	145.000000	60.000000	33.000000	0.000000
1.500000	39.710000	16.090000	510.000000	0.000000	144.000000	60.000000	11.000000	0.000000
1.510000	39.710000	16.090000	384.000000	0.000000	144.000000	60.000000	0.000000	0.000000
1.520000	39.560000	16.150000	139.000000	0.000000	142.000000	59.000000	-15.000000	6.000000
1.530000	39.560000	16.150000	0.000000	1.000000	142.000000	59.000000	0.000000	0.000000
1.540000	38.930000	16.200000	0.000000	0.000000	143.000000	59.000000	-63.000000	5.000000
1.550000	38.430000	16.200000	0.000000	0.000000	143.000000	59.000000	-50.000000	0.000000
1.560000	37.860000	16.280000	0.000000	0.000000	143.000000	59.000000	-57.000000	8.000000
1.570000	37.120000	16.360000	0.000000	0.000000	146.000000	58.000000	-74.000000	8.000000
1.580000	36.300000	16.420000	0.000000	0.000000	146.000000	58.000000	-82.000000	6.000000
1.590000	35.430000	16.420000	0.000000	0.000000	147.000000	59.000000	-87.000000	0.000000
1.600000	34.650000	16.330000	0.000000	0.000000	150.000000	58.000000	-78.000000	-9.000000
1.610000	33.870000	16.120000	0.000000	0.000000	150.000000	58.000000	-78.000000	-21.000000
1.620000	33.110000	15.850000	0.000000	0.000000	150.000000	58.000000	-76.000000	-27.000000
1.630000	32.290000	15.540000	0.000000	0.000000	151.000000	58.000000	-82.000000	-31.000000
1.640000	31.430000	15.230000	0.000000	0.000000	150.000000	57.000000	-86.000000	-31.000000
1.650000	30.460000	15.000000	0.000000	0.000000	148.000000	57.000000	-97.000000	-23.000000
1.660000	29.680000	14.830000	0.000000	0.000000	147.000000	56.000000	-78.000000	-17.000000
1.670000	29.030000	14.740000	0.000000	0.000000	146.000000	55.000000	-65.000000	-9.000000
1.680000	28.510000	14.740000	0.000000	0.000000	145.000000	55.000000	-52.000000	0.000000
1.690000	28.140000	14.800000	0.000000	0.000000	144.000000	54.000000	-37.000000	6.000000
1.700000	27.870000	14.800000	0.000000	0.000000	143.000000	53.000000	-27.000000	0.000000
1.710000	27.660000	14.740000	0.000000	0.000000	142.000000	53.000000	-21.000000	-6.000000
1.720000	27.450000	14.690000	0.000000	0.000000	142.000000	53.000000	-21.000000	-5.000000
1.730000	27.220000	14.570000	0.000000	0.000000	142.000000	53.000000	-23.000000	-12.000000
1.740000	26.900000	14.440000	0.000000	0.000000	141.000000	52.000000	-32.000000	-13.000000
1.750000	26.540000	14.320000	0.000000	0.000000	143.000000	52.000000	-36.000000	-12.000000
1.760000	26.300000	14.320000	0.000000	0.000000	145.000000	53.000000	-24.000000	0.000000
1.770000	26.230000	14.320000	0.000000	0.000000	146.000000	53.000000	-7.000000	0.000000
1.780000	26.230000	14.480000	0.000000	0.000000	147.000000	53.000000	0.000000	16.000000
1.790000	26.330000	14.600000	0.000000	0.000000	148.000000	54.000000	10.000000	12.000000
1.800000	26.390000	14.680000	0.000000	0.000000	150.000000	54.000000	6.000000	8.000000
1.810000	26.390000	14.680000	0.000000	0.000000	151.000000	54.000000	0.000000	0.000000
1.820000	26.310000	14.680000	0.000000	0.000000	153.000000	55.000000	-8.000000	0.000000
1.830000	26.120000	14.680000	0.000000	0.000000	153.000000	56.000000	-19.000000	0.000000
1.840000	25.920000	14.680000	0.000000	0.000000	153.000000	56.000000	-20.000000	0.000000
1.850000	25.730000	14.630000	0.000000	0.000000	153.000000	56.000000	-19.000000	-5.000000
1.860000	25.580000	14.630000	0.000000	0.000000	153.000000	56.000000	-15.000000	0.000000
1.870000	25.580000	14.630000	0.000000	0.000000	152.000000	56.000000	0.000000	0.000000
1.880000	25.580000	14.720000	0.000000	0.000000	151.000000	56.000000	0.000000	9.000000
1.890000	25.660000	14.720000	0.000000	0.000000	151.000000	56.000000	8.000000	0.000000
1.900000	25.660000	14.720000	156.000000	1.000000	149.000000	56.000000	0.000000	0.000000
1.910000	25.660000	14.720000	223.000000	0.000000	148.000000	57.000000	0.000000	0.000000
1.920000	25.660000	14.720000	277.000000	0.000000	147.000000	58.000000	0.000000	0.000000
1.930000	25.660000	14.720000	314.000000	0.000000	146.000000	58.000000	0.000000	0.000000
1.940000	25.660000	14.720000	348.000000	0.000000	145.000000	59.000000	0.000000	0.000000
1.950000	25.970000	14.580000	371.000000	0.000000	144.000000	60.000000	31.000000	-14.000000
1.960000	26.220000	14.780000	364.000000	0.000000	142.000000	61.000000	25.000000	20.000000
1.970000	26.490000	15.020000	364.000000	0.000000	142.000000	61.000000	27.000000	24.000000
1.980000	26.790000	15.280000	364.000000	0.000000	142.000000	61.000000	30.000000	26.000000
1.990000	27.070000	15.530000	337.000000	0.000000	141.000000	60.000000	28.000000	25.000000
2.000000	27.190000	15.730000	296.000000	0.000000	139.000000	60.000000	12.000000	20.000000
2.010000	27.190000	15.890000	297.000000	0.000000	141.000000	59.000000	0.000000	16.000000
2.020000	27.080000	15.830000	304.000000	0.000000	140.000000	58.000000	-11.000000	-6.000000
2.030000	26.860000	15.650000	336.000000	0.000000	139.000000	57.000000	-22.000000	-18.000000
2.040000	26.560000	15.250000	377.000000	0.000000	139.000000	57.000000	-30.000000	-40.000000
2.050000	26.300000	14.810000	414.000000	0.000000	139.000000	57.000000	-26.000000	-44.000000
2.060000	26.070000	14.300000	466.000000	0.000000	139.000000	57.000000	-23.000000	-51.000000
2.070000	26.010000	13.810000	486.000000	0.000000	140.000000	58.000000	-6.000000	-49.000000
2.080000	26.010000	13.470000	509.000000	0.000000	141.000000	59.000000	0.000000	-34.000000
2.090000	26.260000	13.230000	517.000000	0.000000	141.000000	60.000000	25.000000	-24.000000
2.100000	26.520000	13.180000	515.000000	0.000000	139.000000	61.000000	26.000000	-5.000000
2.110000	26.890000	13.280000	517.000000	0.000000	140.000000	62.000000	37.000000	10.000000
2.120000	27.340000	13.480000	502.000000	0.000000	137.000000	62.000000	45.000000	20.000000
2.130000	27.840000	13.950000	475.000000	0.000000	135.000000	63.000000	50.000000	47.000000
2.140000	28.320000	14.450000	456.000000	0.000000	133.000000	62.000000	48.000000	50.000000
2.150000	28.680000	14.980000	441.000000	0.000000	132.000000	61.000000	36.000000	53.000000
2.160000	28.960000	15.430000	431.000000	0.000000	134.000000	61.000000	28.000000	45.000000
2.170000	29.120000	15.830000	430.000000	0.000000	132.000000	60.000000	16.000000	40.000000
2.180000	29.210000	16.140000	441.000000	0.000000	134.000000	60.000000	9.000000	31.000000
2.190000	29.260000	16.250000	461.000000	0.000000	134.000000	58.000000	5.000000	11.000000
2.200000	29.260000	16.250000	468.000000	0.000000	135.000000	58.000000	0.000000	0.000000
