t	x	y	pressure	penup	azimuth	inclination	v_x	v_y
0.000000	55.370000	36.050000	163.000000	1.000000	121.000000	46.000000	0.000000	0.000000
0.010000	55.320000	37.090000	273.000000	0.000000	122.000000	46.000000	-5.000000	104.000000
0.020000	55.130000	37.430000	379.000000	0.000000	123.000000	46.000000	-19.000000	34.000000
0.030000	55.080000	37.550000	449.000000	0.000000	123.000000	46.000000	-5.000000	12.000000
0.040000	55.080000	37.550000	467.000000	0.000000	125.000000	46.000000	0.000000	0.000000
0.050000	55.080000	37.400000	496.000000	0.000000	125.000000	46.000000	0.000000	-15.000000
0.060000	55.080000	36.830000	520.000000	0.000000	126.000000	46.000000	0.000000	-57.000000
0.070000	54.960000	35.710000	539.000000	0.000000	126.000000	46.000000	-12.000000	-112.000000
0.080000	54.710000	34.230000	572.000000	0.000000	128.000000	45.000000	-25.000000	-148.000000
0.090000	54.340000	32.180000	588.000000	0.000000	126.000000	46.000000	-37.000000	-205.000000
0.100000	53.880000	30.120000	605.000000	0.000000	126.000000	46.000000	-46.000000	-206.000000
0.110000	53.360000	28.040000	619.000000	0.000000	126.000000	46.000000	-52.000000	-208.000000
0.120000	52.820000	26.310000	644.000000	0.000000	125.000000	46.000000	-54.000000	-173.000000
0.130000	52.260000	24.820000	640.000000	0.000000	125.000000	46.000000	-56.000000	-149.000000
0.140000	51.680000	23.860000	647.000000	0.000000	124.000000	47.000000	-58.000000	-96.000000
0.150000	51.340000	23.250000	646.000000	0.000000	124.000000	47.000000	-34.000000	-61.000000
0.160000	51.210000	22.870000	638.000000	0.000000	123.000000	47.000000	-13.000000	-38.000000
0.170000	51.210000	22.870000	620.000000	0.000000	123.000000	47.000000	0.000000	0.000000
0.180000	51.210000	22.930000	619.000000	0.000000	123.000000	47.000000	0.000000	6.000000
0.190000	51.310000	23.020000	620.000000	0.000000	123.000000	47.000000	10.000000	9.000000
0.200000	51.410000	23.150000	613.000000	0.000000	123.000000	47.000000	10.000000	13.000000
0.210000	51.680000	23.410000	614.000000	0.000000	123.000000	47.000000	27.000000	26.000000
0.220000	52.070000	23.600000	613.000000	0.000000	123.000000	47.000000	39.000000	19.000000
0.230000	52.360000	23.750000	619.000000	0.000000	123.000000	47.000000	29.000000	15.000000
0.240000	52.650000	23.750000	606.000000	0.000000	124.000000	48.000000	29.000000	0.000000
0.250000	53.160000	23.750000	597.000000	0.000000	124.000000	48.000000	51.000000	0.000000
0.260000	53.820000	23.820000	597.000000	0.000000	125.000000	47.000000	66.000000	7.000000
0.270000	54.780000	23.870000	606.000000	0.000000	125.000000	47.000000	96.000000	5.000000
0.280000	56.200000	24.140000	619.000000	0.000000	125.000000	47.000000	142.000000	27.000000
0.290000	57.930000	24.550000	643.000000	0.000000	125.000000	47.000000	173.000000	41.000000
0.300000	59.930000	25.390000	670.000000	0.000000	126.000000	48.000000	200.000000	84.000000
0.310000	62.500000	26.590000	666.000000	0.000000	126.000000	48.000000	257.000000	120.000000
0.320000	65.440000	28.030000	667.000000	0.000000	126.000000	48.000000	294.000000	144.000000
0.330000	68.500000	29.520000	636.000000	0.000000	127.000000	49.000000	306.000000	149.000000
0.340000	71.070000	30.790000	592.000000	0.000000	127.000000	49.000000	257.000000	127.000000
0.350000	73.320000	31.910000	497.000000	0.000000	129.000000	49.000000	225.000000	112.000000
0.360000	74.960000	32.670000	344.000000	0.000000	129.000000	49.000000	164.000000	76.000000
0.370000	75.590000	32.930000	369.000000	0.000000	132.000000	49.000000	63.000000	26.000000
0.380000	75.590000	32.850000	542.000000	0.000000	133.000000	48.000000	0.000000	-8.000000
0.390000	74.890000	32.560000	620.000000	0.000000	135.000000	49.000000	-70.000000	-29.000000
0.400000	73.560000	32.280000	641.000000	0.000000	135.000000	49.000000	-133.000000	-28.000000
0.410000	71.770000	32.010000	655.000000	0.000000	136.000000	48.000000	-179.000000	-27.000000
0.420000	69.580000	31.470000	647.000000	0.000000	136.000000	48.000000	-219.000000	-54.000000
0.430000	67.180000	31.030000	670.000000	0.000000	136.000000	48.000000	-240.000000	-44.000000
0.440000	64.630000	30.660000	700.000000	0.000000	136.000000	48.000000	-255.000000	-37.000000
0.450000	62.440000	30.340000	733.000000	0.000000	136.000000	48.000000	-219.000000	-32.000000
0.460000	60.720000	30.050000	762.000000	0.000000	136.000000	48.000000	-172.000000	-29.000000
0.470000	59.310000	29.790000	884.000000	0.000000	137.000000	47.000000	-141.000000	-26.000000
0.480000	58.860000	29.860000	875.000000	0.000000	136.000000	47.000000	-45.000000	7.000000
0.490000	59.070000	30.110000	867.000000	0.000000	135.000000	47.000000	21.000000	25.000000
0.500000	59.710000	30.480000	843.000000	0.000000	135.000000	47.000000	64.000000	37.000000
0.510000	61.150000	31.290000	784.000000	0.000000	134.000000	47.000000	144.000000	81.000000
0.520000	63.240000	32.560000	719.000000	0.000000	134.000000	47.000000	209.000000	127.000000
0.530000	65.770000	34.150000	658.000000	0.000000	134.000000	47.000000	253.000000	159.000000
0.540000	67.870000	35.470000	594.000000	0.000000	134.000000	47.000000	210.000000	132.000000
0.550000	68.880000	36.230000	591.000000	0.000000	134.000000	47.000000	101.000000	76.000000
0.560000	69.160000	36.630000	678.000000	0.000000	134.000000	47.000000	28.000000	40.000000
0.570000	68.290000	36.680000	760.000000	0.000000	135.000000	47.000000	-87.000000	5.000000
0.580000	66.430000	36.380000	830.000000	0.000000	135.000000	47.000000	-186.000000	-30.000000
0.590000	63.910000	35.840000	878.000000	0.000000	135.000000	47.000000	-252.000000	-54.000000
0.600000	60.560000	34.650000	909.000000	0.000000	135.000000	47.000000	-335.000000	-119.000000
0.610000	57.360000	33.360000	831.000000	0.000000	136.000000	47.000000	-320.000000	-129.000000
0.620000	54.270000	32.010000	867.000000	0.000000	136.000000	47.000000	-309.000000	-135.000000
0.630000	50.900000	30.570000	854.000000	0.000000	134.000000	47.000000	-337.000000	-144.000000
0.640000	48.840000	29.850000	822.000000	0.000000	134.000000	47.000000	-206.000000	-72.000000
0.650000	47.640000	29.600000	802.000000	0.000000	134.000000	47.000000	-120.000000	-25.000000
0.660000	47.340000	29.710000	585.000000	0.000000	132.000000	47.000000	-30.000000	11.000000
0.670000	47.730000	29.970000	63.000000	0.000000	132.000000	47.000000	39.000000	26.000000
0.680000	47.730000	29.970000	0.000000	1.000000	131.000000	46.000000	0.000000	0.000000
0.690000	50.240000	31.190000	0.000000	0.000000	131.000000	46.000000	251.000000	122.000000
0.700000	52.620000	32.160000	0.000000	0.000000	130.000000	46.000000	238.000000	97.000000
0.710000	55.470000	33.220000	0.000000	0.000000	130.000000	46.000000	285.000000	106.000000
0.720000	57.680000	34.160000	0.000000	0.000000	130.000000	46.000000	221.000000	94.000000
0.730000	59.670000	34.630000	0.000000	0.000000	130.000000	46.000000	199.000000	47.000000
0.740000	61.520000	34.780000	0.000000	0.000000	131.000000	45.000000	185.000000	15.000000
0.750000	63.000000	35.010000	0.000000	0.000000	131.000000	44.000000	148.000000	23.000000
0.760000	63.990000	34.920000	0.000000	0.000000	132.000000	44.000000	99.000000	-9.000000
0.770000	64.660000	34.380000	0.000000	0.000000	133.000000	43.000000	67.000000	-54.000000
0.780000	64.940000	33.650000	0.000000	0.000000	133.000000	43.000000	28.000000	-73.000000
0.790000	64.940000	32.860000	0.000000	0.000000	133.000000	43.000000	0.000000	-79.000000
0.800000	64.670000	32.090000	0.000000	0.000000	134.000000	43.000000	-27.000000	-77.000000
0.810000	64.200000	31.300000	0.000000	0.000000	133.000000	43.000000	-47.000000	-79.000000
0.820000	63.660000	30.480000	0.000000	0.000000	133.000000	43.000000	-54.000000	-82.000000
0.830000	63.080000	29.650000	0.000000	0.000000	132.000000	44.000000	-58.000000	-83.000000
0.840000	62.600000	28.800000	0.000000	0.000000	131.000000	44.000000	-48.000000	-85.000000
0.850000	62.140000	28.010000	0.000000	0.000000	129.000000	45.000000	-46.000000	-79.000000
0.860000	61.680000	27.270000	0.000000	0.000000	128.000000	45.000000	-46.000000	-74.000000
0.870000	61.190000	26.530000	0.000000	0.000000	124.000000	46.000000	-49.000000	-74.000000
0.880000	60.710000	25.780000	0.000000	0.000000	123.000000	46.000000	-48.000000	-75.000000
0.890000	60.200000	25.100000	0.000000	0.000000	122.000000	47.000000	-51.000000	-68.000000
0.900000	59.660000	24.470000	0.000000	0.000000	121.000000	48.000000	-54.000000	-63.000000
0.910000	59.030000	24.070000	0.000000	0.000000	119.000000	49.000000	-63.000000	-40.000000
0.920000	58.250000	23.830000	0.000000	0.000000	119.000000	49.000000	-78.000000	-24.000000
0.930000	57.370000	23.710000	0.000000	0.000000	119.000000	50.000000	-88.000000	-12.000000
0.940000	56.530000	23.600000	0.000000	0.000000	119.000000	50.000000	-84.000000	-11.000000
0.950000	55.940000	23.600000	0.000000	0.000000	119.000000	50.000000	-59.000000	0.000000
0.960000	55.520000	23.780000	0.000000	0.000000	119.000000	50.000000	-42.000000	18.000000
0.970000	55.350000	24.010000	0.000000	0.000000	119.000000	50.000000	-17.000000	23.000000
0.980000	55.220000	24.330000	0.000000	0.000000	117.000000	50.000000	-13.000000	32.000000
0.990000	55.170000	24.700000	0.000000	0.000000	117.000000	50.000000	-5.000000	37.000000
1.000000	55.170000	25.120000	0.000000	0.000000	117.000000	50.000000	0.000000	42.000000
1.010000	55.110000	25.690000	0.000000	0.000000	116.000000	49.000000	-6.000000	57.000000
1.020000	55.110000	26.350000	0.000000	0.000000	116.000000	49.000000	0.000000	66.000000
1.030000	55.030000	27.220000	0.000000	0.000000	116.000000	49.000000	-8.000000	87.000000
1.040000	55.150000	28.250000	0.000000	0.000000	116.000000	49.000000	12.000000	103.000000
1.050000	55.390000	29.390000	0.000000	0.000000	117.000000	48.000000	24.000000	114.000000
1.060000	55.720000	30.360000	0.000000	0.000000	118.000000	48.000000	33.000000	97.000000
1.070000	56.080000	31.310000	0.000000	0.000000	119.000000	47.000000	36.000000	95.000000
1.080000	56.420000	32.220000	0.000000	0.000000	121.000000	48.000000	34.000000	91.000000
1.090000	56.750000	33.120000	0.000000	0.000000	122.000000	47.000000	33.000000	90.000000
1.100000	56.750000	33.120000	202.000000	1.000000	123.000000	47.000000	0.000000	0.000000
1.110000	57.070000	34.760000	289.000000	0.000000	124.000000	48.000000	32.000000	164.000000
1.120000	57.070000	35.270000	343.000000	0.000000	125.000000	47.000000	0.000000	51.000000
1.130000	56.940000	35.620000	450.000000	0.000000	125.000000	47.000000	-13.000000	35.000000
1.140000	56.850000	35.830000	524.000000	0.000000	125.000000	47.000000	-9.000000	21.000000
1.150000	56.720000	35.830000	536.000000	0.000000	125.000000	47.000000	-13.000000	0.000000
1.160000	56.550000	35.630000	560.000000	0.000000	125.000000	47.000000	-17.000000	-20.000000
1.170000	56.230000	34.970000	585.000000	0.000000	126.000000	47.000000	-32.000000	-66.000000
1.180000	55.770000	33.450000	625.000000	0.000000	126.000000	47.000000	-46.000000	-152.000000
1.190000	55.220000	31.350000	646.000000	0.000000	125.000000	46.000000	-55.000000	-210.000000
1.200000	54.660000	28.940000	690.000000	0.000000	125.000000	46.000000	-56.000000	-241.000000
1.210000	54.140000	26.490000	728.000000	0.000000	125.000000	46.000000	-52.000000	-245.000000
1.220000	53.870000	24.770000	728.000000	0.000000	124.000000	47.000000	-27.000000	-172.000000
1.230000	53.740000	23.550000	720.000000	0.000000	124.000000	47.000000	-13.000000	-122.000000
1.240000	53.970000	22.850000	716.000000	0.000000	123.000000	47.000000	23.000000	-70.000000
1.250000	54.500000	22.800000	716.000000	0.000000	122.000000	47.000000	53.000000	-5.000000
1.260000	55.220000	23.190000	699.000000	0.000000	122.000000	47.000000	72.000000	39.000000
1.270000	56.370000	24.640000	699.000000	0.000000	121.000000	48.000000	115.000000	145.000000
1.280000	57.670000	26.810000	666.000000	0.000000	121.000000	48.000000	130.000000	217.000000
1.290000	59.080000	29.470000	652.000000	0.000000	121.000000	48.000000	141.000000	266.000000
1.300000	60.180000	32.090000	644.000000	0.000000	121.000000	48.000000	110.000000	262.000000
1.310000	60.910000	34.240000	659.000000	0.000000	122.000000	47.000000	73.000000	215.000000
1.320000	61.380000	36.080000	691.000000	0.000000	122.000000	47.000000	47.000000	184.000000
1.330000	61.380000	37.000000	759.000000	0.000000	123.000000	47.000000	0.000000	92.000000
1.340000	61.130000	37.330000	809.000000	0.000000	125.000000	47.000000	-25.000000	33.000000
1.350000	60.750000	37.280000	812.000000	0.000000	126.000000	47.000000	-38.000000	-5.000000
1.360000	60.300000	36.740000	820.000000	0.000000	127.000000	46.000000	-45.000000	-54.000000
1.370000	59.700000	35.310000	817.000000	0.000000	127.000000	46.000000	-60.000000	-143.000000
1.380000	59.000000	33.300000	796.000000	0.000000	129.000000	46.000000	-70.000000	-201.000000
1.390000	58.340000	30.770000	767.000000	0.000000	129.000000	46.000000	-66.000000	-253.000000
1.400000	57.700000	28.380000	757.000000	0.000000	127.000000	46.000000	-64.000000	-239.000000
1.410000	57.460000	26.090000	755.000000	0.000000	127.000000	46.000000	-24.000000	-229.000000
1.420000	57.460000	25.080000	731.000000	0.000000	126.000000	47.000000	0.000000	-101.000000
1.430000	57.970000	24.760000	711.000000	0.000000	124.000000	47.000000	51.000000	-32.000000
1.440000	58.620000	24.890000	711.000000	0.000000	124.000000	47.000000	65.000000	13.000000
1.450000	59.360000	25.660000	693.000000	0.000000	123.000000	47.000000	74.000000	77.000000
1.460000	60.220000	27.130000	675.000000	0.000000	123.000000	47.000000	86.000000	147.000000
1.470000	61.090000	29.080000	675.000000	0.000000	123.000000	47.000000	87.000000	195.000000
1.480000	61.960000	31.360000	679.000000	0.000000	123.000000	47.000000	87.000000	228.000000
1.490000	62.670000	33.560000	696.000000	0.000000	123.000000	47.000000	71.000000	220.000000
1.500000	63.090000	35.700000	725.000000	0.000000	123.000000	47.000000	42.000000	214.000000
1.510000	63.320000	36.960000	757.000000	0.000000	125.000000	47.000000	23.000000	126.000000
1.520000	63.320000	37.510000	773.000000	0.000000	126.000000	47.000000	0.000000	55.000000
1.530000	63.320000	37.580000	771.000000	0.000000	127.000000	46.000000	0.000000	7.000000
1.540000	63.210000	37.230000	779.000000	0.000000	129.000000	46.000000	-11.000000	-35.000000
1.550000	62.920000	36.030000	779.000000	0.000000	129.000000	46.000000	-29.000000	-120.000000
1.560000	62.410000	34.270000	773.000000	0.000000	130.000000	46.000000	-51.000000	-176.000000
1.570000	61.750000	31.650000	763.000000	0.000000	129.000000	46.000000	-66.000000	-262.000000
1.580000	61.090000	29.340000	762.000000	0.000000	129.000000	46.000000	-66.000000	-231.000000
1.590000	60.930000	27.250000	759.000000	0.000000	129.000000	46.000000	-16.000000	-209.000000
1.600000	61.110000	26.310000	727.000000	0.000000	127.000000	46.000000	18.000000	-94.000000
1.610000	61.470000	26.040000	727.000000	0.000000	126.000000	47.000000	36.000000	-27.000000
1.620000	62.040000	26.220000	733.000000	0.000000	125.000000	47.000000	57.000000	18.000000
1.630000	62.760000	27.160000	725.000000	0.000000	125.000000	47.000000	72.000000	94.000000
1.640000	63.490000	28.790000	730.000000	0.000000	124.000000	47.000000	73.000000	163.000000
1.650000	64.090000	30.870000	734.000000	0.000000	125.000000	47.000000	60.000000	208.000000
1.660000	64.610000	33.020000	754.000000	0.000000	125.000000	47.000000	52.000000	215.000000
1.670000	64.880000	34.570000	760.000000	0.000000	125.000000	47.000000	27.000000	155.000000
1.680000	64.960000	35.720000	800.000000	0.000000	125.000000	47.000000	8.000000	115.000000
1.690000	64.960000	35.920000	799.000000	0.000000	127.000000	48.000000	0.000000	20.000000
1.700000	64.850000	35.550000	806.000000	0.000000	128.000000	47.000000	-11.000000	-37.000000
1.710000	64.670000	34.790000	815.000000	0.000000	128.000000	47.000000	-18.000000	-76.000000
1.720000	64.420000	33.100000	817.000000	0.000000	130.000000	47.000000	-25.000000	-169.000000
1.730000	64.030000	31.140000	799.000000	0.000000	130.000000	47.000000	-39.000000	-196.000000
1.740000	63.640000	29.010000	780.000000	0.000000	130.000000	47.000000	-39.000000	-213.000000
1.750000	63.740000	28.250000	752.000000	0.000000	130.000000	47.000000	10.000000	-76.000000
1.760000	64.170000	28.170000	754.000000	0.000000	128.000000	47.000000	43.000000	-8.000000
1.770000	64.660000	28.550000	751.000000	0.000000	128.000000	47.000000	49.000000	38.000000
1.780000	65.190000	29.720000	745.000000	0.000000	128.000000	47.000000	53.000000	117.000000
1.790000	65.770000	31.330000	730.000000	0.000000	128.000000	47.000000	58.000000	161.000000
1.800000	66.340000	33.230000	722.000000	0.000000	128.000000	47.000000	57.000000	190.000000
1.810000	66.630000	35.040000	722.000000	0.000000	128.000000	47.000000	29.000000	181.000000
1.820000	66.730000	36.070000	749.000000	0.000000	128.000000	47.000000	10.000000	103.000000
1.830000	66.730000	36.570000	757.000000	0.000000	130.000000	47.000000	0.000000	50.000000
1.840000	66.610000	36.390000	771.000000	0.000000	131.000000	47.000000	-12.000000	-18.000000
1.850000	66.490000	35.390000	806.000000	0.000000	132.000000	47.000000	-12.000000	-100.000000
1.860000	66.160000	33.840000	827.000000	0.000000	132.000000	47.000000	-33.000000	-155.000000
1.870000	65.820000	31.820000	830.000000	0.000000	132.000000	47.000000	-34.000000	-202.000000
1.880000	65.490000	30.370000	817.000000	0.000000	132.000000	47.000000	-33.000000	-145.000000
1.890000	65.700000	29.310000	808.000000	0.000000	132.000000	47.000000	21.000000	-106.000000
1.900000	66.270000	29.240000	818.000000	0.000000	132.000000	47.000000	57.000000	-7.000000
1.910000	66.700000	29.550000	837.000000	0.000000	131.000000	47.000000	43.000000	31.000000
1.920000	67.120000	30.110000	845.000000	0.000000	131.000000	47.000000	42.000000	56.000000
1.930000	67.550000	31.060000	831.000000	0.000000	131.000000	47.000000	43.000000	95.000000
1.940000	67.790000	31.890000	825.000000	0.000000	131.000000	47.000000	24.000000	83.000000
1.950000	67.920000	32.650000	832.000000	0.000000	132.000000	48.000000	13.000000	76.000000
1.960000	68.070000	32.960000	791.000000	0.000000	132.000000	48.000000	15.000000	31.000000
1.970000	68.130000	32.760000	808.000000	0.000000	132.000000	48.000000	6.000000	-20.000000
1.980000	68.130000	32.220000	827.000000	0.000000	133.000000	47.000000	0.000000	-54.000000
1.990000	68.180000	31.170000	839.000000	0.000000	133.000000	47.000000	5.000000	-105.000000
2.000000	68.310000	30.410000	843.000000	0.000000	133.000000	47.000000	13.000000	-76.000000
2.010000	68.500000	29.840000	864.000000	0.000000	134.000000	47.000000	19.000000	-57.000000
2.020000	68.900000	29.840000	905.000000	0.000000	134.000000	47.000000	40.000000	0.000000
2.030000	69.270000	30.180000	933.000000	0.000000	134.000000	47.000000	37.000000	34.000000
2.040000	69.610000	30.760000	934.000000	0.000000	134.000000	47.000000	34.000000	58.000000
2.050000	69.730000	31.160000	950.000000	0.000000	135.000000	47.000000	12.000000	40.000000
2.060000	69.810000	31.550000	915.000000	0.000000	135.000000	47.000000	8.000000	39.000000
2.070000	69.810000	31.640000	853.000000	0.000000	135.000000	47.000000	0.000000	9.000000
2.080000	69.870000	31.520000	854.000000	0.000000	135.000000	47.000000	6.000000	-12.000000
2.090000	69.920000	31.220000	818.000000	0.000000	135.000000	47.000000	5.000000	-30.000000
2.100000	70.030000	30.840000	770.000000	0.000000	135.000000	47.000000	11.000000	-38.000000
2.110000	70.200000	30.410000	737.000000	0.000000	135.000000	47.000000	17.000000	-43.000000
2.120000	70.570000	30.460000	739.000000	0.000000	135.000000	47.000000	37.000000	5.000000
2.130000	71.050000	30.890000	758.000000	0.000000	136.000000	48.000000	48.000000	43.000000
2.140000	71.510000	31.570000	757.000000	0.000000	136.000000	48.000000	46.000000	68.000000
2.150000	71.680000	31.940000	750.000000	0.000000	136.000000	48.000000	17.000000	37.000000
2.160000	71.680000	32.020000	676.000000	0.000000	136.000000	48.000000	0.000000	8.000000
2.170000	71.630000	31.910000	351.000000	0.000000	136.000000	48.000000	-5.000000	-11.000000
2.180000	71.630000	31.910000	0.000000	1.000000	136.000000	48.000000	0.000000	0.000000
