t	x	y	pressure	penup	azimuth	inclination	v_x	v_y
0.000000	54.350000	83.840000	117.000000	1.000000	120.000000	55.000000	0.000000	0.000000
0.010000	54.350000	83.630000	185.000000	0.000000	120.000000	55.000000	0.000000	-21.000000
0.020000	54.350000	83.630000	232.000000	0.000000	120.000000	55.000000	0.000000	0.000000
0.030000	54.510000	83.780000	274.000000	0.000000	120.000000	55.000000	16.000000	15.000000
0.040000	54.800000	84.160000	337.000000	0.000000	120.000000	55.000000	29.000000	38.000000
0.050000	55.250000	84.710000	367.000000	0.000000	118.000000	56.000000	45.000000	55.000000
0.060000	55.860000	85.470000	394.000000	0.000000	118.000000	56.000000	61.000000	76.000000
0.070000	56.570000	86.310000	388.000000	0.000000	118.000000	56.000000	71.000000	84.000000
0.080000	57.310000	87.200000	400.000000	0.000000	117.000000	56.000000	74.000000	89.000000
0.090000	57.950000	88.000000	407.000000	0.000000	118.000000	57.000000	64.000000	80.000000
0.100000	58.520000	88.520000	423.000000	0.000000	118.000000	57.000000	57.000000	52.000000
0.110000	58.780000	88.850000	420.000000	0.000000	118.000000	57.000000	26.000000	33.000000
0.120000	58.880000	88.910000	450.000000	0.000000	119.000000	58.000000	10.000000	6.000000
0.130000	58.880000	88.740000	467.000000	0.000000	119.000000	58.000000	0.000000	-17.000000
0.140000	58.780000	88.420000	488.000000	0.000000	120.000000	58.000000	-10.000000	-32.000000
0.150000	58.530000	87.570000	489.000000	0.000000	120.000000	58.000000	-25.000000	-85.000000
0.160000	58.160000	86.440000	494.000000	0.000000	118.000000	59.000000	-37.000000	-113.000000
0.170000	57.700000	85.120000	492.000000	0.000000	118.000000	59.000000	-46.000000	-132.000000
0.180000	57.000000	83.550000	490.000000	0.000000	118.000000	59.000000	-70.000000	-157.000000
0.190000	56.150000	82.100000	491.000000	0.000000	117.000000	58.000000	-85.000000	-145.000000
0.200000	55.360000	80.740000	480.000000	0.000000	117.000000	58.000000	-79.000000	-136.000000
0.210000	54.750000	79.610000	473.000000	0.000000	116.000000	57.000000	-61.000000	-113.000000
0.220000	54.270000	78.840000	439.000000	0.000000	116.000000	57.000000	-48.000000	-77.000000
0.230000	54.060000	78.320000	427.000000	0.000000	116.000000	57.000000	-21.000000	-52.000000
0.240000	53.920000	78.170000	389.000000	0.000000	116.000000	56.000000	-14.000000	-15.000000
0.250000	53.920000	78.170000	343.000000	0.000000	116.000000	56.000000	0.000000	0.000000
0.260000	53.990000	78.370000	319.000000	0.000000	116.000000	56.000000	7.000000	20.000000
0.270000	54.290000	78.870000	304.000000	0.000000	116.000000	56.000000	30.000000	50.000000
0.280000	54.720000	79.670000	282.000000	0.000000	116.000000	56.000000	43.000000	80.000000
0.290000	55.380000	80.670000	265.000000	0.000000	116.000000	56.000000	66.000000	100.000000
0.300000	56.010000	81.480000	237.000000	0.000000	116.000000	56.000000	63.000000	81.000000
0.310000	56.620000	82.280000	193.000000	0.000000	116.000000	56.000000	61.000000	80.000000
0.320000	57.220000	83.050000	175.000000	0.000000	116.000000	56.000000	60.000000	77.000000
0.330000	57.850000	83.840000	184.000000	0.000000	116.000000	56.000000	63.000000	79.000000
0.340000	58.260000	84.370000	180.000000	0.000000	118.000000	57.000000	41.000000	53.000000
0.350000	58.510000	84.740000	175.000000	0.000000	118.000000	57.000000	25.000000	37.000000
0.360000	58.510000	84.740000	203.000000	0.000000	118.000000	57.000000	0.000000	0.000000
0.370000	58.430000	84.560000	220.000000	0.000000	119.000000	58.000000	-8.000000	-18.000000
0.380000	58.250000	84.240000	230.000000	0.000000	119.000000	58.000000	-18.000000	-32.000000
0.390000	57.890000	83.790000	256.000000	0.000000	119.000000	58.000000	-36.000000	-45.000000
0.400000	57.520000	83.310000	274.000000	0.000000	119.000000	58.000000	-37.000000	-48.000000
0.410000	57.110000	82.790000	299.000000	0.000000	119.000000	58.000000	-41.000000	-52.000000
0.420000	56.870000	82.300000	314.000000	0.000000	119.000000	58.000000	-24.000000	-49.000000
0.430000	56.750000	81.970000	304.000000	0.000000	119.000000	58.000000	-12.000000	-33.000000
0.440000	56.750000	81.720000	306.000000	0.000000	119.000000	58.000000	0.000000	-25.000000
0.450000	56.870000	81.660000	294.000000	0.000000	118.000000	57.000000	12.000000	-6.000000
0.460000	57.020000	81.760000	292.000000	0.000000	118.000000	57.000000	15.000000	10.000000
0.470000	57.320000	81.960000	289.000000	0.000000	118.000000	57.000000	30.000000	20.000000
0.480000	57.720000	82.350000	282.000000	0.000000	117.000000	56.000000	40.000000	39.000000
0.490000	58.050000	82.800000	274.000000	0.000000	118.000000	57.000000	33.000000	45.000000
0.500000	58.410000	83.290000	279.000000	0.000000	118.000000	57.000000	36.000000	49.000000
0.510000	58.640000	83.770000	275.000000	0.000000	116.000000	57.000000	23.000000	48.000000
0.520000	58.780000	84.200000	275.000000	0.000000	117.000000	58.000000	14.000000	43.000000
0.530000	58.780000	84.430000	279.000000	0.000000	117.000000	58.000000	0.000000	23.000000
0.540000	58.780000	84.530000	280.000000	0.000000	117.000000	58.000000	0.000000	10.000000
0.550000	58.680000	84.460000	285.000000	0.000000	118.000000	59.000000	-10.000000	-7.000000
0.560000	58.510000	84.250000	287.000000	0.000000	118.000000	59.000000	-17.000000	-21.000000
0.570000	58.370000	83.950000	273.000000	0.000000	118.000000	59.000000	-14.000000	-30.000000
0.580000	58.290000	83.680000	274.000000	0.000000	118.000000	59.000000	-8.000000	-27.000000
0.590000	58.290000	83.530000	275.000000	0.000000	118.000000	59.000000	0.000000	-15.000000
0.600000	58.510000	83.460000	260.000000	0.000000	118.000000	59.000000	22.000000	-7.000000
0.610000	58.800000	83.590000	260.000000	0.000000	118.000000	59.000000	29.000000	13.000000
0.620000	59.120000	83.750000	269.000000	0.000000	118.000000	59.000000	32.000000	16.000000
0.630000	59.420000	83.920000	287.000000	0.000000	118.000000	59.000000	30.000000	17.000000
0.640000	59.680000	84.080000	291.000000	0.000000	118.000000	59.000000	26.000000	16.000000
0.650000	59.850000	84.200000	299.000000	0.000000	118.000000	60.000000	17.000000	12.000000
0.660000	59.940000	84.260000	316.000000	0.000000	118.000000	60.000000	9.000000	6.000000
0.670000	59.940000	84.260000	320.000000	0.000000	118.000000	60.000000	0.000000	0.000000
0.680000	59.880000	84.190000	330.000000	0.000000	118.000000	60.000000	-6.000000	-7.000000
0.690000	59.780000	83.980000	320.000000	0.000000	119.000000	61.000000	-10.000000	-21.000000
0.700000	59.540000	83.670000	315.000000	0.000000	119.000000	61.000000	-24.000000	-31.000000
0.710000	59.320000	83.320000	314.000000	0.000000	119.000000	61.000000	-22.000000	-35.000000
0.720000	59.160000	83.090000	292.000000	0.000000	119.000000	61.000000	-16.000000	-23.000000
0.730000	59.160000	82.930000	267.000000	0.000000	119.000000	61.000000	0.000000	-16.000000
0.740000	59.250000	82.930000	256.000000	0.000000	120.000000	60.000000	9.000000	0.000000
0.750000	59.440000	82.930000	247.000000	0.000000	120.000000	60.000000	19.000000	0.000000
0.760000	59.660000	83.060000	247.000000	0.000000	120.000000	60.000000	22.000000	13.000000
0.770000	59.930000	83.220000	249.000000	0.000000	120.000000	60.000000	27.000000	16.000000
0.780000	60.190000	83.410000	251.000000	0.000000	120.000000	60.000000	26.000000	19.000000
0.790000	60.460000	83.620000	253.000000	0.000000	120.000000	60.000000	27.000000	21.000000
0.800000	60.700000	83.810000	256.000000	0.000000	119.000000	60.000000	24.000000	19.000000
0.810000	60.920000	84.010000	254.000000	0.000000	118.000000	60.000000	22.000000	20.000000
0.820000	61.080000	84.180000	245.000000	0.000000	118.000000	60.000000	16.000000	17.000000
0.830000	61.150000	84.320000	285.000000	0.000000	118.000000	60.000000	7.000000	14.000000
0.840000	61.150000	84.320000	304.000000	0.000000	118.000000	60.000000	0.000000	0.000000
0.850000	61.050000	84.220000	325.000000	0.000000	117.000000	59.000000	-10.000000	-10.000000
0.860000	60.800000	83.970000	354.000000	0.000000	117.000000	59.000000	-25.000000	-25.000000
0.870000	60.470000	83.620000	389.000000	0.000000	117.000000	59.000000	-33.000000	-35.000000
0.880000	60.120000	83.220000	422.000000	0.000000	117.000000	59.000000	-35.000000	-40.000000
0.890000	59.910000	82.900000	423.000000	0.000000	117.000000	59.000000	-21.000000	-32.000000
0.900000	59.790000	82.640000	413.000000	0.000000	117.000000	59.000000	-12.000000	-26.000000
0.910000	59.790000	82.500000	399.000000	0.000000	118.000000	60.000000	0.000000	-14.000000
0.920000	59.890000	82.430000	356.000000	0.000000	119.000000	60.000000	10.000000	-7.000000
0.930000	60.030000	82.430000	304.000000	0.000000	119.000000	60.000000	14.000000	0.000000
0.940000	60.190000	82.430000	245.000000	0.000000	118.000000	60.000000	16.000000	0.000000
0.950000	60.390000	82.580000	148.000000	0.000000	118.000000	60.000000	20.000000	15.000000
0.960000	60.390000	82.580000	0.000000	1.000000	118.000000	60.000000	0.000000	0.000000
0.970000	60.930000	83.120000	0.000000	0.000000	118.000000	60.000000	54.000000	54.000000
0.980000	61.240000	83.570000	0.000000	0.000000	117.000000	59.000000	31.000000	45.000000
0.990000	61.580000	84.120000	0.000000	0.000000	117.000000	59.000000	34.000000	55.000000
1.000000	61.930000	84.710000	0.000000	0.000000	115.000000	60.000000	35.000000	59.000000
1.010000	62.200000	85.280000	0.000000	0.000000	115.000000	60.000000	27.000000	57.000000
1.020000	62.440000	85.790000	0.000000	0.000000	114.000000	59.000000	24.000000	51.000000
1.030000	62.440000	85.790000	119.000000	1.000000	113.000000	59.000000	0.000000	0.000000
1.040000	62.550000	86.170000	221.000000	0.000000	113.000000	59.000000	11.000000	38.000000
1.050000	62.330000	86.080000	282.000000	0.000000	113.000000	59.000000	-22.000000	-9.000000
1.060000	62.110000	85.940000	314.000000	0.000000	113.000000	59.000000	-22.000000	-14.000000
1.070000	61.920000	85.710000	312.000000	0.000000	112.000000	58.000000	-19.000000	-23.000000
1.080000	61.780000	85.410000	255.000000	0.000000	112.000000	58.000000	-14.000000	-30.000000
1.090000	61.660000	85.130000	109.000000	0.000000	113.000000	59.000000	-12.000000	-28.000000
1.100000	61.660000	85.130000	0.000000	1.000000	113.000000	59.000000	0.000000	0.000000
1.110000	61.820000	84.610000	0.000000	0.000000	113.000000	59.000000	16.000000	-52.000000
1.120000	61.950000	84.330000	0.000000	0.000000	113.000000	59.000000	13.000000	-28.000000
1.130000	62.080000	84.000000	0.000000	0.000000	113.000000	59.000000	13.000000	-33.000000
1.140000	62.220000	83.650000	0.000000	0.000000	113.000000	58.000000	14.000000	-35.000000
1.150000	62.350000	83.290000	0.000000	0.000000	113.000000	58.000000	13.000000	-36.000000
1.160000	62.410000	82.950000	0.000000	0.000000	113.000000	58.000000	6.000000	-34.000000
1.170000	62.410000	82.640000	0.000000	0.000000	113.000000	58.000000	0.000000	-31.000000
1.180000	62.410000	82.350000	0.000000	0.000000	115.000000	58.000000	0.000000	-29.000000
1.190000	62.360000	82.140000	0.000000	0.000000	114.000000	57.000000	-5.000000	-21.000000
1.200000	62.360000	82.000000	0.000000	0.000000	114.000000	57.000000	0.000000	-14.000000
1.210000	62.430000	81.910000	0.000000	0.000000	114.000000	57.000000	7.000000	-9.000000
1.220000	62.430000	81.910000	139.000000	1.000000	114.000000	57.000000	0.000000	0.000000
1.230000	62.790000	82.180000	187.000000	0.000000	114.000000	57.000000	36.000000	27.000000
1.240000	62.930000	82.490000	249.000000	0.000000	114.000000	57.000000	14.000000	31.000000
1.250000	63.300000	83.020000	311.000000	0.000000	114.000000	57.000000	37.000000	53.000000
1.260000	63.860000	83.740000	349.000000	0.000000	114.000000	57.000000	56.000000	72.000000
1.270000	64.400000	84.590000	389.000000	0.000000	114.000000	57.000000	54.000000	85.000000
1.280000	64.970000	85.660000	405.000000	0.000000	113.000000	57.000000	57.000000	107.000000
1.290000	65.580000	86.650000	423.000000	0.000000	113.000000	57.000000	61.000000	99.000000
1.300000	66.150000	87.590000	431.000000	0.000000	113.000000	57.000000	57.000000	94.000000
1.310000	66.480000	88.090000	460.000000	0.000000	111.000000	57.000000	33.000000	50.000000
1.320000	66.680000	88.260000	491.000000	0.000000	111.000000	57.000000	20.000000	17.000000
1.330000	66.680000	88.200000	518.000000	0.000000	111.000000	57.000000	0.000000	-6.000000
1.340000	66.550000	88.010000	545.000000	0.000000	109.000000	57.000000	-13.000000	-19.000000
1.350000	66.330000	87.420000	578.000000	0.000000	110.000000	58.000000	-22.000000	-59.000000
1.360000	65.980000	86.560000	603.000000	0.000000	110.000000	58.000000	-35.000000	-86.000000
1.370000	65.590000	85.560000	636.000000	0.000000	110.000000	58.000000	-39.000000	-100.000000
1.380000	65.180000	84.550000	627.000000	0.000000	110.000000	58.000000	-41.000000	-101.000000
1.390000	64.860000	83.530000	594.000000	0.000000	109.000000	57.000000	-32.000000	-102.000000
1.400000	64.750000	82.910000	542.000000	0.000000	111.000000	57.000000	-11.000000	-62.000000
1.410000	64.750000	82.530000	439.000000	0.000000	111.000000	57.000000	0.000000	-38.000000
1.420000	64.880000	82.310000	281.000000	0.000000	111.000000	57.000000	13.000000	-22.000000
1.430000	64.990000	82.230000	61.000000	0.000000	111.000000	57.000000	11.000000	-8.000000
1.440000	64.990000	82.230000	0.000000	1.000000	111.000000	57.000000	0.000000	0.000000
1.450000	65.150000	82.560000	0.000000	0.000000	113.000000	57.000000	16.000000	33.000000
1.460000	65.150000	82.880000	0.000000	0.000000	113.000000	57.000000	0.000000	32.000000
1.470000	65.200000	83.350000	0.000000	0.000000	113.000000	57.000000	5.000000	47.000000
1.480000	65.200000	83.910000	0.000000	0.000000	113.000000	57.000000	0.000000	56.000000
1.490000	65.080000	84.350000	0.000000	0.000000	113.000000	57.000000	-12.000000	44.000000
1.500000	64.920000	84.740000	0.000000	0.000000	113.000000	58.000000	-16.000000	39.000000
1.510000	64.770000	84.810000	0.000000	0.000000	113.000000	58.000000	-15.000000	7.000000
1.520000	64.570000	84.690000	0.000000	0.000000	113.000000	58.000000	-20.000000	-12.000000
1.530000	64.330000	84.350000	0.000000	0.000000	113.000000	58.000000	-24.000000	-34.000000
1.540000	64.330000	84.350000	142.000000	1.000000	113.000000	58.000000	0.000000	0.000000
1.550000	63.960000	83.620000	246.000000	0.000000	113.000000	58.000000	-37.000000	-73.000000
1.560000	63.760000	83.270000	305.000000	0.000000	113.000000	58.000000	-20.000000	-35.000000
1.570000	63.760000	82.960000	344.000000	0.000000	113.000000	58.000000	0.000000	-31.000000
1.580000	63.760000	82.960000	353.000000	0.000000	115.000000	58.000000	0.000000	0.000000
1.590000	64.210000	82.710000	353.000000	0.000000	115.000000	58.000000	45.000000	-25.000000
1.600000	64.670000	82.860000	349.000000	0.000000	114.000000	57.000000	46.000000	15.000000
1.610000	65.190000	83.200000	341.000000	0.000000	114.000000	57.000000	52.000000	34.000000
1.620000	65.820000	83.660000	343.000000	0.000000	114.000000	57.000000	63.000000	46.000000
1.630000	66.510000	84.360000	337.000000	0.000000	113.000000	57.000000	69.000000	70.000000
1.640000	67.220000	85.170000	304.000000	0.000000	113.000000	57.000000	71.000000	81.000000
1.650000	67.920000	86.050000	297.000000	0.000000	113.000000	58.000000	70.000000	88.000000
1.660000	68.580000	87.010000	280.000000	0.000000	112.000000	58.000000	66.000000	96.000000
1.670000	69.220000	87.930000	270.000000	0.000000	113.000000	59.000000	64.000000	92.000000
1.680000	69.640000	88.460000	265.000000	0.000000	113.000000	60.000000	42.000000	53.000000
1.690000	69.800000	88.750000	275.000000	0.000000	113.000000	60.000000	16.000000	29.000000
1.700000	69.800000	88.650000	291.000000	0.000000	114.000000	61.000000	0.000000	-10.000000
1.710000	69.550000	88.290000	314.000000	0.000000	115.000000	62.000000	-25.000000	-36.000000
1.720000	69.060000	87.760000	367.000000	0.000000	115.000000	62.000000	-49.000000	-53.000000
1.730000	68.390000	86.920000	407.000000	0.000000	115.000000	62.000000	-67.000000	-84.000000
1.740000	67.680000	85.850000	440.000000	0.000000	115.000000	62.000000	-71.000000	-107.000000
1.750000	67.050000	84.640000	445.000000	0.000000	115.000000	62.000000	-63.000000	-121.000000
1.760000	66.460000	83.720000	450.000000	0.000000	115.000000	62.000000	-59.000000	-92.000000
1.770000	66.330000	83.200000	448.000000	0.000000	114.000000	61.000000	-13.000000	-52.000000
1.780000	66.400000	82.940000	430.000000	0.000000	113.000000	60.000000	7.000000	-26.000000
1.790000	66.590000	82.890000	422.000000	0.000000	113.000000	59.000000	19.000000	-5.000000
1.800000	66.910000	83.090000	418.000000	0.000000	112.000000	58.000000	32.000000	20.000000
1.810000	67.400000	83.460000	394.000000	0.000000	112.000000	58.000000	49.000000	37.000000
1.820000	67.990000	84.080000	386.000000	0.000000	112.000000	58.000000	59.000000	62.000000
1.830000	68.650000	84.910000	354.000000	0.000000	112.000000	58.000000	66.000000	83.000000
1.840000	69.270000	85.890000	341.000000	0.000000	113.000000	59.000000	62.000000	98.000000
1.850000	69.700000	86.660000	339.000000	0.000000	111.000000	59.000000	43.000000	77.000000
1.860000	70.010000	86.950000	344.000000	0.000000	112.000000	60.000000	31.000000	29.000000
1.870000	70.010000	86.950000	349.000000	0.000000	111.000000	61.000000	0.000000	0.000000
1.880000	69.890000	86.740000	356.000000	0.000000	112.000000	62.000000	-12.000000	-21.000000
1.890000	69.640000	86.250000	373.000000	0.000000	111.000000	64.000000	-25.000000	-49.000000
1.900000	69.150000	85.560000	391.000000	0.000000	111.000000	64.000000	-49.000000	-69.000000
1.910000	68.620000	84.620000	431.000000	0.000000	111.000000	64.000000	-53.000000	-94.000000
1.920000	68.050000	83.830000	448.000000	0.000000	111.000000	64.000000	-57.000000	-79.000000
1.930000	67.840000	83.150000	435.000000	0.000000	112.000000	62.000000	-21.000000	-68.000000
1.940000	67.840000	82.750000	425.000000	0.000000	111.000000	61.000000	0.000000	-40.000000
1.950000	67.930000	82.570000	366.000000	0.000000	113.000000	61.000000	9.000000	-18.000000
1.960000	68.200000	82.570000	344.000000	0.000000	112.000000	60.000000	27.000000	0.000000
1.970000	68.510000	82.620000	314.000000	0.000000	111.000000	59.000000	31.000000	5.000000
1.980000	68.840000	82.870000	276.000000	0.000000	113.000000	59.000000	33.000000	25.000000
1.990000	69.260000	83.240000	255.000000	0.000000	113.000000	59.000000	42.000000	37.000000
2.000000	69.680000	83.720000	230.000000	0.000000	113.000000	59.000000	42.000000	48.000000
2.010000	69.980000	84.140000	212.000000	0.000000	113.000000	60.000000	30.000000	42.000000
2.020000	70.180000	84.260000	190.000000	0.000000	113.000000	60.000000	20.000000	12.000000
2.030000	70.180000	84.210000	191.000000	0.000000	114.000000	61.000000	0.000000	-5.000000
2.040000	70.180000	84.080000	205.000000	0.000000	115.000000	62.000000	0.000000	-13.000000
2.050000	70.180000	83.960000	211.000000	0.000000	115.000000	62.000000	0.000000	-12.000000
2.060000	70.180000	83.860000	223.000000	0.000000	115.000000	62.000000	0.000000	-10.000000
2.070000	70.250000	83.780000	228.000000	0.000000	115.000000	62.000000	7.000000	-8.000000
2.080000	70.330000	83.780000	246.000000	0.000000	115.000000	62.000000	8.000000	0.000000
2.090000	70.410000	83.780000	241.000000	0.000000	115.000000	62.000000	8.000000	0.000000
2.100000	70.490000	83.780000	252.000000	0.000000	115.000000	62.000000	8.000000	0.000000
2.110000	70.560000	83.860000	269.000000	0.000000	115.000000	62.000000	7.000000	8.000000
2.120000	70.560000	83.940000	301.000000	0.000000	114.000000	62.000000	0.000000	8.000000
2.130000	70.510000	84.010000	319.000000	0.000000	114.000000	62.000000	-5.000000	7.000000
2.140000	70.390000	84.060000	335.000000	0.000000	114.000000	62.000000	-12.000000	5.000000
2.150000	70.200000	84.060000	340.000000	0.000000	114.000000	62.000000	-19.000000	0.000000
2.160000	69.950000	83.850000	319.000000	0.000000	114.000000	62.000000	-25.000000	-21.000000
2.170000	69.650000	83.550000	319.000000	0.000000	114.000000	62.000000	-30.000000	-30.000000
2.180000	69.370000	83.230000	314.000000	0.000000	114.000000	62.000000	-28.000000	-32.000000
2.190000	69.160000	82.920000	307.000000	0.000000	114.000000	62.000000	-21.000000	-31.000000
2.200000	69.090000	82.660000	316.000000	0.000000	115.000000	62.000000	-7.000000	-26.000000
