t	x	y	pressure	penup	azimuth	inclination	v_x	v_y
0.000000	88.100000	12.070000	188.000000	1.000000	125.000000	56.000000	0.000000	0.000000
0.010000	87.900000	11.510000	250.000000	0.000000	121.000000	58.000000	-20.000000	-56.000000
0.020000	87.900000	11.360000	285.000000	0.000000	119.000000	60.000000	0.000000	-15.000000
0.030000	87.960000	11.360000	322.000000	0.000000	116.000000	60.000000	6.000000	0.000000
0.040000	88.140000	11.530000	374.000000	0.000000	114.000000	61.000000	18.000000	17.000000
0.050000	88.610000	11.760000	413.000000	0.000000	112.000000	60.000000	47.000000	23.000000
0.060000	89.130000	12.340000	430.000000	0.000000	109.000000	60.000000	52.000000	58.000000
0.070000	89.710000	13.100000	433.000000	0.000000	108.000000	60.000000	58.000000	76.000000
0.080000	90.280000	13.970000	431.000000	0.000000	107.000000	59.000000	57.000000	87.000000
0.090000	90.880000	14.860000	433.000000	0.000000	107.000000	59.000000	60.000000	89.000000
0.100000	91.470000	15.700000	431.000000	0.000000	109.000000	59.000000	59.000000	84.000000
0.110000	91.850000	16.130000	433.000000	0.000000	109.000000	57.000000	38.000000	43.000000
0.120000	92.070000	16.290000	445.000000	0.000000	111.000000	57.000000	22.000000	16.000000
0.130000	92.160000	16.200000	473.000000	0.000000	113.000000	57.000000	9.000000	-9.000000
0.140000	92.100000	15.600000	477.000000	0.000000	113.000000	56.000000	-6.000000	-60.000000
0.150000	91.950000	14.670000	477.000000	0.000000	115.000000	55.000000	-15.000000	-93.000000
0.160000	91.600000	13.420000	464.000000	0.000000	113.000000	56.000000	-35.000000	-125.000000
0.170000	91.090000	11.940000	474.000000	0.000000	114.000000	57.000000	-51.000000	-148.000000
0.180000	90.460000	10.300000	469.000000	0.000000	113.000000	57.000000	-63.000000	-164.000000
0.190000	89.710000	9.020000	458.000000	0.000000	112.000000	58.000000	-75.000000	-128.000000
0.200000	88.960000	8.040000	438.000000	0.000000	112.000000	58.000000	-75.000000	-98.000000
0.210000	88.470000	7.250000	414.000000	0.000000	111.000000	59.000000	-49.000000	-79.000000
0.220000	88.140000	6.900000	399.000000	0.000000	109.000000	60.000000	-33.000000	-35.000000
0.230000	88.060000	6.900000	335.000000	0.000000	110.000000	60.000000	-8.000000	0.000000
0.240000	88.170000	7.070000	287.000000	0.000000	111.000000	61.000000	11.000000	17.000000
0.250000	88.410000	7.710000	250.000000	0.000000	111.000000	61.000000	24.000000	64.000000
0.260000	88.970000	8.690000	226.000000	0.000000	111.000000	61.000000	56.000000	98.000000
0.270000	89.560000	9.890000	218.000000	0.000000	111.000000	61.000000	59.000000	120.000000
0.280000	90.220000	10.970000	216.000000	0.000000	111.000000	61.000000	66.000000	108.000000
0.290000	90.720000	11.630000	218.000000	0.000000	111.000000	61.000000	50.000000	66.000000
0.300000	91.100000	12.010000	212.000000	0.000000	111.000000	61.000000	38.000000	38.000000
0.310000	91.260000	12.010000	218.000000	0.000000	112.000000	62.000000	16.000000	0.000000
0.320000	91.260000	11.770000	253.000000	0.000000	110.000000	63.000000	0.000000	-24.000000
0.330000	91.260000	11.400000	257.000000	0.000000	110.000000	63.000000	0.000000	-37.000000
0.340000	91.170000	10.980000	284.000000	0.000000	111.000000	64.000000	-9.000000	-42.000000
0.350000	91.170000	10.560000	289.000000	0.000000	111.000000	64.000000	0.000000	-42.000000
0.360000	91.170000	10.300000	282.000000	0.000000	111.000000	64.000000	0.000000	-26.000000
0.370000	91.170000	10.300000	280.000000	0.000000	111.000000	64.000000	0.000000	0.000000
0.380000	91.170000	10.300000	260.000000	0.000000	111.000000	64.000000	0.000000	0.000000
0.390000	91.590000	10.370000	249.000000	0.000000	111.000000	64.000000	42.000000	7.000000
0.400000	91.820000	10.720000	226.000000	0.000000	111.000000	64.000000	23.000000	35.000000
0.410000	92.030000	11.190000	202.000000	0.000000	111.000000	64.000000	21.000000	47.000000
0.420000	92.160000	11.690000	193.000000	0.000000	111.000000	64.000000	13.000000	50.000000
0.430000	92.240000	12.210000	195.000000	0.000000	110.000000	63.000000	8.000000	52.000000
0.440000	92.240000	12.600000	228.000000	0.000000	110.000000	63.000000	0.000000	39.000000
0.450000	92.130000	12.730000	265.000000	0.000000	110.000000	63.000000	-11.000000	13.000000
0.460000	92.030000	12.730000	274.000000	0.000000	110.000000	63.000000	-10.000000	0.000000
0.470000	91.910000	12.620000	273.000000	0.000000	110.000000	63.000000	-12.000000	-11.000000
0.480000	91.820000	12.460000	273.000000	0.000000	110.000000	63.000000	-9.000000	-16.000000
0.490000	91.820000	12.240000	287.000000	0.000000	110.000000	63.000000	0.000000	-22.000000
0.500000	91.950000	12.110000	270.000000	0.000000	110.000000	63.000000	13.000000	-13.000000
0.510000	92.210000	12.110000	259.000000	0.000000	110.000000	63.000000	26.000000	0.000000
0.520000	92.550000	12.190000	255.000000	0.000000	110.000000	63.000000	34.000000	8.000000
0.530000	92.880000	12.270000	257.000000	0.000000	110.000000	63.000000	33.000000	8.000000
0.540000	93.110000	12.270000	257.000000	0.000000	108.000000	63.000000	23.000000	0.000000
0.550000	93.270000	12.100000	267.000000	0.000000	107.000000	62.000000	16.000000	-17.000000
0.560000	93.270000	11.860000	275.000000	0.000000	107.000000	62.000000	0.000000	-24.000000
0.570000	93.210000	11.580000	279.000000	0.000000	107.000000	62.000000	-6.000000	-28.000000
0.580000	93.060000	11.240000	279.000000	0.000000	107.000000	62.000000	-15.000000	-34.000000
0.590000	92.880000	11.010000	282.000000	0.000000	109.000000	62.000000	-18.000000	-23.000000
0.600000	92.750000	10.840000	279.000000	0.000000	109.000000	62.000000	-13.000000	-17.000000
0.610000	92.750000	10.840000	260.000000	0.000000	109.000000	62.000000	0.000000	0.000000
0.620000	92.890000	10.910000	245.000000	0.000000	109.000000	62.000000	14.000000	7.000000
0.630000	93.050000	11.050000	218.000000	0.000000	109.000000	62.000000	16.000000	14.000000
0.640000	93.340000	11.420000	212.000000	0.000000	109.000000	62.000000	29.000000	37.000000
0.650000	93.720000	11.770000	208.000000	0.000000	109.000000	62.000000	38.000000	35.000000
0.660000	94.040000	12.080000	208.000000	0.000000	109.000000	62.000000	32.000000	31.000000
0.670000	94.250000	12.200000	202.000000	0.000000	108.000000	61.000000	21.000000	12.000000
0.680000	94.380000	12.200000	203.000000	0.000000	108.000000	61.000000	13.000000	0.000000
0.690000	94.380000	12.200000	210.000000	0.000000	108.000000	60.000000	0.000000	0.000000
0.700000	94.430000	12.130000	215.000000	0.000000	108.000000	60.000000	5.000000	-7.000000
0.710000	94.430000	12.130000	221.000000	0.000000	108.000000	60.000000	0.000000	0.000000
0.720000	94.430000	12.130000	254.000000	0.000000	107.000000	59.000000	0.000000	0.000000
0.730000	94.340000	12.070000	273.000000	0.000000	107.000000	59.000000	-9.000000	-6.000000
0.740000	94.210000	11.990000	314.000000	0.000000	107.000000	59.000000	-13.000000	-8.000000
0.750000	93.960000	11.710000	364.000000	0.000000	107.000000	59.000000	-25.000000	-28.000000
0.760000	93.690000	11.300000	396.000000	0.000000	107.000000	59.000000	-27.000000	-41.000000
0.770000	93.400000	10.980000	417.000000	0.000000	108.000000	60.000000	-29.000000	-32.000000
0.780000	93.270000	10.650000	415.000000	0.000000	108.000000	60.000000	-13.000000	-33.000000
0.790000	93.270000	10.450000	386.000000	0.000000	108.000000	60.000000	0.000000	-20.000000
0.800000	93.400000	10.340000	342.000000	0.000000	108.000000	61.000000	13.000000	-11.000000
0.810000	93.630000	10.340000	287.000000	0.000000	108.000000	61.000000	23.000000	0.000000
0.820000	93.890000	10.400000	195.000000	0.000000	108.000000	61.000000	26.000000	6.000000
0.830000	94.160000	10.520000	49.000000	0.000000	108.000000	61.000000	27.000000	12.000000
0.840000	94.160000	10.520000	0.000000	1.000000	108.000000	61.000000	0.000000	0.000000
0.850000	94.740000	11.220000	0.000000	0.000000	108.000000	61.000000	58.000000	70.000000
0.860000	94.980000	11.690000	0.000000	0.000000	108.000000	60.000000	24.000000	47.000000
0.870000	95.180000	12.210000	0.000000	0.000000	108.000000	60.000000	20.000000	52.000000
0.880000	95.400000	12.880000	0.000000	0.000000	107.000000	59.000000	22.000000	67.000000
0.890000	95.570000	13.640000	0.000000	0.000000	109.000000	59.000000	17.000000	76.000000
0.900000	95.710000	14.260000	0.000000	0.000000	109.000000	59.000000	14.000000	62.000000
0.910000	95.790000	14.590000	0.000000	0.000000	109.000000	57.000000	8.000000	33.000000
0.920000	95.790000	14.590000	90.000000	1.000000	111.000000	57.000000	0.000000	0.000000
0.930000	95.790000	14.590000	163.000000	0.000000	111.000000	57.000000	0.000000	0.000000
0.940000	95.420000	14.330000	242.000000	0.000000	111.000000	57.000000	-37.000000	-26.000000
0.950000	95.190000	13.940000	255.000000	0.000000	113.000000	58.000000	-23.000000	-39.000000
0.960000	94.940000	13.530000	237.000000	0.000000	112.000000	58.000000	-25.000000	-41.000000
0.970000	94.940000	13.170000	113.000000	0.000000	112.000000	58.000000	0.000000	-36.000000
0.980000	94.940000	13.170000	0.000000	1.000000	112.000000	58.000000	0.000000	0.000000
0.990000	95.010000	12.520000	0.000000	0.000000	110.000000	58.000000	7.000000	-65.000000
1.000000	95.080000	12.170000	0.000000	0.000000	110.000000	58.000000	7.000000	-35.000000
1.010000	95.180000	11.740000	0.000000	0.000000	109.000000	59.000000	10.000000	-43.000000
1.020000	95.300000	11.210000	0.000000	0.000000	109.000000	59.000000	12.000000	-53.000000
1.030000	95.430000	10.830000	0.000000	0.000000	109.000000	59.000000	13.000000	-38.000000
1.040000	95.580000	10.540000	0.000000	0.000000	108.000000	58.000000	15.000000	-29.000000
1.050000	95.730000	10.340000	0.000000	0.000000	109.000000	57.000000	15.000000	-20.000000
1.060000	95.910000	10.340000	0.000000	0.000000	109.000000	57.000000	18.000000	0.000000
1.070000	95.910000	10.340000	53.000000	1.000000	109.000000	57.000000	0.000000	0.000000
1.080000	96.310000	10.570000	98.000000	0.000000	111.000000	57.000000	40.000000	23.000000
1.090000	96.520000	10.920000	195.000000	0.000000	111.000000	57.000000	21.000000	35.000000
1.100000	96.810000	11.360000	267.000000	0.000000	112.000000	58.000000	29.000000	44.000000
1.110000	97.250000	12.290000	311.000000	0.000000	110.000000	58.000000	44.000000	93.000000
1.120000	97.770000	13.260000	320.000000	0.000000	110.000000	58.000000	52.000000	97.000000
1.130000	98.320000	14.270000	327.000000	0.000000	111.000000	59.000000	55.000000	101.000000
1.140000	98.860000	15.300000	334.000000	0.000000	113.000000	59.000000	54.000000	103.000000
1.150000	99.390000	16.230000	344.000000	0.000000	113.000000	59.000000	53.000000	93.000000
1.160000	99.670000	16.650000	343.000000	0.000000	114.000000	59.000000	28.000000	42.000000
1.170000	99.780000	16.760000	399.000000	0.000000	116.000000	58.000000	11.000000	11.000000
1.180000	99.780000	16.650000	433.000000	0.000000	116.000000	57.000000	0.000000	-11.000000
1.190000	99.720000	16.180000	464.000000	0.000000	118.000000	57.000000	-6.000000	-47.000000
1.200000	99.530000	15.460000	496.000000	0.000000	117.000000	56.000000	-19.000000	-72.000000
1.210000	99.290000	14.570000	543.000000	0.000000	118.000000	56.000000	-24.000000	-89.000000
1.220000	99.100000	13.630000	554.000000	0.000000	117.000000	56.000000	-19.000000	-94.000000
1.230000	99.030000	12.780000	553.000000	0.000000	116.000000	56.000000	-7.000000	-85.000000
1.240000	99.030000	12.010000	492.000000	0.000000	116.000000	56.000000	0.000000	-77.000000
1.250000	99.030000	11.570000	420.000000	0.000000	114.000000	57.000000	0.000000	-44.000000
1.260000	99.100000	11.290000	287.000000	0.000000	113.000000	58.000000	7.000000	-28.000000
1.270000	99.100000	11.110000	88.000000	0.000000	113.000000	59.000000	0.000000	-18.000000
1.280000	99.100000	11.110000	0.000000	1.000000	111.000000	59.000000	0.000000	0.000000
1.290000	98.990000	11.250000	0.000000	0.000000	112.000000	60.000000	-11.000000	14.000000
1.300000	98.790000	11.520000	0.000000	0.000000	112.000000	60.000000	-20.000000	27.000000
1.310000	98.540000	11.860000	0.000000	0.000000	113.000000	61.000000	-25.000000	34.000000
1.320000	98.290000	12.160000	0.000000	0.000000	113.000000	61.000000	-25.000000	30.000000
1.330000	98.060000	12.380000	0.000000	0.000000	114.000000	61.000000	-23.000000	22.000000
1.340000	97.900000	12.380000	0.000000	0.000000	113.000000	60.000000	-16.000000	0.000000
1.350000	97.800000	12.270000	0.000000	0.000000	113.000000	60.000000	-10.000000	-11.000000
1.360000	97.800000	12.270000	48.000000	1.000000	113.000000	60.000000	0.000000	0.000000
1.370000	97.800000	12.270000	117.000000	0.000000	113.000000	60.000000	0.000000	0.000000
1.380000	97.900000	11.980000	202.000000	0.000000	113.000000	60.000000	10.000000	-29.000000
1.390000	98.160000	12.040000	250.000000	0.000000	112.000000	60.000000	26.000000	6.000000
1.400000	98.540000	12.280000	306.000000	0.000000	112.000000	60.000000	38.000000	24.000000
1.410000	99.100000	12.630000	304.000000	0.000000	112.000000	60.000000	56.000000	35.000000
1.420000	99.650000	13.190000	310.000000	0.000000	112.000000	60.000000	55.000000	56.000000
1.430000	100.190000	13.860000	322.000000	0.000000	112.000000	60.000000	54.000000	67.000000
1.440000	100.700000	14.600000	315.000000	0.000000	112.000000	60.000000	51.000000	74.000000
1.450000	101.130000	15.390000	309.000000	0.000000	113.000000	59.000000	43.000000	79.000000
1.460000	101.510000	16.130000	314.000000	0.000000	114.000000	59.000000	38.000000	74.000000
1.470000	101.700000	16.470000	319.000000	0.000000	116.000000	57.000000	19.000000	34.000000
1.480000	101.700000	16.570000	337.000000	0.000000	118.000000	57.000000	0.000000	10.000000
1.490000	101.650000	16.380000	341.000000	0.000000	120.000000	55.000000	-5.000000	-19.000000
1.500000	101.400000	15.870000	354.000000	0.000000	121.000000	55.000000	-25.000000	-51.000000
1.510000	101.050000	15.140000	379.000000	0.000000	120.000000	54.000000	-35.000000	-73.000000
1.520000	100.630000	14.100000	417.000000	0.000000	121.000000	55.000000	-42.000000	-104.000000
1.530000	100.310000	13.050000	460.000000	0.000000	121.000000	55.000000	-32.000000	-105.000000
1.540000	100.020000	12.030000	461.000000	0.000000	120.000000	55.000000	-29.000000	-102.000000
1.550000	100.020000	11.470000	439.000000	0.000000	118.000000	57.000000	0.000000	-56.000000
1.560000	100.100000	11.180000	415.000000	0.000000	116.000000	57.000000	8.000000	-29.000000
1.570000	100.280000	11.180000	394.000000	0.000000	113.000000	58.000000	18.000000	0.000000
1.580000	100.500000	11.500000	363.000000	0.000000	113.000000	59.000000	22.000000	32.000000
1.590000	100.900000	12.050000	315.000000	0.000000	111.000000	59.000000	40.000000	55.000000
1.600000	101.400000	12.940000	277.000000	0.000000	111.000000	59.000000	50.000000	89.000000
1.610000	101.870000	13.890000	218.000000	0.000000	111.000000	59.000000	47.000000	95.000000
1.620000	102.340000	14.890000	208.000000	0.000000	111.000000	59.000000	47.000000	100.000000
1.630000	102.570000	15.460000	180.000000	0.000000	113.000000	59.000000	23.000000	57.000000
1.640000	102.650000	15.570000	175.000000	0.000000	114.000000	59.000000	8.000000	11.000000
1.650000	102.650000	15.370000	191.000000	0.000000	116.000000	58.000000	0.000000	-20.000000
1.660000	102.510000	14.950000	242.000000	0.000000	117.000000	58.000000	-14.000000	-42.000000
1.670000	102.230000	14.280000	289.000000	0.000000	119.000000	58.000000	-28.000000	-67.000000
1.680000	101.990000	13.450000	334.000000	0.000000	119.000000	58.000000	-24.000000	-83.000000
1.690000	101.810000	12.730000	369.000000	0.000000	119.000000	58.000000	-18.000000	-72.000000
1.700000	101.810000	12.170000	361.000000	0.000000	120.000000	58.000000	0.000000	-56.000000
1.710000	101.900000	11.720000	369.000000	0.000000	118.000000	59.000000	9.000000	-45.000000
1.720000	102.070000	11.460000	339.000000	0.000000	117.000000	59.000000	17.000000	-26.000000
1.730000	102.240000	11.400000	314.000000	0.000000	115.000000	60.000000	17.000000	-6.000000
1.740000	102.410000	11.470000	273.000000	0.000000	115.000000	60.000000	17.000000	7.000000
1.750000	102.640000	11.730000	259.000000	0.000000	113.000000	60.000000	23.000000	26.000000
1.760000	102.880000	12.140000	206.000000	0.000000	113.000000	60.000000	24.000000	41.000000
1.770000	103.140000	12.640000	171.000000	0.000000	113.000000	60.000000	26.000000	50.000000
1.780000	103.270000	13.120000	182.000000	0.000000	113.000000	60.000000	13.000000	48.000000
1.790000	103.320000	13.410000	182.000000	0.000000	115.000000	60.000000	5.000000	29.000000
1.800000	103.240000	13.580000	180.000000	0.000000	114.000000	59.000000	-8.000000	17.000000
1.810000	103.080000	13.630000	220.000000	0.000000	114.000000	59.000000	-16.000000	5.000000
1.820000	102.860000	13.470000	242.000000	0.000000	114.000000	59.000000	-22.000000	-16.000000
1.830000	102.650000	13.180000	277.000000	0.000000	116.000000	58.000000	-21.000000	-29.000000
1.840000	102.480000	12.890000	284.000000	0.000000	116.000000	58.000000	-17.000000	-29.000000
1.850000	102.410000	12.620000	292.000000	0.000000	116.000000	58.000000	-7.000000	-27.000000
1.860000	102.410000	12.430000	296.000000	0.000000	114.000000	59.000000	0.000000	-19.000000
1.870000	102.580000	12.290000	299.000000	0.000000	114.000000	59.000000	17.000000	-14.000000
1.880000	102.810000	12.170000	302.000000	0.000000	114.000000	59.000000	23.000000	-12.000000
1.890000	103.080000	12.120000	299.000000	0.000000	114.000000	59.000000	27.000000	-5.000000
1.900000	103.370000	12.120000	299.000000	0.000000	114.000000	59.000000	29.000000	0.000000
1.910000	103.600000	12.120000	286.000000	0.000000	114.000000	59.000000	23.000000	0.000000
1.920000	103.780000	12.270000	282.000000	0.000000	114.000000	59.000000	18.000000	15.000000
1.930000	103.950000	12.430000	273.000000	0.000000	114.000000	59.000000	17.000000	16.000000
1.940000	104.070000	12.630000	280.000000	0.000000	114.000000	59.000000	12.000000	20.000000
1.950000	104.160000	12.850000	280.000000	0.000000	114.000000	59.000000	9.000000	22.000000
1.960000	104.240000	13.080000	273.000000	0.000000	114.000000	59.000000	8.000000	23.000000
1.970000	104.240000	13.150000	302.000000	0.000000	113.000000	58.000000	0.000000	7.000000
1.980000	104.090000	13.150000	307.000000	0.000000	113.000000	58.000000	-15.000000	0.000000
1.990000	103.890000	13.150000	322.000000	0.000000	113.000000	58.000000	-20.000000	0.000000
2.000000	103.640000	12.960000	353.000000	0.000000	115.000000	58.000000	-25.000000	-19.000000
2.010000	103.360000	12.700000	389.000000	0.000000	115.000000	58.000000	-28.000000	-26.000000
2.020000	103.170000	12.370000	399.000000	0.000000	113.000000	58.000000	-19.000000	-33.000000
2.030000	103.030000	12.040000	418.000000	0.000000	114.000000	59.000000	-14.000000	-33.000000
2.040000	102.980000	11.700000	422.000000	0.000000	114.000000	59.000000	-5.000000	-34.000000
2.050000	102.980000	11.490000	412.000000	0.000000	114.000000	59.000000	0.000000	-21.000000
2.060000	103.110000	11.350000	377.000000	0.000000	113.000000	59.000000	13.000000	-14.000000
2.070000	103.320000	11.300000	351.000000	0.000000	113.000000	59.000000	21.000000	-5.000000
2.080000	103.520000	11.300000	304.000000	0.000000	113.000000	59.000000	20.000000	0.000000
2.090000	103.730000	11.400000	256.000000	0.000000	113.000000	59.000000	21.000000	10.000000
2.100000	103.950000	11.550000	168.000000	0.000000	113.000000	59.000000	22.000000	15.000000
2.110000	103.950000	11.550000	0.000000	1.000000	113.000000	59.000000	0.000000	0.000000
2.120000	104.380000	12.120000	0.000000	0.000000	113.000000	59.000000	43.000000	57.000000
2.130000	104.540000	12.470000	0.000000	0.000000	113.000000	59.000000	16.000000	35.000000
2.140000	104.700000	12.780000	0.000000	0.000000	114.000000	59.000000	16.000000	31.000000
2.150000	104.880000	13.090000	0.000000	0.000000	114.000000	59.000000	18.000000	31.000000
2.160000	105.040000	13.420000	0.000000	0.000000	116.000000	58.000000	16.000000	33.000000
2.170000	105.140000	13.620000	0.000000	0.000000	117.000000	58.000000	10.000000	20.000000
2.180000	105.140000	13.620000	65.000000	1.000000	118.000000	59.000000	0.000000	0.000000
2.190000	105.140000	13.620000	161.000000	0.000000	118.000000	59.000000	0.000000	0.000000
2.200000	105.140000	13.620000	287.000000	0.000000	120.000000	58.000000	0.000000	0.000000
