t	x	y	pressure	penup	azimuth	inclination	v_x	v_y
0.000000	51.310000	8.270000	127.000000	1.000000	105.000000	65.000000	0.000000	0.000000
0.010000	51.240000	7.940000	560.000000	0.000000	106.000000	66.000000	-7.000000	-33.000000
0.020000	51.140000	7.770000	665.000000	0.000000	106.000000	66.000000	-10.000000	-17.000000
0.030000	51.000000	7.630000	760.000000	0.000000	107.000000	67.000000	-14.000000	-14.000000
0.040000	51.060000	7.630000	805.000000	0.000000	107.000000	67.000000	6.000000	0.000000
0.050000	51.140000	7.630000	851.000000	0.000000	108.000000	68.000000	8.000000	0.000000
0.060000	51.430000	7.970000	872.000000	0.000000	108.000000	68.000000	29.000000	34.000000
0.070000	51.850000	8.770000	917.000000	0.000000	105.000000	68.000000	42.000000	80.000000
0.080000	52.520000	9.890000	929.000000	0.000000	105.000000	68.000000	67.000000	112.000000
0.090000	53.030000	11.500000	908.000000	0.000000	103.000000	69.000000	51.000000	161.000000
0.100000	53.440000	13.350000	935.000000	0.000000	103.000000	69.000000	41.000000	185.000000
0.110000	53.760000	15.360000	930.000000	0.000000	103.000000	69.000000	32.000000	201.000000
0.120000	53.760000	16.580000	939.000000	0.000000	102.000000	68.000000	0.000000	122.000000
0.130000	53.640000	17.270000	967.000000	0.000000	102.000000	68.000000	-12.000000	69.000000
0.140000	53.390000	17.620000	984.000000	0.000000	102.000000	68.000000	-25.000000	35.000000
0.150000	53.180000	17.620000	990.000000	0.000000	105.000000	67.000000	-21.000000	0.000000
0.160000	53.130000	17.170000	1008.000000	0.000000	107.000000	67.000000	-5.000000	-45.000000
0.170000	53.130000	16.380000	1018.000000	0.000000	109.000000	67.000000	0.000000	-79.000000
0.180000	53.130000	14.830000	1018.000000	0.000000	111.000000	67.000000	0.000000	-155.000000
0.190000	53.510000	13.120000	1012.000000	0.000000	112.000000	67.000000	38.000000	-171.000000
0.200000	54.110000	11.300000	999.000000	0.000000	110.000000	68.000000	60.000000	-182.000000
0.210000	54.680000	9.840000	991.000000	0.000000	108.000000	68.000000	57.000000	-146.000000
0.220000	55.190000	8.640000	990.000000	0.000000	109.000000	69.000000	51.000000	-120.000000
0.230000	55.650000	7.610000	978.000000	0.000000	106.000000	69.000000	46.000000	-103.000000
0.240000	55.790000	6.670000	990.000000	0.000000	106.000000	69.000000	14.000000	-94.000000
0.250000	55.670000	5.910000	997.000000	0.000000	104.000000	70.000000	-12.000000	-76.000000
0.260000	55.380000	5.270000	1000.000000	0.000000	104.000000	70.000000	-29.000000	-64.000000
0.270000	54.810000	4.770000	1018.000000	0.000000	104.000000	70.000000	-57.000000	-50.000000
0.280000	54.100000	4.370000	1023.000000	0.000000	104.000000	70.000000	-71.000000	-40.000000
0.290000	53.290000	4.040000	1017.000000	0.000000	101.000000	71.000000	-81.000000	-33.000000
0.300000	52.510000	4.040000	1018.000000	0.000000	101.000000	71.000000	-78.000000	0.000000
0.310000	52.140000	4.200000	999.000000	0.000000	99.000000	71.000000	-37.000000	16.000000
0.320000	52.030000	4.500000	989.000000	0.000000	96.000000	71.000000	-11.000000	30.000000
0.330000	52.090000	5.050000	974.000000	0.000000	96.000000	71.000000	6.000000	55.000000
0.340000	52.500000	5.890000	979.000000	0.000000	96.000000	71.000000	41.000000	84.000000
0.350000	53.140000	6.920000	986.000000	0.000000	99.000000	71.000000	64.000000	103.000000
0.360000	53.920000	7.670000	979.000000	0.000000	101.000000	71.000000	78.000000	75.000000
0.370000	54.570000	8.370000	997.000000	0.000000	101.000000	71.000000	65.000000	70.000000
0.380000	55.120000	8.850000	1005.000000	0.000000	104.000000	70.000000	55.000000	48.000000
0.390000	55.490000	9.200000	1006.000000	0.000000	104.000000	70.000000	37.000000	35.000000
0.400000	55.660000	9.440000	1002.000000	0.000000	107.000000	70.000000	17.000000	24.000000
0.410000	55.660000	9.440000	997.000000	0.000000	107.000000	70.000000	0.000000	0.000000
0.420000	55.710000	9.810000	996.000000	0.000000	104.000000	70.000000	5.000000	37.000000
0.430000	55.710000	9.920000	987.000000	0.000000	105.000000	71.000000	0.000000	11.000000
0.440000	55.790000	10.010000	984.000000	0.000000	102.000000	72.000000	8.000000	9.000000
0.450000	55.850000	10.110000	979.000000	0.000000	102.000000	72.000000	6.000000	10.000000
0.460000	55.930000	10.160000	978.000000	0.000000	99.000000	72.000000	8.000000	5.000000
0.470000	55.990000	10.160000	994.000000	0.000000	99.000000	72.000000	6.000000	0.000000
0.480000	55.990000	10.160000	978.000000	0.000000	99.000000	72.000000	0.000000	0.000000
0.490000	56.050000	10.160000	979.000000	0.000000	99.000000	72.000000	6.000000	0.000000
0.500000	56.110000	10.080000	988.000000	0.000000	99.000000	72.000000	6.000000	-8.000000
0.510000	56.170000	9.980000	991.000000	0.000000	99.000000	72.000000	6.000000	-10.000000
0.520000	56.170000	9.830000	993.000000	0.000000	99.000000	72.000000	0.000000	-15.000000
0.530000	56.230000	9.670000	991.000000	0.000000	99.000000	72.000000	6.000000	-16.000000
0.540000	56.320000	9.510000	1000.000000	0.000000	99.000000	72.000000	9.000000	-16.000000
0.550000	56.430000	9.390000	1003.000000	0.000000	102.000000	72.000000	11.000000	-12.000000
0.560000	56.590000	9.230000	1002.000000	0.000000	102.000000	72.000000	16.000000	-16.000000
0.570000	56.780000	9.170000	1002.000000	0.000000	102.000000	72.000000	19.000000	-6.000000
0.580000	57.000000	9.170000	1006.000000	0.000000	102.000000	72.000000	22.000000	0.000000
0.590000	57.260000	9.310000	1006.000000	0.000000	102.000000	72.000000	26.000000	14.000000
0.600000	57.490000	9.540000	1008.000000	0.000000	103.000000	73.000000	23.000000	23.000000
0.610000	57.690000	9.850000	1006.000000	0.000000	100.000000	73.000000	20.000000	31.000000
0.620000	57.900000	10.400000	1006.000000	0.000000	100.000000	73.000000	21.000000	55.000000
0.630000	57.900000	11.080000	1000.000000	0.000000	100.000000	73.000000	0.000000	68.000000
0.640000	57.780000	11.840000	1000.000000	0.000000	99.000000	72.000000	-12.000000	76.000000
0.650000	57.530000	12.550000	1014.000000	0.000000	99.000000	72.000000	-25.000000	71.000000
0.660000	57.140000	12.880000	1012.000000	0.000000	99.000000	72.000000	-39.000000	33.000000
0.670000	56.660000	12.960000	1014.000000	0.000000	99.000000	72.000000	-48.000000	8.000000
0.680000	56.080000	12.820000	1023.000000	0.000000	99.000000	72.000000	-58.000000	-14.000000
0.690000	55.530000	12.480000	1023.000000	0.000000	99.000000	72.000000	-55.000000	-34.000000
0.700000	55.310000	12.000000	1023.000000	0.000000	99.000000	72.000000	-22.000000	-48.000000
0.710000	55.310000	11.140000	1000.000000	0.000000	99.000000	72.000000	0.000000	-86.000000
0.720000	55.410000	10.440000	983.000000	0.000000	99.000000	72.000000	10.000000	-70.000000
0.730000	55.710000	9.860000	929.000000	0.000000	99.000000	72.000000	30.000000	-58.000000
0.740000	56.120000	9.530000	751.000000	0.000000	99.000000	72.000000	41.000000	-33.000000
0.750000	56.600000	9.410000	339.000000	0.000000	99.000000	72.000000	48.000000	-12.000000
0.760000	56.600000	9.410000	0.000000	1.000000	102.000000	72.000000	0.000000	0.000000
0.770000	57.380000	9.740000	0.000000	0.000000	103.000000	73.000000	78.000000	33.000000
0.780000	57.640000	10.080000	0.000000	0.000000	103.000000	73.000000	26.000000	34.000000
0.790000	57.810000	10.450000	0.000000	0.000000	103.000000	73.000000	17.000000	37.000000
0.800000	58.000000	10.830000	0.000000	0.000000	103.000000	73.000000	19.000000	38.000000
0.810000	58.220000	11.150000	0.000000	0.000000	103.000000	73.000000	22.000000	32.000000
0.820000	58.440000	11.360000	0.000000	0.000000	102.000000	72.000000	22.000000	21.000000
0.830000	58.570000	11.440000	0.000000	0.000000	101.000000	71.000000	13.000000	8.000000
0.840000	58.650000	11.440000	0.000000	0.000000	104.000000	70.000000	8.000000	0.000000
0.850000	58.710000	11.440000	0.000000	0.000000	104.000000	69.000000	6.000000	0.000000
0.860000	58.710000	11.370000	0.000000	0.000000	103.000000	69.000000	0.000000	-7.000000
0.870000	58.710000	11.370000	0.000000	0.000000	103.000000	69.000000	0.000000	0.000000
0.880000	58.780000	11.370000	0.000000	0.000000	103.000000	69.000000	7.000000	0.000000
0.890000	58.840000	11.370000	0.000000	0.000000	103.000000	69.000000	6.000000	0.000000
0.900000	58.930000	11.460000	0.000000	0.000000	100.000000	69.000000	9.000000	9.000000
0.910000	59.050000	11.540000	0.000000	0.000000	100.000000	69.000000	12.000000	8.000000
0.920000	59.170000	11.630000	0.000000	0.000000	101.000000	70.000000	12.000000	9.000000
0.930000	59.310000	11.720000	0.000000	0.000000	101.000000	70.000000	14.000000	9.000000
0.940000	59.450000	11.860000	0.000000	0.000000	101.000000	70.000000	14.000000	14.000000
0.950000	59.450000	11.860000	148.000000	1.000000	99.000000	71.000000	0.000000	0.000000
0.960000	59.630000	12.230000	324.000000	0.000000	99.000000	71.000000	18.000000	37.000000
0.970000	59.630000	12.440000	466.000000	0.000000	99.000000	71.000000	0.000000	21.000000
0.980000	59.450000	12.660000	614.000000	0.000000	99.000000	71.000000	-18.000000	22.000000
0.990000	59.150000	12.780000	693.000000	0.000000	99.000000	71.000000	-30.000000	12.000000
1.000000	58.770000	12.730000	770.000000	0.000000	99.000000	71.000000	-38.000000	-5.000000
1.010000	58.320000	12.580000	827.000000	0.000000	99.000000	71.000000	-45.000000	-15.000000
1.020000	57.900000	12.240000	834.000000	0.000000	99.000000	71.000000	-42.000000	-34.000000
1.030000	57.780000	11.740000	825.000000	0.000000	99.000000	71.000000	-12.000000	-50.000000
1.040000	57.840000	11.140000	825.000000	0.000000	99.000000	71.000000	6.000000	-60.000000
1.050000	58.170000	10.540000	824.000000	0.000000	99.000000	71.000000	33.000000	-60.000000
1.060000	58.680000	10.030000	818.000000	0.000000	99.000000	71.000000	51.000000	-51.000000
1.070000	59.310000	9.580000	817.000000	0.000000	99.000000	71.000000	63.000000	-45.000000
1.080000	59.590000	9.140000	821.000000	0.000000	99.000000	71.000000	28.000000	-44.000000
1.090000	59.590000	8.780000	818.000000	0.000000	99.000000	71.000000	0.000000	-36.000000
1.100000	59.470000	8.480000	830.000000	0.000000	99.000000	71.000000	-12.000000	-30.000000
1.110000	58.900000	8.190000	834.000000	0.000000	101.000000	71.000000	-57.000000	-29.000000
1.120000	58.260000	8.080000	861.000000	0.000000	101.000000	71.000000	-64.000000	-11.000000
1.130000	57.570000	8.080000	869.000000	0.000000	105.000000	71.000000	-69.000000	0.000000
1.140000	57.080000	8.190000	863.000000	0.000000	105.000000	71.000000	-49.000000	11.000000
1.150000	56.880000	8.310000	833.000000	0.000000	105.000000	71.000000	-20.000000	12.000000
1.160000	56.880000	8.440000	771.000000	0.000000	109.000000	72.000000	0.000000	13.000000
1.170000	57.040000	8.540000	684.000000	0.000000	109.000000	72.000000	16.000000	10.000000
1.180000	57.520000	8.730000	553.000000	0.000000	109.000000	72.000000	48.000000	19.000000
1.190000	58.200000	8.980000	456.000000	0.000000	106.000000	72.000000	68.000000	25.000000
1.200000	58.920000	9.170000	456.000000	0.000000	106.000000	72.000000	72.000000	19.000000
1.210000	59.630000	9.460000	491.000000	0.000000	106.000000	72.000000	71.000000	29.000000
1.220000	60.330000	9.820000	619.000000	0.000000	103.000000	73.000000	70.000000	36.000000
1.230000	60.840000	10.250000	719.000000	0.000000	103.000000	73.000000	51.000000	43.000000
1.240000	61.230000	10.780000	800.000000	0.000000	103.000000	73.000000	39.000000	53.000000
1.250000	61.370000	11.390000	887.000000	0.000000	99.000000	72.000000	14.000000	61.000000
1.260000	61.370000	12.020000	948.000000	0.000000	99.000000	72.000000	0.000000	63.000000
1.270000	61.210000	12.350000	991.000000	0.000000	99.000000	72.000000	-16.000000	33.000000
1.280000	60.830000	12.470000	1000.000000	0.000000	99.000000	71.000000	-38.000000	12.000000
1.290000	60.360000	12.470000	1023.000000	0.000000	99.000000	72.000000	-47.000000	0.000000
1.300000	59.840000	12.130000	1023.000000	0.000000	99.000000	72.000000	-52.000000	-34.000000
1.310000	59.580000	11.600000	1023.000000	0.000000	99.000000	72.000000	-26.000000	-53.000000
1.320000	59.580000	11.020000	1014.000000	0.000000	99.000000	72.000000	0.000000	-58.000000
1.330000	59.850000	10.600000	999.000000	0.000000	99.000000	72.000000	27.000000	-42.000000
1.340000	60.300000	10.300000	977.000000	0.000000	99.000000	72.000000	45.000000	-30.000000
1.350000	60.750000	10.100000	959.000000	0.000000	99.000000	72.000000	45.000000	-20.000000
1.360000	61.180000	10.100000	906.000000	0.000000	99.000000	72.000000	43.000000	0.000000
1.370000	61.410000	10.100000	770.000000	0.000000	99.000000	72.000000	23.000000	0.000000
1.380000	61.520000	10.160000	430.000000	0.000000	99.000000	72.000000	11.000000	6.000000
1.390000	61.520000	10.160000	0.000000	1.000000	99.000000	72.000000	0.000000	0.000000
1.400000	61.430000	10.220000	0.000000	0.000000	99.000000	72.000000	-9.000000	6.000000
1.410000	61.280000	10.220000	0.000000	0.000000	99.000000	71.000000	-15.000000	0.000000
1.420000	61.170000	10.160000	0.000000	0.000000	99.000000	71.000000	-11.000000	-6.000000
1.430000	61.360000	10.240000	0.000000	0.000000	101.000000	71.000000	19.000000	8.000000
1.440000	61.740000	10.390000	0.000000	0.000000	101.000000	71.000000	38.000000	15.000000
1.450000	62.470000	10.560000	0.000000	0.000000	104.000000	70.000000	73.000000	17.000000
1.460000	63.460000	10.730000	0.000000	0.000000	104.000000	70.000000	99.000000	17.000000
1.470000	64.610000	10.890000	0.000000	0.000000	107.000000	70.000000	115.000000	16.000000
1.480000	65.980000	11.010000	0.000000	0.000000	110.000000	70.000000	137.000000	12.000000
1.490000	67.230000	11.090000	0.000000	0.000000	113.000000	71.000000	125.000000	8.000000
1.500000	68.400000	11.090000	0.000000	0.000000	115.000000	71.000000	117.000000	0.000000
1.510000	69.140000	10.990000	0.000000	0.000000	117.000000	71.000000	74.000000	-10.000000
1.520000	69.570000	10.880000	0.000000	0.000000	117.000000	71.000000	43.000000	-11.000000
1.530000	69.780000	10.750000	0.000000	0.000000	117.000000	71.000000	21.000000	-13.000000
1.540000	69.780000	10.620000	0.000000	0.000000	117.000000	71.000000	0.000000	-13.000000
1.550000	69.730000	10.550000	0.000000	0.000000	117.000000	71.000000	-5.000000	-7.000000
1.560000	69.560000	10.550000	0.000000	0.000000	116.000000	70.000000	-17.000000	0.000000
1.570000	69.350000	10.500000	0.000000	0.000000	114.000000	68.000000	-21.000000	-5.000000
1.580000	69.030000	10.500000	0.000000	0.000000	112.000000	67.000000	-32.000000	0.000000
1.590000	68.630000	10.430000	0.000000	0.000000	112.000000	67.000000	-40.000000	-7.000000
1.600000	68.200000	10.430000	0.000000	0.000000	112.000000	67.000000	-43.000000	0.000000
1.610000	67.830000	10.430000	0.000000	0.000000	112.000000	67.000000	-37.000000	0.000000
1.620000	67.500000	10.500000	0.000000	0.000000	114.000000	68.000000	-33.000000	7.000000
1.630000	67.170000	10.580000	0.000000	0.000000	115.000000	69.000000	-33.000000	8.000000
1.640000	66.870000	10.640000	0.000000	0.000000	116.000000	70.000000	-30.000000	6.000000
1.650000	66.620000	10.700000	0.000000	0.000000	115.000000	71.000000	-25.000000	6.000000
1.660000	66.450000	10.700000	0.000000	0.000000	116.000000	72.000000	-17.000000	0.000000
1.670000	66.290000	10.770000	0.000000	0.000000	118.000000	73.000000	-16.000000	7.000000
1.680000	66.150000	10.770000	0.000000	0.000000	118.000000	73.000000	-14.000000	0.000000
1.690000	66.000000	10.770000	0.000000	0.000000	118.000000	73.000000	-15.000000	0.000000
1.700000	65.850000	10.770000	0.000000	0.000000	118.000000	73.000000	-15.000000	0.000000
1.710000	65.680000	10.770000	0.000000	0.000000	118.000000	73.000000	-17.000000	0.000000
1.720000	65.520000	10.770000	0.000000	0.000000	116.000000	72.000000	-16.000000	0.000000
1.730000	65.360000	10.700000	0.000000	0.000000	116.000000	72.000000	-16.000000	-7.000000
1.740000	65.220000	10.700000	0.000000	0.000000	116.000000	72.000000	-14.000000	0.000000
1.750000	65.130000	10.630000	0.000000	0.000000	115.000000	71.000000	-9.000000	-7.000000
1.760000	65.130000	10.570000	0.000000	0.000000	115.000000	71.000000	0.000000	-6.000000
1.770000	65.050000	10.520000	0.000000	0.000000	112.000000	72.000000	-8.000000	-5.000000
1.780000	64.930000	10.450000	0.000000	0.000000	112.000000	72.000000	-12.000000	-7.000000
1.790000	64.780000	10.350000	0.000000	0.000000	112.000000	72.000000	-15.000000	-10.000000
1.800000	64.680000	10.260000	0.000000	0.000000	111.000000	71.000000	-10.000000	-9.000000
1.810000	64.590000	10.260000	0.000000	0.000000	111.000000	71.000000	-9.000000	0.000000
1.820000	64.510000	10.260000	0.000000	0.000000	111.000000	71.000000	-8.000000	0.000000
1.830000	64.420000	10.260000	0.000000	0.000000	110.000000	70.000000	-9.000000	0.000000
1.840000	64.320000	10.200000	0.000000	0.000000	110.000000	70.000000	-10.000000	-6.000000
1.850000	64.270000	10.130000	0.000000	0.000000	110.000000	70.000000	-5.000000	-7.000000
1.860000	64.210000	10.060000	0.000000	0.000000	109.000000	69.000000	-6.000000	-7.000000
1.870000	64.140000	9.890000	0.000000	0.000000	109.000000	69.000000	-7.000000	-17.000000
1.880000	64.140000	9.760000	0.000000	0.000000	109.000000	69.000000	0.000000	-13.000000
1.890000	64.060000	9.700000	0.000000	0.000000	106.000000	69.000000	-8.000000	-6.000000
1.900000	63.990000	9.700000	0.000000	0.000000	106.000000	69.000000	-7.000000	0.000000
1.910000	63.900000	9.700000	0.000000	0.000000	105.000000	68.000000	-9.000000	0.000000
1.920000	63.900000	9.770000	0.000000	0.000000	105.000000	68.000000	0.000000	7.000000
1.930000	63.900000	9.850000	0.000000	0.000000	105.000000	68.000000	0.000000	8.000000
1.940000	63.900000	9.940000	0.000000	0.000000	105.000000	68.000000	0.000000	9.000000
1.950000	63.900000	10.060000	0.000000	0.000000	105.000000	68.000000	0.000000	12.000000
1.960000	63.900000	10.060000	0.000000	0.000000	105.000000	68.000000	0.000000	0.000000
1.970000	63.900000	10.060000	0.000000	0.000000	105.000000	68.000000	0.000000	0.000000
1.980000	63.850000	10.060000	0.000000	0.000000	105.000000	68.000000	-5.000000	0.000000
1.990000	63.850000	10.060000	0.000000	0.000000	105.000000	67.000000	0.000000	0.000000
2.000000	63.770000	10.120000	0.000000	0.000000	105.000000	67.000000	-8.000000	6.000000
2.010000	63.720000	10.180000	0.000000	0.000000	105.000000	67.000000	-5.000000	6.000000
2.020000	63.720000	10.230000	0.000000	0.000000	105.000000	67.000000	0.000000	5.000000
2.030000	63.640000	10.280000	0.000000	0.000000	105.000000	67.000000	-8.000000	5.000000
2.040000	63.580000	10.330000	0.000000	0.000000	105.000000	67.000000	-6.000000	5.000000
2.050000	63.500000	10.390000	0.000000	0.000000	105.000000	67.000000	-8.000000	6.000000
2.060000	63.410000	10.460000	0.000000	0.000000	105.000000	67.000000	-9.000000	7.000000
2.070000	63.320000	10.550000	0.000000	0.000000	105.000000	67.000000	-9.000000	9.000000
2.080000	63.150000	10.600000	0.000000	0.000000	105.000000	67.000000	-17.000000	5.000000
2.090000	62.980000	10.660000	0.000000	0.000000	105.000000	67.000000	-17.000000	6.000000
2.100000	62.820000	10.710000	0.000000	0.000000	105.000000	67.000000	-16.000000	5.000000
2.110000	62.670000	10.800000	0.000000	0.000000	105.000000	67.000000	-15.000000	9.000000
2.120000	62.510000	10.910000	0.000000	0.000000	105.000000	67.000000	-16.000000	11.000000
2.130000	62.320000	11.030000	0.000000	0.000000	105.000000	67.000000	-19.000000	12.000000
2.140000	62.120000	11.150000	0.000000	0.000000	105.000000	67.000000	-20.000000	12.000000
2.150000	61.980000	11.250000	0.000000	0.000000	102.000000	68.000000	-14.000000	10.000000
2.160000	61.870000	11.310000	0.000000	0.000000	102.000000	68.000000	-11.000000	6.000000
2.170000	61.790000	11.310000	0.000000	0.000000	102.000000	68.000000	-8.000000	0.000000
2.180000	61.710000	11.370000	0.000000	0.000000	102.000000	67.000000	-8.000000	6.000000
2.190000	61.630000	11.370000	0.000000	0.000000	102.000000	67.000000	-8.000000	0.000000
2.200000	61.570000	11.280000	0.000000	0.000000	102.000000	67.000000	-6.000000	-9.000000
2.210000	61.520000	11.280000	0.000000	0.000000	102.000000	67.000000	-5.000000	0.000000
2.220000	61.520000	11.280000	0.000000	0.000000	102.000000	67.000000	0.000000	0.000000
2.230000	61.470000	11.280000	0.000000	0.000000	102.000000	67.000000	-5.000000	0.000000
2.240000	61.470000	11.280000	0.000000	0.000000	102.000000	67.000000	0.000000	0.000000
