t	x	y	pressure	penup	azimuth	inclination	v_x	v_y
0.000000	49.570000	13.780000	110.000000	1.000000	112.000000	54.000000	0.000000	0.000000
0.010000	49.570000	13.780000	124.000000	0.000000	110.000000	55.000000	0.000000	0.000000
0.020000	50.000000	14.170000	170.000000	0.000000	108.000000	56.000000	43.000000	39.000000
0.030000	50.380000	14.640000	211.000000	0.000000	105.000000	56.000000	38.000000	47.000000
0.040000	50.900000	15.250000	257.000000	0.000000	104.000000	56.000000	52.000000	61.000000
0.050000	51.530000	16.030000	289.000000	0.000000	104.000000	56.000000	63.000000	78.000000
0.060000	52.230000	16.790000	330.000000	0.000000	104.000000	56.000000	70.000000	76.000000
0.070000	52.800000	17.550000	343.000000	0.000000	105.000000	56.000000	57.000000	76.000000
0.080000	53.210000	17.950000	381.000000	0.000000	107.000000	56.000000	41.000000	40.000000
0.090000	53.500000	18.000000	389.000000	0.000000	108.000000	56.000000	29.000000	5.000000
0.100000	53.610000	17.830000	428.000000	0.000000	110.000000	55.000000	11.000000	-17.000000
0.110000	53.610000	17.440000	440.000000	0.000000	110.000000	55.000000	0.000000	-39.000000
0.120000	53.540000	16.550000	440.000000	0.000000	110.000000	56.000000	-7.000000	-89.000000
0.130000	53.220000	15.330000	425.000000	0.000000	110.000000	56.000000	-32.000000	-122.000000
0.140000	52.700000	14.040000	422.000000	0.000000	109.000000	57.000000	-52.000000	-129.000000
0.150000	52.050000	12.720000	397.000000	0.000000	107.000000	57.000000	-65.000000	-132.000000
0.160000	51.220000	11.300000	399.000000	0.000000	104.000000	57.000000	-83.000000	-142.000000
0.170000	50.570000	10.300000	405.000000	0.000000	103.000000	57.000000	-65.000000	-100.000000
0.180000	50.050000	9.590000	402.000000	0.000000	101.000000	58.000000	-52.000000	-71.000000
0.190000	49.890000	9.260000	399.000000	0.000000	100.000000	58.000000	-16.000000	-33.000000
0.200000	49.790000	9.260000	379.000000	0.000000	98.000000	59.000000	-10.000000	0.000000
0.210000	49.940000	9.430000	372.000000	0.000000	98.000000	59.000000	15.000000	17.000000
0.220000	50.240000	9.920000	374.000000	0.000000	98.000000	59.000000	30.000000	49.000000
0.230000	50.770000	10.730000	367.000000	0.000000	98.000000	59.000000	53.000000	81.000000
0.240000	51.440000	11.760000	364.000000	0.000000	98.000000	59.000000	67.000000	103.000000
0.250000	52.200000	12.780000	361.000000	0.000000	98.000000	59.000000	76.000000	102.000000
0.260000	52.960000	13.530000	345.000000	0.000000	97.000000	59.000000	76.000000	75.000000
0.270000	53.480000	14.110000	337.000000	0.000000	97.000000	59.000000	52.000000	58.000000
0.280000	53.850000	14.420000	325.000000	0.000000	97.000000	59.000000	37.000000	31.000000
0.290000	54.040000	14.500000	325.000000	0.000000	97.000000	59.000000	19.000000	8.000000
0.300000	54.040000	14.440000	333.000000	0.000000	96.000000	58.000000	0.000000	-6.000000
0.310000	53.960000	14.130000	334.000000	0.000000	96.000000	58.000000	-8.000000	-31.000000
0.320000	53.730000	13.760000	333.000000	0.000000	96.000000	58.000000	-23.000000	-37.000000
0.330000	53.460000	13.280000	340.000000	0.000000	96.000000	58.000000	-27.000000	-48.000000
0.340000	53.170000	12.750000	335.000000	0.000000	96.000000	58.000000	-29.000000	-53.000000
0.350000	53.010000	12.420000	332.000000	0.000000	95.000000	58.000000	-16.000000	-33.000000
0.360000	53.010000	12.220000	312.000000	0.000000	95.000000	58.000000	0.000000	-20.000000
0.370000	53.010000	12.220000	275.000000	0.000000	95.000000	58.000000	0.000000	0.000000
0.380000	53.110000	12.270000	242.000000	0.000000	95.000000	59.000000	10.000000	5.000000
0.390000	53.210000	12.420000	239.000000	0.000000	95.000000	59.000000	10.000000	15.000000
0.400000	53.370000	12.770000	216.000000	0.000000	95.000000	59.000000	16.000000	35.000000
0.410000	53.550000	13.170000	210.000000	0.000000	95.000000	59.000000	18.000000	40.000000
0.420000	53.740000	13.610000	200.000000	0.000000	95.000000	59.000000	19.000000	44.000000
0.430000	53.830000	13.860000	220.000000	0.000000	95.000000	59.000000	9.000000	25.000000
0.440000	53.830000	14.060000	228.000000	0.000000	95.000000	59.000000	0.000000	20.000000
0.450000	53.830000	14.170000	249.000000	0.000000	95.000000	58.000000	0.000000	11.000000
0.460000	53.760000	14.170000	254.000000	0.000000	95.000000	58.000000	-7.000000	0.000000
0.470000	53.650000	14.070000	256.000000	0.000000	95.000000	58.000000	-11.000000	-10.000000
0.480000	53.600000	13.900000	254.000000	0.000000	95.000000	58.000000	-5.000000	-17.000000
0.490000	53.550000	13.780000	249.000000	0.000000	96.000000	58.000000	-5.000000	-12.000000
0.500000	53.630000	13.690000	244.000000	0.000000	96.000000	58.000000	8.000000	-9.000000
0.510000	53.800000	13.690000	247.000000	0.000000	96.000000	58.000000	17.000000	0.000000
0.520000	54.020000	13.770000	253.000000	0.000000	96.000000	58.000000	22.000000	8.000000
0.530000	54.260000	13.880000	247.000000	0.000000	96.000000	58.000000	24.000000	11.000000
0.540000	54.520000	13.940000	272.000000	0.000000	96.000000	58.000000	26.000000	6.000000
0.550000	54.780000	14.000000	276.000000	0.000000	95.000000	58.000000	26.000000	6.000000
0.560000	55.020000	14.050000	284.000000	0.000000	95.000000	58.000000	24.000000	5.000000
0.570000	55.260000	14.050000	291.000000	0.000000	95.000000	58.000000	24.000000	0.000000
0.580000	55.390000	14.050000	299.000000	0.000000	95.000000	58.000000	13.000000	0.000000
0.590000	55.440000	14.050000	304.000000	0.000000	95.000000	58.000000	5.000000	0.000000
0.600000	55.440000	13.890000	322.000000	0.000000	95.000000	58.000000	0.000000	-16.000000
0.610000	55.230000	13.560000	330.000000	0.000000	95.000000	58.000000	-21.000000	-33.000000
0.620000	54.980000	13.130000	353.000000	0.000000	95.000000	58.000000	-25.000000	-43.000000
0.630000	54.800000	12.810000	356.000000	0.000000	95.000000	58.000000	-18.000000	-32.000000
0.640000	54.800000	12.630000	341.000000	0.000000	93.000000	58.000000	0.000000	-18.000000
0.650000	54.800000	12.540000	317.000000	0.000000	93.000000	58.000000	0.000000	-9.000000
0.660000	54.930000	12.540000	317.000000	0.000000	93.000000	58.000000	13.000000	0.000000
0.670000	55.080000	12.710000	314.000000	0.000000	93.000000	58.000000	15.000000	17.000000
0.680000	55.270000	12.890000	311.000000	0.000000	93.000000	58.000000	19.000000	18.000000
0.690000	55.480000	13.050000	309.000000	0.000000	93.000000	58.000000	21.000000	16.000000
0.700000	55.700000	13.210000	309.000000	0.000000	93.000000	58.000000	22.000000	16.000000
0.710000	55.920000	13.380000	309.000000	0.000000	93.000000	58.000000	22.000000	17.000000
0.720000	56.140000	13.590000	311.000000	0.000000	93.000000	58.000000	22.000000	21.000000
0.730000	56.380000	13.810000	311.000000	0.000000	93.000000	59.000000	24.000000	22.000000
0.740000	56.540000	14.030000	309.000000	0.000000	93.000000	59.000000	16.000000	22.000000
0.750000	56.640000	14.190000	337.000000	0.000000	93.000000	59.000000	10.000000	16.000000
0.760000	56.640000	14.190000	374.000000	0.000000	93.000000	59.000000	0.000000	0.000000
0.770000	56.440000	14.190000	391.000000	0.000000	93.000000	59.000000	-20.000000	0.000000
0.780000	56.180000	13.880000	447.000000	0.000000	93.000000	59.000000	-26.000000	-31.000000
0.790000	55.850000	13.570000	472.000000	0.000000	93.000000	59.000000	-33.000000	-31.000000
0.800000	55.540000	13.160000	509.000000	0.000000	93.000000	59.000000	-31.000000	-41.000000
0.810000	55.290000	12.690000	509.000000	0.000000	93.000000	59.000000	-25.000000	-47.000000
0.820000	55.230000	12.420000	489.000000	0.000000	93.000000	59.000000	-6.000000	-27.000000
0.830000	55.290000	12.230000	452.000000	0.000000	93.000000	59.000000	6.000000	-19.000000
0.840000	55.450000	12.100000	374.000000	0.000000	93.000000	59.000000	16.000000	-13.000000
0.850000	55.630000	12.100000	284.000000	0.000000	92.000000	59.000000	18.000000	0.000000
0.860000	55.820000	12.320000	143.000000	0.000000	92.000000	59.000000	19.000000	22.000000
0.870000	55.820000	12.320000	0.000000	1.000000	92.000000	59.000000	0.000000	0.000000
0.880000	56.470000	13.130000	0.000000	0.000000	92.000000	59.000000	65.000000	81.000000
0.890000	56.800000	13.600000	0.000000	0.000000	92.000000	59.000000	33.000000	47.000000
0.900000	57.100000	14.130000	0.000000	0.000000	92.000000	59.000000	30.000000	53.000000
0.910000	57.390000	14.710000	0.000000	0.000000	92.000000	59.000000	29.000000	58.000000
0.920000	57.730000	15.300000	0.000000	0.000000	93.000000	59.000000	34.000000	59.000000
0.930000	57.940000	15.870000	0.000000	0.000000	95.000000	59.000000	21.000000	57.000000
0.940000	57.940000	15.870000	36.000000	1.000000	97.000000	59.000000	0.000000	0.000000
0.950000	58.060000	16.430000	141.000000	0.000000	98.000000	58.000000	12.000000	56.000000
0.960000	57.960000	16.340000	214.000000	0.000000	100.000000	58.000000	-10.000000	-9.000000
0.970000	57.720000	16.080000	247.000000	0.000000	99.000000	57.000000	-24.000000	-26.000000
0.980000	57.550000	15.720000	249.000000	0.000000	99.000000	56.000000	-17.000000	-36.000000
0.990000	57.390000	15.310000	173.000000	0.000000	100.000000	56.000000	-16.000000	-41.000000
1.000000	57.390000	15.310000	0.000000	1.000000	99.000000	56.000000	0.000000	0.000000
1.010000	57.270000	14.520000	0.000000	0.000000	99.000000	56.000000	-12.000000	-79.000000
1.020000	57.350000	14.130000	0.000000	0.000000	99.000000	57.000000	8.000000	-39.000000
1.030000	57.440000	13.760000	0.000000	0.000000	98.000000	57.000000	9.000000	-37.000000
1.040000	57.530000	13.350000	0.000000	0.000000	96.000000	57.000000	9.000000	-41.000000
1.050000	57.640000	13.000000	0.000000	0.000000	95.000000	58.000000	11.000000	-35.000000
1.060000	57.800000	12.680000	0.000000	0.000000	95.000000	58.000000	16.000000	-32.000000
1.070000	57.930000	12.540000	0.000000	0.000000	93.000000	59.000000	13.000000	-14.000000
1.080000	58.050000	12.540000	0.000000	0.000000	93.000000	59.000000	12.000000	0.000000
1.090000	58.050000	12.540000	56.000000	1.000000	93.000000	58.000000	0.000000	0.000000
1.100000	58.420000	12.760000	117.000000	0.000000	93.000000	58.000000	37.000000	22.000000
1.110000	58.590000	13.130000	185.000000	0.000000	93.000000	58.000000	17.000000	37.000000
1.120000	58.880000	13.590000	277.000000	0.000000	93.000000	58.000000	29.000000	46.000000
1.130000	59.240000	14.260000	341.000000	0.000000	93.000000	58.000000	36.000000	67.000000
1.140000	59.650000	15.020000	371.000000	0.000000	93.000000	57.000000	41.000000	76.000000
1.150000	60.060000	15.840000	405.000000	0.000000	93.000000	57.000000	41.000000	82.000000
1.160000	60.420000	16.520000	414.000000	0.000000	93.000000	57.000000	36.000000	68.000000
1.170000	60.740000	16.890000	455.000000	0.000000	95.000000	57.000000	32.000000	37.000000
1.180000	60.870000	17.060000	492.000000	0.000000	96.000000	57.000000	13.000000	17.000000
1.190000	60.870000	16.980000	533.000000	0.000000	98.000000	57.000000	0.000000	-8.000000
1.200000	60.870000	16.610000	562.000000	0.000000	99.000000	56.000000	0.000000	-37.000000
1.210000	60.710000	16.040000	588.000000	0.000000	99.000000	56.000000	-16.000000	-57.000000
1.220000	60.540000	15.280000	597.000000	0.000000	99.000000	56.000000	-17.000000	-76.000000
1.230000	60.330000	14.460000	611.000000	0.000000	99.000000	56.000000	-21.000000	-82.000000
1.240000	60.220000	13.770000	597.000000	0.000000	97.000000	56.000000	-11.000000	-69.000000
1.250000	60.170000	13.200000	537.000000	0.000000	96.000000	56.000000	-5.000000	-57.000000
1.260000	60.170000	12.820000	469.000000	0.000000	94.000000	56.000000	0.000000	-38.000000
1.270000	60.300000	12.630000	334.000000	0.000000	93.000000	56.000000	13.000000	-19.000000
1.280000	60.380000	12.560000	173.000000	0.000000	91.000000	56.000000	8.000000	-7.000000
1.290000	60.380000	12.560000	0.000000	1.000000	90.000000	56.000000	0.000000	0.000000
1.300000	60.560000	12.770000	0.000000	0.000000	90.000000	57.000000	18.000000	21.000000
1.310000	60.560000	13.040000	0.000000	0.000000	90.000000	57.000000	0.000000	27.000000
1.320000	60.480000	13.370000	0.000000	0.000000	90.000000	57.000000	-8.000000	33.000000
1.330000	60.320000	13.700000	0.000000	0.000000	90.000000	57.000000	-16.000000	33.000000
1.340000	60.090000	14.020000	0.000000	0.000000	90.000000	57.000000	-23.000000	32.000000
1.350000	59.820000	14.290000	0.000000	0.000000	92.000000	58.000000	-27.000000	27.000000
1.360000	59.610000	14.350000	0.000000	0.000000	93.000000	58.000000	-21.000000	6.000000
1.370000	59.440000	14.260000	0.000000	0.000000	93.000000	58.000000	-17.000000	-9.000000
1.380000	59.340000	14.070000	0.000000	0.000000	93.000000	58.000000	-10.000000	-19.000000
1.390000	59.340000	14.070000	96.000000	1.000000	95.000000	58.000000	0.000000	0.000000
1.400000	59.270000	13.670000	155.000000	0.000000	95.000000	58.000000	-7.000000	-40.000000
1.410000	59.220000	13.460000	244.000000	0.000000	93.000000	58.000000	-5.000000	-21.000000
1.420000	59.360000	13.260000	281.000000	0.000000	93.000000	58.000000	14.000000	-20.000000
1.430000	59.600000	13.260000	299.000000	0.000000	93.000000	58.000000	24.000000	0.000000
1.440000	60.010000	13.350000	297.000000	0.000000	92.000000	58.000000	41.000000	9.000000
1.450000	60.570000	13.700000	297.000000	0.000000	92.000000	58.000000	56.000000	35.000000
1.460000	61.220000	14.200000	291.000000	0.000000	92.000000	58.000000	65.000000	50.000000
1.470000	61.960000	14.800000	281.000000	0.000000	92.000000	57.000000	74.000000	60.000000
1.480000	62.730000	15.530000	280.000000	0.000000	92.000000	57.000000	77.000000	73.000000
1.490000	63.360000	16.260000	259.000000	0.000000	92.000000	57.000000	63.000000	73.000000
1.500000	63.890000	16.950000	254.000000	0.000000	93.000000	57.000000	53.000000	69.000000
1.510000	64.250000	17.620000	259.000000	0.000000	95.000000	57.000000	36.000000	67.000000
1.520000	64.410000	18.010000	274.000000	0.000000	98.000000	57.000000	16.000000	39.000000
1.530000	64.410000	18.010000	291.000000	0.000000	99.000000	57.000000	0.000000	0.000000
1.540000	64.270000	17.840000	325.000000	0.000000	101.000000	57.000000	-14.000000	-17.000000
1.550000	63.940000	17.290000	366.000000	0.000000	102.000000	56.000000	-33.000000	-55.000000
1.560000	63.490000	16.410000	391.000000	0.000000	102.000000	56.000000	-45.000000	-88.000000
1.570000	62.900000	15.300000	433.000000	0.000000	102.000000	56.000000	-59.000000	-111.000000
1.580000	62.320000	14.170000	466.000000	0.000000	102.000000	56.000000	-58.000000	-113.000000
1.590000	62.000000	13.380000	464.000000	0.000000	101.000000	57.000000	-32.000000	-79.000000
1.600000	61.850000	12.810000	466.000000	0.000000	98.000000	57.000000	-15.000000	-57.000000
1.610000	62.030000	12.580000	448.000000	0.000000	96.000000	57.000000	18.000000	-23.000000
1.620000	62.230000	12.640000	443.000000	0.000000	93.000000	57.000000	20.000000	6.000000
1.630000	62.640000	12.900000	443.000000	0.000000	92.000000	57.000000	41.000000	26.000000
1.640000	63.180000	13.530000	430.000000	0.000000	90.000000	57.000000	54.000000	63.000000
1.650000	63.760000	14.320000	420.000000	0.000000	90.000000	57.000000	58.000000	79.000000
1.660000	64.310000	15.230000	396.000000	0.000000	90.000000	57.000000	55.000000	91.000000
1.670000	64.740000	16.160000	391.000000	0.000000	90.000000	57.000000	43.000000	93.000000
1.680000	65.090000	16.760000	391.000000	0.000000	92.000000	57.000000	35.000000	60.000000
1.690000	65.300000	17.140000	396.000000	0.000000	93.000000	57.000000	21.000000	38.000000
1.700000	65.300000	17.140000	392.000000	0.000000	95.000000	57.000000	0.000000	0.000000
1.710000	65.180000	16.800000	400.000000	0.000000	96.000000	57.000000	-12.000000	-34.000000
1.720000	64.890000	16.200000	414.000000	0.000000	98.000000	57.000000	-29.000000	-60.000000
1.730000	64.570000	15.420000	440.000000	0.000000	98.000000	57.000000	-32.000000	-78.000000
1.740000	64.230000	14.680000	458.000000	0.000000	98.000000	57.000000	-34.000000	-74.000000
1.750000	64.000000	13.980000	469.000000	0.000000	98.000000	57.000000	-23.000000	-70.000000
1.760000	63.940000	13.460000	456.000000	0.000000	96.000000	57.000000	-6.000000	-52.000000
1.770000	64.000000	13.170000	433.000000	0.000000	95.000000	57.000000	6.000000	-29.000000
1.780000	64.180000	13.040000	409.000000	0.000000	92.000000	57.000000	18.000000	-13.000000
1.790000	64.380000	13.040000	387.000000	0.000000	90.000000	57.000000	20.000000	0.000000
1.800000	64.660000	13.290000	348.000000	0.000000	90.000000	57.000000	28.000000	25.000000
1.810000	64.980000	13.670000	294.000000	0.000000	90.000000	57.000000	32.000000	38.000000
1.820000	65.240000	14.050000	249.000000	0.000000	88.000000	57.000000	26.000000	38.000000
1.830000	65.470000	14.290000	220.000000	0.000000	88.000000	57.000000	23.000000	24.000000
1.840000	65.610000	14.430000	195.000000	0.000000	88.000000	57.000000	14.000000	14.000000
1.850000	65.660000	14.430000	203.000000	0.000000	90.000000	57.000000	5.000000	0.000000
1.860000	65.660000	14.300000	212.000000	0.000000	90.000000	58.000000	0.000000	-13.000000
1.870000	65.660000	14.150000	207.000000	0.000000	90.000000	58.000000	0.000000	-15.000000
1.880000	65.730000	14.070000	223.000000	0.000000	90.000000	58.000000	7.000000	-8.000000
1.890000	65.850000	14.070000	235.000000	0.000000	90.000000	58.000000	12.000000	0.000000
1.900000	65.980000	14.070000	254.000000	0.000000	90.000000	58.000000	13.000000	0.000000
1.910000	66.100000	14.070000	249.000000	0.000000	90.000000	58.000000	12.000000	0.000000
1.920000	66.190000	14.210000	270.000000	0.000000	90.000000	58.000000	9.000000	14.000000
1.930000	66.190000	14.300000	297.000000	0.000000	90.000000	58.000000	0.000000	9.000000
1.940000	66.120000	14.370000	325.000000	0.000000	90.000000	58.000000	-7.000000	7.000000
1.950000	65.950000	14.370000	343.000000	0.000000	90.000000	58.000000	-17.000000	0.000000
1.960000	65.660000	14.370000	364.000000	0.000000	90.000000	58.000000	-29.000000	0.000000
1.970000	65.280000	14.190000	376.000000	0.000000	90.000000	58.000000	-38.000000	-18.000000
1.980000	64.910000	13.900000	389.000000	0.000000	90.000000	58.000000	-37.000000	-29.000000
1.990000	64.580000	13.530000	398.000000	0.000000	90.000000	58.000000	-33.000000	-37.000000
2.000000	64.460000	13.210000	386.000000	0.000000	90.000000	58.000000	-12.000000	-32.000000
2.010000	64.460000	12.900000	369.000000	0.000000	90.000000	58.000000	0.000000	-31.000000
2.020000	64.590000	12.620000	351.000000	0.000000	90.000000	58.000000	13.000000	-28.000000
2.030000	64.880000	12.550000	351.000000	0.000000	88.000000	58.000000	29.000000	-7.000000
2.040000	65.280000	12.550000	353.000000	0.000000	88.000000	58.000000	40.000000	0.000000
2.050000	65.760000	12.810000	354.000000	0.000000	88.000000	58.000000	48.000000	26.000000
2.060000	66.220000	13.130000	354.000000	0.000000	87.000000	58.000000	46.000000	32.000000
2.070000	66.610000	13.520000	354.000000	0.000000	87.000000	58.000000	39.000000	39.000000
2.080000	66.960000	13.840000	351.000000	0.000000	87.000000	58.000000	35.000000	32.000000
2.090000	67.210000	14.060000	356.000000	0.000000	87.000000	58.000000	25.000000	22.000000
2.100000	67.370000	14.210000	369.000000	0.000000	87.000000	58.000000	16.000000	15.000000
2.110000	67.460000	14.270000	392.000000	0.000000	87.000000	58.000000	9.000000	6.000000
2.120000	67.460000	14.170000	422.000000	0.000000	88.000000	58.000000	0.000000	-10.000000
2.130000	67.260000	13.970000	450.000000	0.000000	88.000000	58.000000	-20.000000	-20.000000
2.140000	66.990000	13.580000	483.000000	0.000000	88.000000	58.000000	-27.000000	-39.000000
2.150000	66.750000	13.220000	501.000000	0.000000	88.000000	58.000000	-24.000000	-36.000000
2.160000	66.560000	12.890000	492.000000	0.000000	88.000000	58.000000	-19.000000	-33.000000
2.170000	66.440000	12.580000	491.000000	0.000000	87.000000	58.000000	-12.000000	-31.000000
2.180000	66.390000	12.340000	475.000000	0.000000	87.000000	58.000000	-5.000000	-24.000000
2.190000	66.390000	12.210000	440.000000	0.000000	87.000000	58.000000	0.000000	-13.000000
2.200000	66.390000	12.130000	327.000000	0.000000	87.000000	58.000000	0.000000	-8.000000
2.210000	66.440000	12.080000	217.000000	0.000000	85.000000	58.000000	5.000000	-5.000000
2.220000	66.530000	12.200000	1.000000	1.000000	85.000000	58.000000	0.000000	0.000000
