t	x	y	pressure	penup	azimuth	inclination	v_x	v_y
0.000000	49.420000	8.710000	148.000000	1.000000	142.000000	53.000000	0.000000	0.000000
0.010000	49.560000	8.330000	287.000000	0.000000	142.000000	53.000000	14.000000	-38.000000
0.020000	49.680000	8.250000	369.000000	0.000000	142.000000	53.000000	12.000000	-8.000000
0.030000	49.820000	8.250000	443.000000	0.000000	141.000000	53.000000	14.000000	0.000000
0.040000	49.970000	8.320000	477.000000	0.000000	141.000000	53.000000	15.000000	7.000000
0.050000	50.230000	8.530000	512.000000	0.000000	141.000000	53.000000	26.000000	21.000000
0.060000	50.590000	8.840000	518.000000	0.000000	139.000000	54.000000	36.000000	31.000000
0.070000	51.020000	9.330000	546.000000	0.000000	139.000000	54.000000	43.000000	49.000000
0.080000	51.440000	9.850000	561.000000	0.000000	137.000000	54.000000	42.000000	52.000000
0.090000	51.810000	10.400000	592.000000	0.000000	137.000000	54.000000	37.000000	55.000000
0.100000	52.150000	10.980000	627.000000	0.000000	136.000000	55.000000	34.000000	58.000000
0.110000	52.400000	11.710000	636.000000	0.000000	136.000000	56.000000	25.000000	73.000000
0.120000	52.610000	12.550000	641.000000	0.000000	135.000000	57.000000	21.000000	84.000000
0.130000	52.780000	13.200000	670.000000	0.000000	134.000000	57.000000	17.000000	65.000000
0.140000	52.850000	13.570000	666.000000	0.000000	134.000000	57.000000	7.000000	37.000000
0.150000	52.850000	13.760000	662.000000	0.000000	134.000000	57.000000	0.000000	19.000000
0.160000	52.850000	13.700000	670.000000	0.000000	134.000000	57.000000	0.000000	-6.000000
0.170000	52.850000	13.260000	667.000000	0.000000	134.000000	57.000000	0.000000	-44.000000
0.180000	52.750000	12.560000	661.000000	0.000000	134.000000	57.000000	-10.000000	-70.000000
0.190000	52.600000	11.680000	655.000000	0.000000	134.000000	57.000000	-15.000000	-88.000000
0.200000	52.510000	10.820000	655.000000	0.000000	134.000000	57.000000	-9.000000	-86.000000
0.210000	52.330000	10.050000	655.000000	0.000000	134.000000	57.000000	-18.000000	-77.000000
0.220000	52.090000	9.330000	650.000000	0.000000	134.000000	57.000000	-24.000000	-72.000000
0.230000	51.810000	8.720000	647.000000	0.000000	135.000000	57.000000	-28.000000	-61.000000
0.240000	51.700000	8.410000	606.000000	0.000000	136.000000	57.000000	-11.000000	-31.000000
0.250000	51.700000	8.290000	561.000000	0.000000	138.000000	57.000000	0.000000	-12.000000
0.260000	51.700000	8.350000	521.000000	0.000000	139.000000	56.000000	0.000000	6.000000
0.270000	51.760000	8.540000	477.000000	0.000000	140.000000	55.000000	6.000000	19.000000
0.280000	52.000000	8.810000	431.000000	0.000000	140.000000	55.000000	24.000000	27.000000
0.290000	52.360000	9.260000	367.000000	0.000000	140.000000	55.000000	36.000000	45.000000
0.300000	52.860000	9.740000	339.000000	0.000000	140.000000	55.000000	50.000000	48.000000
0.310000	53.300000	10.240000	343.000000	0.000000	140.000000	55.000000	44.000000	50.000000
0.320000	53.690000	10.610000	379.000000	0.000000	140.000000	55.000000	39.000000	37.000000
0.330000	53.930000	10.820000	440.000000	0.000000	140.000000	56.000000	24.000000	21.000000
0.340000	54.020000	10.920000	526.000000	0.000000	139.000000	57.000000	9.000000	10.000000
0.350000	54.020000	10.920000	577.000000	0.000000	138.000000	58.000000	0.000000	0.000000
0.360000	54.020000	10.920000	597.000000	0.000000	136.000000	58.000000	0.000000	0.000000
0.370000	53.920000	10.810000	605.000000	0.000000	136.000000	58.000000	-10.000000	-11.000000
0.380000	53.810000	10.660000	613.000000	0.000000	136.000000	58.000000	-11.000000	-15.000000
0.390000	53.810000	10.420000	609.000000	0.000000	136.000000	58.000000	0.000000	-24.000000
0.400000	53.870000	10.210000	594.000000	0.000000	136.000000	58.000000	6.000000	-21.000000
0.410000	53.990000	10.020000	592.000000	0.000000	136.000000	58.000000	12.000000	-19.000000
0.420000	54.210000	10.020000	575.000000	0.000000	136.000000	58.000000	22.000000	0.000000
0.430000	54.500000	10.070000	563.000000	0.000000	136.000000	58.000000	29.000000	5.000000
0.440000	54.830000	10.230000	560.000000	0.000000	138.000000	58.000000	33.000000	16.000000
0.450000	55.140000	10.490000	567.000000	0.000000	138.000000	58.000000	31.000000	26.000000
0.460000	55.380000	10.780000	560.000000	0.000000	136.000000	58.000000	24.000000	29.000000
0.470000	55.580000	11.090000	561.000000	0.000000	136.000000	58.000000	20.000000	31.000000
0.480000	55.740000	11.440000	570.000000	0.000000	136.000000	58.000000	16.000000	35.000000
0.490000	55.840000	11.790000	580.000000	0.000000	135.000000	59.000000	10.000000	35.000000
0.500000	55.890000	12.130000	578.000000	0.000000	135.000000	59.000000	5.000000	34.000000
0.510000	55.890000	12.350000	588.000000	0.000000	135.000000	59.000000	0.000000	22.000000
0.520000	55.820000	12.440000	594.000000	0.000000	135.000000	59.000000	-7.000000	9.000000
0.530000	55.740000	12.440000	631.000000	0.000000	135.000000	59.000000	-8.000000	0.000000
0.540000	55.670000	12.440000	644.000000	0.000000	135.000000	59.000000	-7.000000	0.000000
0.550000	55.540000	12.360000	670.000000	0.000000	135.000000	59.000000	-13.000000	-8.000000
0.560000	55.370000	12.300000	696.000000	0.000000	135.000000	59.000000	-17.000000	-6.000000
0.570000	55.220000	12.160000	722.000000	0.000000	135.000000	59.000000	-15.000000	-14.000000
0.580000	55.120000	12.030000	724.000000	0.000000	135.000000	59.000000	-10.000000	-13.000000
0.590000	55.120000	12.030000	727.000000	0.000000	135.000000	59.000000	0.000000	0.000000
0.600000	55.120000	12.030000	724.000000	0.000000	135.000000	59.000000	0.000000	0.000000
0.610000	55.120000	12.030000	720.000000	0.000000	135.000000	59.000000	0.000000	0.000000
0.620000	55.120000	12.030000	733.000000	0.000000	135.000000	59.000000	0.000000	0.000000
0.630000	55.120000	12.030000	721.000000	0.000000	135.000000	59.000000	0.000000	0.000000
0.640000	55.120000	12.030000	728.000000	0.000000	135.000000	59.000000	0.000000	0.000000
0.650000	55.170000	12.080000	751.000000	0.000000	135.000000	59.000000	5.000000	5.000000
0.660000	55.170000	12.080000	794.000000	0.000000	135.000000	59.000000	0.000000	0.000000
0.670000	55.170000	12.080000	818.000000	0.000000	135.000000	59.000000	0.000000	0.000000
0.680000	55.120000	12.080000	833.000000	0.000000	135.000000	59.000000	-5.000000	0.000000
0.690000	55.120000	12.080000	836.000000	0.000000	135.000000	59.000000	0.000000	0.000000
0.700000	55.050000	12.080000	828.000000	0.000000	135.000000	59.000000	-7.000000	0.000000
0.710000	54.910000	12.080000	818.000000	0.000000	135.000000	59.000000	-14.000000	0.000000
0.720000	54.710000	12.080000	818.000000	0.000000	135.000000	59.000000	-20.000000	0.000000
0.730000	54.540000	12.080000	818.000000	0.000000	135.000000	59.000000	-17.000000	0.000000
0.740000	54.300000	11.990000	819.000000	0.000000	135.000000	59.000000	-24.000000	-9.000000
0.750000	54.000000	11.820000	817.000000	0.000000	135.000000	59.000000	-30.000000	-17.000000
0.760000	53.770000	11.520000	830.000000	0.000000	135.000000	59.000000	-23.000000	-30.000000
0.770000	53.550000	11.190000	805.000000	0.000000	135.000000	59.000000	-22.000000	-33.000000
0.780000	53.480000	10.970000	767.000000	0.000000	136.000000	58.000000	-7.000000	-22.000000
0.790000	53.480000	10.830000	697.000000	0.000000	136.000000	58.000000	0.000000	-14.000000
0.800000	53.580000	10.620000	659.000000	0.000000	136.000000	58.000000	10.000000	-21.000000
0.810000	53.780000	10.490000	603.000000	0.000000	136.000000	58.000000	20.000000	-13.000000
0.820000	54.060000	10.490000	577.000000	0.000000	138.000000	58.000000	28.000000	0.000000
0.830000	54.320000	10.490000	529.000000	0.000000	138.000000	58.000000	26.000000	0.000000
0.840000	54.570000	10.540000	510.000000	0.000000	138.000000	58.000000	25.000000	5.000000
0.850000	54.800000	10.540000	472.000000	0.000000	138.000000	58.000000	23.000000	0.000000
0.860000	55.040000	10.540000	450.000000	0.000000	138.000000	58.000000	24.000000	0.000000
0.870000	55.290000	10.620000	409.000000	0.000000	138.000000	58.000000	25.000000	8.000000
0.880000	55.560000	10.720000	371.000000	0.000000	138.000000	58.000000	27.000000	10.000000
0.890000	55.850000	10.880000	364.000000	0.000000	136.000000	58.000000	29.000000	16.000000
0.900000	56.200000	11.110000	359.000000	0.000000	138.000000	59.000000	35.000000	23.000000
0.910000	56.550000	11.400000	373.000000	0.000000	138.000000	59.000000	35.000000	29.000000
0.920000	56.810000	11.780000	402.000000	0.000000	136.000000	60.000000	26.000000	38.000000
0.930000	57.020000	12.130000	450.000000	0.000000	136.000000	60.000000	21.000000	35.000000
0.940000	57.240000	12.440000	519.000000	0.000000	136.000000	60.000000	22.000000	31.000000
0.950000	57.360000	12.690000	570.000000	0.000000	136.000000	60.000000	12.000000	25.000000
0.960000	57.360000	12.870000	611.000000	0.000000	136.000000	60.000000	0.000000	18.000000
0.970000	57.360000	12.980000	636.000000	0.000000	136.000000	60.000000	0.000000	11.000000
0.980000	57.360000	13.040000	647.000000	0.000000	136.000000	60.000000	0.000000	6.000000
0.990000	57.360000	13.040000	641.000000	0.000000	136.000000	60.000000	0.000000	0.000000
1.000000	57.360000	12.960000	641.000000	0.000000	136.000000	60.000000	0.000000	-8.000000
1.010000	57.360000	12.810000	638.000000	0.000000	136.000000	60.000000	0.000000	-15.000000
1.020000	57.430000	12.620000	641.000000	0.000000	136.000000	60.000000	7.000000	-19.000000
1.030000	57.490000	12.390000	638.000000	0.000000	136.000000	60.000000	6.000000	-23.000000
1.040000	57.670000	12.260000	638.000000	0.000000	136.000000	60.000000	18.000000	-13.000000
1.050000	57.930000	12.180000	638.000000	0.000000	136.000000	60.000000	26.000000	-8.000000
1.060000	58.090000	12.060000	636.000000	0.000000	136.000000	60.000000	16.000000	-12.000000
1.070000	58.260000	11.900000	630.000000	0.000000	135.000000	59.000000	17.000000	-16.000000
1.080000	58.420000	11.700000	610.000000	0.000000	135.000000	59.000000	16.000000	-20.000000
1.090000	58.420000	11.470000	603.000000	0.000000	135.000000	59.000000	0.000000	-23.000000
1.100000	58.420000	11.230000	580.000000	0.000000	134.000000	58.000000	0.000000	-24.000000
1.110000	58.280000	11.000000	556.000000	0.000000	134.000000	58.000000	-14.000000	-23.000000
1.120000	58.080000	10.920000	514.000000	0.000000	132.000000	58.000000	-20.000000	-8.000000
1.130000	57.840000	10.920000	514.000000	0.000000	132.000000	58.000000	-24.000000	0.000000
1.140000	57.620000	11.010000	514.000000	0.000000	132.000000	58.000000	-22.000000	9.000000
1.150000	57.450000	11.120000	512.000000	0.000000	134.000000	58.000000	-17.000000	11.000000
1.160000	57.360000	11.250000	516.000000	0.000000	134.000000	58.000000	-9.000000	13.000000
1.170000	57.360000	11.250000	507.000000	0.000000	135.000000	59.000000	0.000000	0.000000
1.180000	57.420000	11.300000	483.000000	0.000000	136.000000	60.000000	6.000000	5.000000
1.190000	57.670000	11.300000	438.000000	0.000000	136.000000	60.000000	25.000000	0.000000
1.200000	58.030000	11.440000	367.000000	0.000000	138.000000	60.000000	36.000000	14.000000
1.210000	58.440000	11.540000	312.000000	0.000000	138.000000	60.000000	41.000000	10.000000
1.220000	58.830000	11.680000	312.000000	0.000000	136.000000	60.000000	39.000000	14.000000
1.230000	59.170000	11.840000	312.000000	0.000000	136.000000	60.000000	34.000000	16.000000
1.240000	59.480000	12.000000	327.000000	0.000000	135.000000	59.000000	31.000000	16.000000
1.250000	59.770000	12.210000	361.000000	0.000000	135.000000	59.000000	29.000000	21.000000
1.260000	60.030000	12.460000	402.000000	0.000000	135.000000	59.000000	26.000000	25.000000
1.270000	60.260000	12.830000	468.000000	0.000000	134.000000	58.000000	23.000000	37.000000
1.280000	60.370000	13.080000	537.000000	0.000000	134.000000	58.000000	11.000000	25.000000
1.290000	60.320000	13.250000	585.000000	0.000000	134.000000	58.000000	-5.000000	17.000000
1.300000	60.150000	13.300000	634.000000	0.000000	134.000000	58.000000	-17.000000	5.000000
1.310000	59.870000	13.300000	672.000000	0.000000	134.000000	58.000000	-28.000000	0.000000
1.320000	59.610000	13.120000	696.000000	0.000000	134.000000	58.000000	-26.000000	-18.000000
1.330000	59.400000	12.850000	699.000000	0.000000	134.000000	58.000000	-21.000000	-27.000000
1.340000	59.330000	12.580000	700.000000	0.000000	134.000000	58.000000	-7.000000	-27.000000
1.350000	59.330000	12.270000	679.000000	0.000000	134.000000	58.000000	0.000000	-31.000000
1.360000	59.390000	11.910000	641.000000	0.000000	134.000000	58.000000	6.000000	-36.000000
1.370000	59.690000	11.790000	561.000000	0.000000	134.000000	58.000000	30.000000	-12.000000
1.380000	60.160000	11.790000	273.000000	0.000000	132.000000	59.000000	47.000000	0.000000
1.390000	60.160000	11.790000	0.000000	1.000000	132.000000	59.000000	0.000000	0.000000
1.400000	60.890000	12.120000	0.000000	0.000000	132.000000	59.000000	73.000000	33.000000
1.410000	61.170000	12.350000	0.000000	0.000000	132.000000	59.000000	28.000000	23.000000
1.420000	61.440000	12.740000	0.000000	0.000000	134.000000	58.000000	27.000000	39.000000
1.430000	61.730000	13.150000	0.000000	0.000000	135.000000	58.000000	29.000000	41.000000
1.440000	62.170000	13.580000	0.000000	0.000000	136.000000	57.000000	44.000000	43.000000
1.450000	62.710000	13.850000	0.000000	0.000000	139.000000	56.000000	54.000000	27.000000
1.460000	63.380000	14.110000	0.000000	0.000000	140.000000	55.000000	67.000000	26.000000
1.470000	64.260000	14.350000	0.000000	0.000000	144.000000	54.000000	88.000000	24.000000
1.480000	65.270000	14.610000	0.000000	0.000000	146.000000	53.000000	101.000000	26.000000
1.490000	66.270000	14.880000	0.000000	0.000000	147.000000	52.000000	100.000000	27.000000
1.500000	66.910000	14.880000	0.000000	0.000000	149.000000	52.000000	64.000000	0.000000
1.510000	67.320000	14.640000	0.000000	0.000000	150.000000	52.000000	41.000000	-24.000000
1.520000	67.320000	14.280000	0.000000	0.000000	153.000000	52.000000	0.000000	-36.000000
1.530000	67.050000	13.970000	0.000000	0.000000	154.000000	52.000000	-27.000000	-31.000000
1.540000	66.620000	13.800000	0.000000	0.000000	154.000000	53.000000	-43.000000	-17.000000
1.550000	66.210000	13.730000	0.000000	0.000000	154.000000	53.000000	-41.000000	-7.000000
1.560000	65.840000	13.780000	0.000000	0.000000	154.000000	53.000000	-37.000000	5.000000
1.570000	65.540000	13.870000	0.000000	0.000000	153.000000	54.000000	-30.000000	9.000000
1.580000	65.290000	14.000000	0.000000	0.000000	152.000000	54.000000	-25.000000	13.000000
1.590000	65.110000	14.140000	0.000000	0.000000	151.000000	54.000000	-18.000000	14.000000
1.600000	65.060000	14.300000	0.000000	0.000000	150.000000	54.000000	-5.000000	16.000000
1.610000	65.060000	14.470000	0.000000	0.000000	148.000000	54.000000	0.000000	17.000000
1.620000	65.060000	14.470000	0.000000	0.000000	146.000000	54.000000	0.000000	0.000000
1.630000	65.060000	14.470000	0.000000	0.000000	146.000000	54.000000	0.000000	0.000000
1.640000	65.060000	14.470000	0.000000	0.000000	146.000000	54.000000	0.000000	0.000000
1.650000	65.060000	14.470000	66.000000	1.000000	144.000000	54.000000	0.000000	0.000000
1.660000	64.750000	14.470000	137.000000	0.000000	144.000000	54.000000	-31.000000	0.000000
1.670000	64.490000	14.390000	246.000000	0.000000	143.000000	55.000000	-26.000000	-8.000000
1.680000	64.250000	14.260000	329.000000	0.000000	141.000000	56.000000	-24.000000	-13.000000
1.690000	64.080000	13.900000	368.000000	0.000000	141.000000	56.000000	-17.000000	-36.000000
1.700000	63.770000	13.400000	414.000000	0.000000	140.000000	56.000000	-31.000000	-50.000000
1.710000	63.370000	12.500000	441.000000	0.000000	139.000000	57.000000	-40.000000	-90.000000
1.720000	63.010000	11.590000	449.000000	0.000000	138.000000	58.000000	-36.000000	-91.000000
1.730000	62.660000	11.020000	449.000000	0.000000	138.000000	58.000000	-35.000000	-57.000000
1.740000	62.350000	10.690000	450.000000	0.000000	136.000000	58.000000	-31.000000	-33.000000
1.750000	62.290000	10.690000	493.000000	0.000000	136.000000	58.000000	-6.000000	0.000000
1.760000	62.390000	10.740000	496.000000	0.000000	134.000000	58.000000	10.000000	5.000000
1.770000	62.330000	10.920000	496.000000	0.000000	134.000000	58.000000	-6.000000	18.000000
1.780000	62.330000	11.200000	495.000000	0.000000	134.000000	58.000000	0.000000	28.000000
1.790000	62.540000	11.790000	488.000000	0.000000	134.000000	58.000000	21.000000	59.000000
1.800000	62.970000	12.600000	488.000000	0.000000	134.000000	58.000000	43.000000	81.000000
1.810000	63.360000	13.330000	493.000000	0.000000	134.000000	58.000000	39.000000	73.000000
1.820000	63.750000	14.040000	514.000000	0.000000	134.000000	58.000000	39.000000	71.000000
1.830000	64.140000	14.470000	562.000000	0.000000	134.000000	58.000000	39.000000	43.000000
1.840000	64.360000	14.720000	606.000000	0.000000	136.000000	58.000000	22.000000	25.000000
1.850000	64.480000	14.650000	634.000000	0.000000	136.000000	58.000000	12.000000	-7.000000
1.860000	64.480000	14.350000	652.000000	0.000000	138.000000	58.000000	0.000000	-30.000000
1.870000	64.380000	13.910000	664.000000	0.000000	138.000000	58.000000	-10.000000	-44.000000
1.880000	64.230000	13.210000	673.000000	0.000000	138.000000	58.000000	-15.000000	-70.000000
1.890000	63.870000	12.430000	637.000000	0.000000	139.000000	57.000000	-36.000000	-78.000000
1.900000	63.510000	11.590000	563.000000	0.000000	138.000000	58.000000	-36.000000	-84.000000
1.910000	63.200000	11.050000	440.000000	0.000000	138.000000	58.000000	-31.000000	-54.000000
1.920000	62.970000	10.860000	336.000000	0.000000	136.000000	58.000000	-23.000000	-19.000000
1.930000	62.970000	10.860000	256.000000	0.000000	136.000000	58.000000	0.000000	0.000000
1.940000	62.970000	11.070000	200.000000	0.000000	135.000000	59.000000	0.000000	21.000000
1.950000	62.870000	11.330000	220.000000	0.000000	135.000000	59.000000	-10.000000	26.000000
1.960000	62.940000	11.640000	255.000000	0.000000	135.000000	59.000000	7.000000	31.000000
1.970000	63.140000	12.110000	358.000000	0.000000	135.000000	59.000000	20.000000	47.000000
1.980000	63.300000	12.410000	393.000000	0.000000	135.000000	59.000000	16.000000	30.000000
1.990000	63.430000	12.410000	420.000000	0.000000	135.000000	59.000000	13.000000	0.000000
2.000000	63.550000	12.260000	461.000000	0.000000	135.000000	59.000000	12.000000	-15.000000
2.010000	63.750000	12.070000	463.000000	0.000000	135.000000	59.000000	20.000000	-19.000000
2.020000	63.930000	11.910000	453.000000	0.000000	135.000000	59.000000	18.000000	-16.000000
2.030000	64.110000	11.770000	412.000000	0.000000	135.000000	59.000000	18.000000	-14.000000
2.040000	64.300000	11.640000	345.000000	0.000000	135.000000	59.000000	19.000000	-13.000000
2.050000	64.430000	11.520000	270.000000	0.000000	135.000000	59.000000	13.000000	-12.000000
2.060000	64.520000	11.310000	259.000000	0.000000	136.000000	60.000000	9.000000	-21.000000
2.070000	64.690000	11.110000	259.000000	0.000000	136.000000	60.000000	17.000000	-20.000000
2.080000	64.870000	10.980000	264.000000	0.000000	136.000000	60.000000	18.000000	-13.000000
2.090000	65.080000	10.890000	270.000000	0.000000	136.000000	60.000000	21.000000	-9.000000
2.100000	65.310000	10.940000	279.000000	0.000000	136.000000	60.000000	23.000000	5.000000
2.110000	65.540000	11.200000	267.000000	0.000000	136.000000	60.000000	23.000000	26.000000
2.120000	65.760000	11.590000	247.000000	0.000000	136.000000	60.000000	22.000000	39.000000
2.130000	65.960000	12.190000	245.000000	0.000000	136.000000	60.000000	20.000000	60.000000
2.140000	66.070000	12.770000	254.000000	0.000000	136.000000	60.000000	11.000000	58.000000
2.150000	66.130000	13.290000	277.000000	0.000000	136.000000	60.000000	6.000000	52.000000
2.160000	66.130000	13.790000	276.000000	0.000000	136.000000	60.000000	0.000000	50.000000
2.170000	66.260000	14.290000	279.000000	0.000000	138.000000	59.000000	13.000000	50.000000
2.180000	66.340000	14.880000	279.000000	0.000000	138.000000	59.000000	8.000000	59.000000
2.190000	66.410000	15.530000	244.000000	0.000000	139.000000	58.000000	7.000000	65.000000
2.200000	66.410000	15.960000	254.000000	0.000000	140.000000	58.000000	0.000000	43.000000
2.210000	66.290000	16.010000	245.000000	0.000000	142.000000	57.000000	-12.000000	5.000000
