t	x	y	pressure	penup	azimuth	inclination	v_x	v_y
0.000000	51.890000	83.090000	105.000000	1.000000	122.000000	54.000000	0.000000	0.000000
0.010000	51.480000	82.630000	183.000000	0.000000	122.000000	54.000000	-41.000000	-46.000000
0.020000	51.280000	82.460000	249.000000	0.000000	123.000000	55.000000	-20.000000	-17.000000
0.030000	51.220000	82.320000	301.000000	0.000000	123.000000	55.000000	-6.000000	-14.000000
0.040000	51.220000	82.320000	333.000000	0.000000	123.000000	55.000000	0.000000	0.000000
0.050000	51.470000	82.500000	361.000000	0.000000	123.000000	55.000000	25.000000	18.000000
0.060000	51.910000	82.730000	362.000000	0.000000	123.000000	55.000000	44.000000	23.000000
0.070000	52.490000	83.290000	367.000000	0.000000	123.000000	55.000000	58.000000	56.000000
0.080000	53.150000	84.040000	364.000000	0.000000	123.000000	55.000000	66.000000	75.000000
0.090000	53.790000	84.930000	374.000000	0.000000	121.000000	55.000000	64.000000	89.000000
0.100000	54.440000	85.710000	367.000000	0.000000	121.000000	55.000000	65.000000	78.000000
0.110000	54.940000	86.430000	367.000000	0.000000	121.000000	55.000000	50.000000	72.000000
0.120000	55.350000	86.730000	371.000000	0.000000	120.000000	55.000000	41.000000	30.000000
0.130000	55.560000	86.780000	387.000000	0.000000	120.000000	55.000000	21.000000	5.000000
0.140000	55.560000	86.510000	397.000000	0.000000	117.000000	55.000000	0.000000	-27.000000
0.150000	55.460000	85.710000	400.000000	0.000000	117.000000	55.000000	-10.000000	-80.000000
0.160000	55.080000	84.550000	402.000000	0.000000	116.000000	55.000000	-38.000000	-116.000000
0.170000	54.590000	83.090000	398.000000	0.000000	116.000000	55.000000	-49.000000	-146.000000
0.180000	54.030000	81.700000	398.000000	0.000000	116.000000	55.000000	-56.000000	-139.000000
0.190000	53.440000	80.370000	391.000000	0.000000	116.000000	55.000000	-59.000000	-133.000000
0.200000	52.900000	79.060000	372.000000	0.000000	117.000000	55.000000	-54.000000	-131.000000
0.210000	52.440000	78.140000	368.000000	0.000000	117.000000	55.000000	-46.000000	-92.000000
0.220000	52.160000	77.470000	344.000000	0.000000	117.000000	55.000000	-28.000000	-67.000000
0.230000	51.990000	77.300000	299.000000	0.000000	116.000000	55.000000	-17.000000	-17.000000
0.240000	51.990000	77.350000	265.000000	0.000000	116.000000	55.000000	0.000000	5.000000
0.250000	52.160000	77.560000	215.000000	0.000000	116.000000	55.000000	17.000000	21.000000
0.260000	52.420000	78.230000	127.000000	0.000000	115.000000	55.000000	26.000000	67.000000
0.270000	52.860000	79.250000	107.000000	0.000000	115.000000	55.000000	44.000000	102.000000
0.280000	53.330000	80.500000	100.000000	0.000000	115.000000	55.000000	47.000000	125.000000
0.290000	53.820000	81.510000	109.000000	0.000000	115.000000	55.000000	49.000000	101.000000
0.300000	54.300000	82.210000	108.000000	0.000000	116.000000	55.000000	48.000000	70.000000
0.310000	54.690000	82.710000	108.000000	0.000000	116.000000	55.000000	39.000000	50.000000
0.320000	55.030000	82.940000	106.000000	0.000000	117.000000	55.000000	34.000000	23.000000
0.330000	55.200000	82.990000	95.000000	0.000000	117.000000	55.000000	17.000000	5.000000
0.340000	55.260000	82.920000	139.000000	0.000000	117.000000	55.000000	6.000000	-7.000000
0.350000	55.260000	82.620000	137.000000	0.000000	119.000000	54.000000	0.000000	-30.000000
0.360000	55.140000	82.260000	177.000000	0.000000	119.000000	54.000000	-12.000000	-36.000000
0.370000	55.020000	81.840000	176.000000	0.000000	119.000000	54.000000	-12.000000	-42.000000
0.380000	54.880000	81.450000	180.000000	0.000000	119.000000	54.000000	-14.000000	-39.000000
0.390000	54.880000	81.220000	173.000000	0.000000	119.000000	54.000000	0.000000	-23.000000
0.400000	54.930000	81.070000	170.000000	0.000000	119.000000	54.000000	5.000000	-15.000000
0.410000	55.060000	81.150000	184.000000	0.000000	119.000000	54.000000	13.000000	8.000000
0.420000	55.250000	81.390000	184.000000	0.000000	119.000000	54.000000	19.000000	24.000000
0.430000	55.480000	81.730000	179.000000	0.000000	119.000000	54.000000	23.000000	34.000000
0.440000	55.720000	82.140000	177.000000	0.000000	119.000000	54.000000	24.000000	41.000000
0.450000	55.890000	82.530000	179.000000	0.000000	119.000000	54.000000	17.000000	39.000000
0.460000	56.020000	82.860000	182.000000	0.000000	117.000000	55.000000	13.000000	33.000000
0.470000	56.070000	83.100000	173.000000	0.000000	117.000000	55.000000	5.000000	24.000000
0.480000	56.070000	83.150000	180.000000	0.000000	117.000000	55.000000	0.000000	5.000000
0.490000	55.960000	83.090000	186.000000	0.000000	117.000000	55.000000	-11.000000	-6.000000
0.500000	55.790000	82.870000	190.000000	0.000000	117.000000	55.000000	-17.000000	-22.000000
0.510000	55.630000	82.640000	206.000000	0.000000	117.000000	55.000000	-16.000000	-23.000000
0.520000	55.490000	82.450000	212.000000	0.000000	119.000000	54.000000	-14.000000	-19.000000
0.530000	55.490000	82.300000	223.000000	0.000000	119.000000	54.000000	0.000000	-15.000000
0.540000	55.580000	82.300000	226.000000	0.000000	119.000000	54.000000	9.000000	0.000000
0.550000	55.720000	82.300000	233.000000	0.000000	119.000000	54.000000	14.000000	0.000000
0.560000	55.900000	82.400000	239.000000	0.000000	119.000000	54.000000	18.000000	10.000000
0.570000	56.140000	82.630000	249.000000	0.000000	117.000000	55.000000	24.000000	23.000000
0.580000	56.430000	82.870000	244.000000	0.000000	117.000000	55.000000	29.000000	24.000000
0.590000	56.720000	83.080000	249.000000	0.000000	117.000000	55.000000	29.000000	21.000000
0.600000	56.950000	83.270000	250.000000	0.000000	117.000000	55.000000	23.000000	19.000000
0.610000	57.140000	83.400000	259.000000	0.000000	117.000000	55.000000	19.000000	13.000000
0.620000	57.310000	83.490000	260.000000	0.000000	117.000000	55.000000	17.000000	9.000000
0.630000	57.400000	83.490000	277.000000	0.000000	117.000000	55.000000	9.000000	0.000000
0.640000	57.400000	83.410000	279.000000	0.000000	117.000000	55.000000	0.000000	-8.000000
0.650000	57.350000	83.170000	301.000000	0.000000	117.000000	55.000000	-5.000000	-24.000000
0.660000	57.200000	82.820000	314.000000	0.000000	117.000000	55.000000	-15.000000	-35.000000
0.670000	57.010000	82.480000	317.000000	0.000000	117.000000	55.000000	-19.000000	-34.000000
0.680000	56.890000	82.130000	322.000000	0.000000	117.000000	55.000000	-12.000000	-35.000000
0.690000	56.810000	81.920000	315.000000	0.000000	117.000000	55.000000	-8.000000	-21.000000
0.700000	56.810000	81.800000	302.000000	0.000000	117.000000	55.000000	0.000000	-12.000000
0.710000	56.810000	81.800000	273.000000	0.000000	117.000000	55.000000	0.000000	0.000000
0.720000	56.950000	81.800000	270.000000	0.000000	117.000000	55.000000	14.000000	0.000000
0.730000	57.170000	81.970000	245.000000	0.000000	117.000000	55.000000	22.000000	17.000000
0.740000	57.450000	82.310000	242.000000	0.000000	117.000000	55.000000	28.000000	34.000000
0.750000	57.770000	82.620000	230.000000	0.000000	117.000000	55.000000	32.000000	31.000000
0.760000	58.030000	82.870000	223.000000	0.000000	118.000000	56.000000	26.000000	25.000000
0.770000	58.200000	83.070000	223.000000	0.000000	118.000000	56.000000	17.000000	20.000000
0.780000	58.340000	83.200000	232.000000	0.000000	118.000000	56.000000	14.000000	13.000000
0.790000	58.340000	83.270000	249.000000	0.000000	118.000000	56.000000	0.000000	7.000000
0.800000	58.280000	83.270000	245.000000	0.000000	119.000000	56.000000	-6.000000	0.000000
0.810000	58.150000	83.040000	250.000000	0.000000	119.000000	56.000000	-13.000000	-23.000000
0.820000	57.890000	82.710000	260.000000	0.000000	119.000000	56.000000	-26.000000	-33.000000
0.830000	57.620000	82.340000	273.000000	0.000000	119.000000	56.000000	-27.000000	-37.000000
0.840000	57.340000	81.970000	301.000000	0.000000	119.000000	56.000000	-28.000000	-37.000000
0.850000	57.280000	81.710000	309.000000	0.000000	119.000000	56.000000	-6.000000	-26.000000
0.860000	57.280000	81.530000	319.000000	0.000000	118.000000	56.000000	0.000000	-18.000000
0.870000	57.370000	81.410000	314.000000	0.000000	118.000000	56.000000	9.000000	-12.000000
0.880000	57.540000	81.410000	289.000000	0.000000	118.000000	56.000000	17.000000	0.000000
0.890000	57.780000	81.410000	246.000000	0.000000	118.000000	56.000000	24.000000	0.000000
0.900000	58.070000	81.600000	137.000000	0.000000	118.000000	56.000000	29.000000	19.000000
0.910000	58.070000	81.600000	0.000000	1.000000	118.000000	56.000000	0.000000	0.000000
0.920000	58.820000	82.220000	0.000000	0.000000	118.000000	57.000000	75.000000	62.000000
0.930000	59.190000	82.600000	0.000000	0.000000	118.000000	57.000000	37.000000	38.000000
0.940000	59.550000	83.080000	0.000000	0.000000	118.000000	57.000000	36.000000	48.000000
0.950000	59.840000	83.620000	0.000000	0.000000	119.000000	58.000000	29.000000	54.000000
0.960000	60.080000	84.160000	0.000000	0.000000	117.000000	58.000000	24.000000	54.000000
0.970000	60.220000	84.660000	0.000000	0.000000	118.000000	59.000000	14.000000	50.000000
0.980000	60.220000	84.660000	13.000000	0.000000	118.000000	59.000000	0.000000	0.000000
0.990000	60.150000	85.310000	180.000000	1.000000	118.000000	59.000000	0.000000	0.000000
1.000000	60.060000	85.400000	252.000000	0.000000	117.000000	59.000000	-9.000000	9.000000
1.010000	59.950000	85.320000	316.000000	0.000000	117.000000	59.000000	-11.000000	-8.000000
1.020000	59.840000	85.220000	314.000000	0.000000	117.000000	59.000000	-11.000000	-10.000000
1.030000	59.840000	85.220000	284.000000	0.000000	117.000000	59.000000	0.000000	0.000000
1.040000	59.840000	84.960000	163.000000	0.000000	117.000000	59.000000	0.000000	-26.000000
1.050000	59.840000	84.960000	0.000000	1.000000	117.000000	59.000000	0.000000	0.000000
1.060000	59.910000	84.410000	0.000000	0.000000	117.000000	59.000000	7.000000	-55.000000
1.070000	59.910000	84.000000	0.000000	0.000000	117.000000	59.000000	0.000000	-41.000000
1.080000	59.970000	83.550000	0.000000	0.000000	117.000000	59.000000	6.000000	-45.000000
1.090000	59.970000	83.110000	0.000000	0.000000	118.000000	59.000000	0.000000	-44.000000
1.100000	60.080000	82.680000	0.000000	0.000000	117.000000	58.000000	11.000000	-43.000000
1.110000	60.200000	82.290000	0.000000	0.000000	117.000000	58.000000	12.000000	-39.000000
1.120000	60.340000	82.040000	0.000000	0.000000	116.000000	57.000000	14.000000	-25.000000
1.130000	60.500000	81.880000	0.000000	0.000000	116.000000	57.000000	16.000000	-16.000000
1.140000	60.500000	81.810000	0.000000	0.000000	116.000000	56.000000	0.000000	-7.000000
1.150000	60.500000	81.710000	0.000000	0.000000	116.000000	56.000000	0.000000	-10.000000
1.160000	60.380000	81.590000	0.000000	0.000000	116.000000	56.000000	-12.000000	-12.000000
1.170000	60.310000	81.470000	0.000000	0.000000	116.000000	56.000000	-7.000000	-12.000000
1.180000	60.260000	81.370000	0.000000	0.000000	116.000000	56.000000	-5.000000	-10.000000
1.190000	60.260000	81.370000	49.000000	1.000000	116.000000	56.000000	0.000000	0.000000
1.200000	60.260000	81.370000	98.000000	0.000000	116.000000	57.000000	0.000000	0.000000
1.210000	60.260000	81.370000	177.000000	0.000000	116.000000	57.000000	0.000000	0.000000
1.220000	60.590000	81.660000	241.000000	0.000000	116.000000	57.000000	33.000000	29.000000
1.230000	60.880000	81.990000	279.000000	0.000000	117.000000	58.000000	29.000000	33.000000
1.240000	61.250000	82.460000	317.000000	0.000000	117.000000	58.000000	37.000000	47.000000
1.250000	61.670000	83.120000	341.000000	0.000000	117.000000	58.000000	42.000000	66.000000
1.260000	62.110000	83.910000	351.000000	0.000000	117.000000	58.000000	44.000000	79.000000
1.270000	62.550000	84.850000	364.000000	0.000000	116.000000	58.000000	44.000000	94.000000
1.280000	62.980000	85.780000	376.000000	0.000000	116.000000	58.000000	43.000000	93.000000
1.290000	63.340000	86.380000	399.000000	0.000000	115.000000	58.000000	36.000000	60.000000
1.300000	63.650000	86.760000	422.000000	0.000000	113.000000	58.000000	31.000000	38.000000
1.310000	63.760000	86.840000	449.000000	0.000000	113.000000	58.000000	11.000000	8.000000
1.320000	63.760000	86.700000	475.000000	0.000000	111.000000	57.000000	0.000000	-14.000000
1.330000	63.690000	86.410000	501.000000	0.000000	111.000000	57.000000	-7.000000	-29.000000
1.340000	63.530000	85.750000	529.000000	0.000000	111.000000	57.000000	-16.000000	-66.000000
1.350000	63.330000	84.860000	554.000000	0.000000	111.000000	57.000000	-20.000000	-89.000000
1.360000	63.100000	83.820000	564.000000	0.000000	110.000000	56.000000	-23.000000	-104.000000
1.370000	62.890000	82.850000	561.000000	0.000000	110.000000	56.000000	-21.000000	-97.000000
1.380000	62.840000	82.170000	537.000000	0.000000	113.000000	57.000000	-5.000000	-68.000000
1.390000	62.890000	81.690000	473.000000	0.000000	113.000000	57.000000	5.000000	-48.000000
1.400000	62.890000	81.300000	398.000000	0.000000	114.000000	57.000000	0.000000	-39.000000
1.410000	62.960000	81.100000	279.000000	0.000000	114.000000	57.000000	7.000000	-20.000000
1.420000	62.960000	81.020000	65.000000	0.000000	114.000000	57.000000	0.000000	-8.000000
1.430000	62.960000	81.020000	0.000000	1.000000	116.000000	56.000000	0.000000	0.000000
1.440000	62.890000	81.360000	0.000000	0.000000	116.000000	56.000000	-7.000000	34.000000
1.450000	62.890000	81.720000	0.000000	0.000000	116.000000	56.000000	0.000000	36.000000
1.460000	62.700000	82.250000	0.000000	0.000000	116.000000	56.000000	-19.000000	53.000000
1.470000	62.450000	82.780000	0.000000	0.000000	116.000000	56.000000	-25.000000	53.000000
1.480000	62.280000	83.060000	0.000000	0.000000	116.000000	56.000000	-17.000000	28.000000
1.490000	62.280000	83.060000	0.000000	0.000000	116.000000	56.000000	0.000000	0.000000
1.500000	62.280000	83.060000	6.000000	0.000000	116.000000	56.000000	0.000000	0.000000
1.510000	61.880000	82.960000	78.000000	1.000000	116.000000	57.000000	0.000000	0.000000
1.520000	61.800000	82.810000	132.000000	0.000000	116.000000	57.000000	-8.000000	-15.000000
1.530000	61.850000	82.590000	186.000000	0.000000	116.000000	57.000000	5.000000	-22.000000
1.540000	62.000000	82.360000	211.000000	0.000000	116.000000	57.000000	15.000000	-23.000000
1.550000	62.210000	82.220000	223.000000	0.000000	116.000000	57.000000	21.000000	-14.000000
1.560000	62.490000	82.130000	241.000000	0.000000	116.000000	57.000000	28.000000	-9.000000
1.570000	62.840000	82.130000	264.000000	0.000000	116.000000	57.000000	35.000000	0.000000
1.580000	63.240000	82.360000	285.000000	0.000000	116.000000	57.000000	40.000000	23.000000
1.590000	63.710000	82.700000	285.000000	0.000000	116.000000	57.000000	47.000000	34.000000
1.600000	64.250000	83.280000	285.000000	0.000000	116.000000	57.000000	54.000000	58.000000
1.610000	64.840000	84.140000	255.000000	0.000000	114.000000	57.000000	59.000000	86.000000
1.620000	65.410000	85.200000	245.000000	0.000000	114.000000	57.000000	57.000000	106.000000
1.630000	65.920000	86.260000	247.000000	0.000000	114.000000	57.000000	51.000000	106.000000
1.640000	66.400000	87.030000	249.000000	0.000000	113.000000	57.000000	48.000000	77.000000
1.650000	66.680000	87.620000	254.000000	0.000000	113.000000	57.000000	28.000000	59.000000
1.660000	66.760000	87.750000	254.000000	0.000000	111.000000	57.000000	8.000000	13.000000
1.670000	66.700000	87.580000	274.000000	0.000000	111.000000	57.000000	-6.000000	-17.000000
1.680000	66.470000	87.210000	301.000000	0.000000	111.000000	57.000000	-23.000000	-37.000000
1.690000	66.080000	86.470000	330.000000	0.000000	109.000000	57.000000	-39.000000	-74.000000
1.700000	65.570000	85.490000	371.000000	0.000000	109.000000	57.000000	-51.000000	-98.000000
1.710000	65.150000	84.340000	412.000000	0.000000	109.000000	57.000000	-42.000000	-115.000000
1.720000	64.760000	83.210000	436.000000	0.000000	111.000000	57.000000	-39.000000	-113.000000
1.730000	64.440000	82.440000	423.000000	0.000000	111.000000	57.000000	-32.000000	-77.000000
1.740000	64.440000	81.910000	388.000000	0.000000	111.000000	57.000000	0.000000	-53.000000
1.750000	64.600000	81.910000	376.000000	0.000000	113.000000	57.000000	16.000000	0.000000
1.760000	64.810000	82.010000	369.000000	0.000000	113.000000	57.000000	21.000000	10.000000
1.770000	65.190000	82.260000	337.000000	0.000000	113.000000	57.000000	38.000000	25.000000
1.780000	65.690000	82.950000	311.000000	0.000000	113.000000	56.000000	50.000000	69.000000
1.790000	66.200000	83.820000	287.000000	0.000000	113.000000	57.000000	51.000000	87.000000
1.800000	66.670000	84.820000	280.000000	0.000000	113.000000	57.000000	47.000000	100.000000
1.810000	66.980000	85.440000	274.000000	0.000000	113.000000	57.000000	31.000000	62.000000
1.820000	67.200000	85.640000	260.000000	0.000000	111.000000	57.000000	22.000000	20.000000
1.830000	67.200000	85.550000	267.000000	0.000000	111.000000	57.000000	0.000000	-9.000000
1.840000	67.050000	85.210000	273.000000	0.000000	111.000000	57.000000	-15.000000	-34.000000
1.850000	66.790000	84.570000	297.000000	0.000000	111.000000	57.000000	-26.000000	-64.000000
1.860000	66.460000	83.720000	317.000000	0.000000	111.000000	57.000000	-33.000000	-85.000000
1.870000	66.170000	83.000000	334.000000	0.000000	111.000000	57.000000	-29.000000	-72.000000
1.880000	66.050000	82.450000	337.000000	0.000000	111.000000	57.000000	-12.000000	-55.000000
1.890000	66.050000	82.010000	342.000000	0.000000	111.000000	57.000000	0.000000	-44.000000
1.900000	66.050000	81.810000	322.000000	0.000000	113.000000	57.000000	0.000000	-20.000000
1.910000	66.270000	81.720000	307.000000	0.000000	113.000000	57.000000	22.000000	-9.000000
1.920000	66.520000	81.720000	280.000000	0.000000	113.000000	57.000000	25.000000	0.000000
1.930000	66.820000	81.840000	240.000000	0.000000	114.000000	57.000000	30.000000	12.000000
1.940000	67.140000	82.110000	176.000000	0.000000	114.000000	57.000000	32.000000	27.000000
1.950000	67.500000	82.480000	148.000000	0.000000	114.000000	57.000000	36.000000	37.000000
1.960000	67.840000	82.870000	90.000000	0.000000	114.000000	57.000000	34.000000	39.000000
1.970000	68.050000	83.180000	71.000000	0.000000	114.000000	57.000000	21.000000	31.000000
1.980000	68.170000	83.280000	61.000000	0.000000	114.000000	57.000000	12.000000	10.000000
1.990000	68.170000	83.280000	65.000000	0.000000	114.000000	57.000000	0.000000	0.000000
2.000000	68.170000	83.280000	91.000000	0.000000	113.000000	57.000000	0.000000	0.000000
2.010000	68.170000	83.280000	142.000000	0.000000	113.000000	57.000000	0.000000	0.000000
2.020000	68.170000	83.230000	183.000000	0.000000	113.000000	58.000000	0.000000	-5.000000
2.030000	68.170000	83.170000	232.000000	0.000000	113.000000	58.000000	0.000000	-6.000000
2.040000	68.120000	83.080000	247.000000	0.000000	113.000000	58.000000	-5.000000	-9.000000
2.050000	68.120000	83.000000	246.000000	0.000000	113.000000	58.000000	0.000000	-8.000000
2.060000	68.200000	83.000000	237.000000	0.000000	113.000000	58.000000	8.000000	0.000000
2.070000	68.280000	82.950000	226.000000	0.000000	113.000000	58.000000	8.000000	-5.000000
2.080000	68.350000	82.950000	226.000000	0.000000	113.000000	58.000000	7.000000	0.000000
2.090000	68.410000	82.950000	218.000000	0.000000	113.000000	58.000000	6.000000	0.000000
2.100000	68.410000	82.950000	218.000000	0.000000	113.000000	58.000000	0.000000	0.000000
2.110000	68.460000	83.050000	233.000000	0.000000	115.000000	58.000000	5.000000	10.000000
2.120000	68.460000	83.100000	247.000000	0.000000	115.000000	58.000000	0.000000	5.000000
2.130000	68.370000	83.100000	270.000000	0.000000	115.000000	58.000000	-9.000000	0.000000
2.140000	68.230000	83.100000	307.000000	0.000000	115.000000	58.000000	-14.000000	0.000000
2.150000	68.060000	83.020000	309.000000	0.000000	115.000000	58.000000	-17.000000	-8.000000
2.160000	67.820000	82.860000	353.000000	0.000000	115.000000	58.000000	-24.000000	-16.000000
2.170000	67.530000	82.640000	392.000000	0.000000	115.000000	58.000000	-29.000000	-22.000000
2.180000	67.370000	82.380000	423.000000	0.000000	113.000000	58.000000	-16.000000	-26.000000
2.190000	67.270000	82.150000	418.000000	0.000000	113.000000	58.000000	-10.000000	-23.000000
2.200000	67.270000	81.940000	428.000000	0.000000	113.000000	58.000000	0.000000	-21.000000
