t	x	y	pressure	penup	azimuth	inclination	v_x	v_y
0.000000	16.760000	64.550000	49.000000	1.000000	110.000000	53.000000	0.000000	0.000000
0.010000	17.080000	64.550000	89.000000	0.000000	110.000000	53.000000	32.000000	0.000000
0.020000	17.240000	64.910000	115.000000	0.000000	109.000000	55.000000	16.000000	36.000000
0.030000	17.500000	65.290000	170.000000	0.000000	109.000000	55.000000	26.000000	38.000000
0.040000	18.140000	65.970000	228.000000	0.000000	108.000000	56.000000	64.000000	68.000000
0.050000	19.000000	66.840000	247.000000	0.000000	108.000000	56.000000	86.000000	87.000000
0.060000	19.320000	67.690000	269.000000	0.000000	107.000000	56.000000	32.000000	85.000000
0.070000	19.850000	68.520000	287.000000	0.000000	107.000000	56.000000	53.000000	83.000000
0.080000	20.530000	69.290000	291.000000	0.000000	107.000000	56.000000	68.000000	77.000000
0.090000	20.970000	69.620000	299.000000	0.000000	108.000000	56.000000	44.000000	33.000000
0.100000	21.130000	69.690000	339.000000	0.000000	110.000000	55.000000	16.000000	7.000000
0.110000	21.130000	69.530000	381.000000	0.000000	110.000000	55.000000	0.000000	-16.000000
0.120000	21.130000	68.950000	389.000000	0.000000	110.000000	55.000000	0.000000	-58.000000
0.130000	20.880000	68.080000	396.000000	0.000000	110.000000	54.000000	-25.000000	-87.000000
0.140000	20.510000	66.910000	389.000000	0.000000	109.000000	55.000000	-37.000000	-117.000000
0.150000	19.980000	65.580000	377.000000	0.000000	109.000000	55.000000	-53.000000	-133.000000
0.160000	19.330000	64.140000	381.000000	0.000000	109.000000	55.000000	-65.000000	-144.000000
0.170000	18.610000	62.720000	377.000000	0.000000	107.000000	55.000000	-72.000000	-142.000000
0.180000	18.110000	61.690000	373.000000	0.000000	106.000000	55.000000	-50.000000	-103.000000
0.190000	17.650000	60.910000	361.000000	0.000000	105.000000	55.000000	-46.000000	-78.000000
0.200000	17.280000	60.410000	349.000000	0.000000	105.000000	55.000000	-37.000000	-50.000000
0.210000	17.110000	60.220000	332.000000	0.000000	104.000000	54.000000	-17.000000	-19.000000
0.220000	17.110000	60.220000	301.000000	0.000000	104.000000	54.000000	0.000000	0.000000
0.230000	17.160000	60.430000	270.000000	0.000000	104.000000	54.000000	5.000000	21.000000
0.240000	17.290000	60.960000	247.000000	0.000000	104.000000	53.000000	13.000000	53.000000
0.250000	17.600000	61.700000	235.000000	0.000000	104.000000	53.000000	31.000000	74.000000
0.260000	18.020000	62.390000	233.000000	0.000000	104.000000	53.000000	42.000000	69.000000
0.270000	18.480000	63.040000	228.000000	0.000000	104.000000	53.000000	46.000000	65.000000
0.280000	18.950000	63.590000	223.000000	0.000000	105.000000	53.000000	47.000000	55.000000
0.290000	19.360000	64.030000	223.000000	0.000000	104.000000	54.000000	41.000000	44.000000
0.300000	19.720000	64.330000	223.000000	0.000000	104.000000	54.000000	36.000000	30.000000
0.310000	20.040000	64.550000	226.000000	0.000000	104.000000	54.000000	32.000000	22.000000
0.320000	20.300000	64.690000	232.000000	0.000000	105.000000	55.000000	26.000000	14.000000
0.330000	20.520000	64.800000	235.000000	0.000000	105.000000	55.000000	22.000000	11.000000
0.340000	20.670000	64.880000	233.000000	0.000000	103.000000	55.000000	15.000000	8.000000
0.350000	20.830000	65.020000	235.000000	0.000000	103.000000	55.000000	16.000000	14.000000
0.360000	21.020000	65.190000	228.000000	0.000000	103.000000	55.000000	19.000000	17.000000
0.370000	21.150000	65.340000	222.000000	0.000000	103.000000	55.000000	13.000000	15.000000
0.380000	21.250000	65.460000	151.000000	0.000000	103.000000	55.000000	10.000000	12.000000
0.390000	21.320000	65.520000	65.000000	0.000000	104.000000	56.000000	7.000000	6.000000
0.400000	21.320000	65.520000	0.000000	1.000000	104.000000	56.000000	0.000000	0.000000
0.410000	21.320000	65.520000	0.000000	0.000000	102.000000	56.000000	0.000000	0.000000
0.420000	21.260000	65.520000	0.000000	0.000000	102.000000	56.000000	-6.000000	0.000000
0.430000	21.210000	65.520000	0.000000	0.000000	102.000000	56.000000	-5.000000	0.000000
0.440000	21.210000	65.460000	0.000000	0.000000	102.000000	56.000000	0.000000	-6.000000
0.450000	21.110000	65.460000	0.000000	0.000000	102.000000	56.000000	-10.000000	0.000000
0.460000	21.110000	65.460000	67.000000	1.000000	102.000000	56.000000	0.000000	0.000000
0.470000	21.110000	65.460000	122.000000	0.000000	102.000000	56.000000	0.000000	0.000000
0.480000	21.110000	65.460000	178.000000	0.000000	102.000000	55.000000	0.000000	0.000000
0.490000	21.110000	65.460000	254.000000	0.000000	102.000000	55.000000	0.000000	0.000000
0.500000	20.810000	65.210000	301.000000	0.000000	102.000000	55.000000	-30.000000	-25.000000
0.510000	20.750000	65.100000	314.000000	0.000000	102.000000	55.000000	-6.000000	-11.000000
0.520000	20.580000	64.770000	351.000000	0.000000	102.000000	55.000000	-17.000000	-33.000000
0.530000	20.380000	64.290000	372.000000	0.000000	102.000000	55.000000	-20.000000	-48.000000
0.540000	20.150000	63.740000	400.000000	0.000000	102.000000	55.000000	-23.000000	-55.000000
0.550000	19.970000	63.300000	423.000000	0.000000	103.000000	55.000000	-18.000000	-44.000000
0.560000	19.970000	62.930000	420.000000	0.000000	103.000000	55.000000	0.000000	-37.000000
0.570000	19.970000	62.760000	415.000000	0.000000	103.000000	55.000000	0.000000	-17.000000
0.580000	20.080000	62.710000	402.000000	0.000000	103.000000	55.000000	11.000000	-5.000000
0.590000	20.210000	62.710000	399.000000	0.000000	103.000000	55.000000	13.000000	0.000000
0.600000	20.390000	62.890000	396.000000	0.000000	104.000000	54.000000	18.000000	18.000000
0.610000	20.690000	63.330000	376.000000	0.000000	104.000000	54.000000	30.000000	44.000000
0.620000	21.070000	63.960000	353.000000	0.000000	103.000000	55.000000	38.000000	63.000000
0.630000	21.390000	64.620000	344.000000	0.000000	103.000000	55.000000	32.000000	66.000000
0.640000	21.600000	65.250000	322.000000	0.000000	103.000000	55.000000	21.000000	63.000000
0.650000	21.740000	65.660000	317.000000	0.000000	103.000000	55.000000	14.000000	41.000000
0.660000	21.740000	65.950000	314.000000	0.000000	102.000000	56.000000	0.000000	29.000000
0.670000	21.740000	65.950000	322.000000	0.000000	102.000000	56.000000	0.000000	0.000000
0.680000	21.670000	65.950000	324.000000	0.000000	102.000000	56.000000	-7.000000	0.000000
0.690000	21.670000	65.820000	325.000000	0.000000	102.000000	56.000000	0.000000	-13.000000
0.700000	21.670000	65.660000	320.000000	0.000000	101.000000	57.000000	0.000000	-16.000000
0.710000	21.670000	65.470000	307.000000	0.000000	101.000000	57.000000	0.000000	-19.000000
0.720000	21.770000	65.380000	297.000000	0.000000	101.000000	57.000000	10.000000	-9.000000
0.730000	21.940000	65.380000	276.000000	0.000000	101.000000	57.000000	17.000000	0.000000
0.740000	22.170000	65.380000	273.000000	0.000000	101.000000	57.000000	23.000000	0.000000
0.750000	22.430000	65.380000	276.000000	0.000000	101.000000	57.000000	26.000000	0.000000
0.760000	22.610000	65.310000	274.000000	0.000000	101.000000	57.000000	18.000000	-7.000000
0.770000	22.750000	65.210000	277.000000	0.000000	101.000000	57.000000	14.000000	-10.000000
0.780000	22.750000	65.210000	279.000000	0.000000	101.000000	57.000000	0.000000	0.000000
0.790000	22.670000	64.830000	281.000000	0.000000	101.000000	57.000000	-8.000000	-38.000000
0.800000	22.530000	64.580000	282.000000	0.000000	101.000000	57.000000	-14.000000	-25.000000
0.810000	22.400000	64.400000	279.000000	0.000000	102.000000	56.000000	-13.000000	-18.000000
0.820000	22.320000	64.250000	252.000000	0.000000	102.000000	56.000000	-8.000000	-15.000000
0.830000	22.320000	64.250000	181.000000	0.000000	102.000000	56.000000	0.000000	0.000000
0.840000	22.400000	64.360000	96.000000	0.000000	102.000000	56.000000	8.000000	11.000000
0.850000	22.550000	64.570000	24.000000	0.000000	102.000000	56.000000	15.000000	21.000000
0.860000	22.550000	64.570000	0.000000	1.000000	102.000000	56.000000	0.000000	0.000000
0.870000	22.960000	65.050000	0.000000	0.000000	102.000000	56.000000	41.000000	48.000000
0.880000	23.150000	65.220000	0.000000	0.000000	102.000000	56.000000	19.000000	17.000000
0.890000	23.290000	65.330000	0.000000	0.000000	102.000000	56.000000	14.000000	11.000000
0.900000	23.400000	65.430000	0.000000	0.000000	102.000000	56.000000	11.000000	10.000000
0.910000	23.400000	65.490000	0.000000	0.000000	102.000000	56.000000	0.000000	6.000000
0.920000	23.330000	65.490000	0.000000	0.000000	101.000000	57.000000	-7.000000	0.000000
0.930000	23.220000	65.490000	0.000000	0.000000	101.000000	57.000000	-11.000000	0.000000
0.940000	23.080000	65.390000	0.000000	0.000000	100.000000	56.000000	-14.000000	-10.000000
0.950000	22.920000	65.310000	0.000000	0.000000	100.000000	56.000000	-16.000000	-8.000000
0.960000	22.740000	65.190000	0.000000	0.000000	102.000000	55.000000	-18.000000	-12.000000
0.970000	22.570000	65.040000	0.000000	0.000000	102.000000	55.000000	-17.000000	-15.000000
0.980000	22.410000	64.920000	0.000000	0.000000	101.000000	54.000000	-16.000000	-12.000000
0.990000	22.250000	64.830000	0.000000	0.000000	101.000000	54.000000	-16.000000	-9.000000
1.000000	22.100000	64.740000	0.000000	0.000000	101.000000	54.000000	-15.000000	-9.000000
1.010000	21.980000	64.660000	0.000000	0.000000	101.000000	53.000000	-12.000000	-8.000000
1.020000	21.980000	64.590000	0.000000	0.000000	101.000000	53.000000	0.000000	-7.000000
1.030000	21.980000	64.590000	44.000000	1.000000	101.000000	54.000000	0.000000	0.000000
1.040000	21.980000	64.590000	98.000000	0.000000	101.000000	54.000000	0.000000	0.000000
1.050000	22.210000	64.970000	149.000000	0.000000	101.000000	54.000000	23.000000	38.000000
1.060000	22.440000	65.180000	249.000000	0.000000	102.000000	55.000000	23.000000	21.000000
1.070000	22.700000	65.450000	277.000000	0.000000	102.000000	55.000000	26.000000	27.000000
1.080000	22.980000	65.680000	306.000000	0.000000	102.000000	55.000000	28.000000	23.000000
1.090000	23.260000	65.860000	317.000000	0.000000	101.000000	57.000000	28.000000	18.000000
1.100000	23.500000	66.010000	359.000000	0.000000	101.000000	57.000000	24.000000	15.000000
1.110000	23.710000	66.150000	369.000000	0.000000	101.000000	57.000000	21.000000	14.000000
1.120000	23.780000	66.100000	417.000000	0.000000	101.000000	57.000000	7.000000	-5.000000
1.130000	23.780000	66.000000	431.000000	0.000000	101.000000	57.000000	0.000000	-10.000000
1.140000	23.640000	65.640000	425.000000	0.000000	101.000000	57.000000	-14.000000	-36.000000
1.150000	23.380000	65.110000	435.000000	0.000000	101.000000	57.000000	-26.000000	-53.000000
1.160000	23.080000	64.590000	430.000000	0.000000	101.000000	57.000000	-30.000000	-52.000000
1.170000	22.760000	64.080000	418.000000	0.000000	101.000000	57.000000	-32.000000	-51.000000
1.180000	22.460000	63.580000	420.000000	0.000000	101.000000	57.000000	-30.000000	-50.000000
1.190000	22.330000	63.310000	398.000000	0.000000	101.000000	57.000000	-13.000000	-27.000000
1.200000	22.330000	63.190000	364.000000	0.000000	101.000000	57.000000	0.000000	-12.000000
1.210000	22.330000	63.190000	358.000000	0.000000	102.000000	56.000000	0.000000	0.000000
1.220000	22.480000	63.330000	351.000000	0.000000	102.000000	56.000000	15.000000	14.000000
1.230000	22.770000	63.530000	349.000000	0.000000	102.000000	56.000000	29.000000	20.000000
1.240000	23.170000	63.910000	348.000000	0.000000	104.000000	56.000000	40.000000	38.000000
1.250000	23.550000	64.280000	344.000000	0.000000	102.000000	56.000000	38.000000	37.000000
1.260000	23.900000	64.620000	344.000000	0.000000	102.000000	56.000000	35.000000	34.000000
1.270000	24.240000	64.910000	344.000000	0.000000	102.000000	56.000000	34.000000	29.000000
1.280000	24.500000	65.150000	348.000000	0.000000	101.000000	57.000000	26.000000	24.000000
1.290000	24.710000	65.340000	351.000000	0.000000	101.000000	57.000000	21.000000	19.000000
1.300000	24.890000	65.470000	351.000000	0.000000	101.000000	57.000000	18.000000	13.000000
1.310000	24.960000	65.550000	377.000000	0.000000	101.000000	57.000000	7.000000	8.000000
1.320000	24.960000	65.550000	413.000000	0.000000	101.000000	57.000000	0.000000	0.000000
1.330000	24.850000	65.490000	428.000000	0.000000	101.000000	57.000000	-11.000000	-6.000000
1.340000	24.680000	65.360000	433.000000	0.000000	101.000000	57.000000	-17.000000	-13.000000
1.350000	24.360000	65.060000	444.000000	0.000000	101.000000	57.000000	-32.000000	-30.000000
1.360000	23.940000	64.660000	448.000000	0.000000	101.000000	57.000000	-42.000000	-40.000000
1.370000	23.600000	64.240000	439.000000	0.000000	101.000000	57.000000	-34.000000	-42.000000
1.380000	23.310000	63.840000	449.000000	0.000000	101.000000	57.000000	-29.000000	-40.000000
1.390000	23.250000	63.600000	430.000000	0.000000	101.000000	57.000000	-6.000000	-24.000000
1.400000	23.330000	63.480000	415.000000	0.000000	102.000000	56.000000	8.000000	-12.000000
1.410000	23.450000	63.350000	396.000000	0.000000	102.000000	56.000000	12.000000	-13.000000
1.420000	23.600000	63.290000	382.000000	0.000000	102.000000	56.000000	15.000000	-6.000000
1.430000	23.810000	63.290000	338.000000	0.000000	102.000000	56.000000	21.000000	0.000000
1.440000	24.050000	63.360000	289.000000	0.000000	102.000000	56.000000	24.000000	7.000000
1.450000	24.350000	63.590000	200.000000	0.000000	102.000000	56.000000	30.000000	23.000000
1.460000	24.690000	63.920000	1.000000	1.000000	102.000000	56.000000	0.000000	0.000000
1.470000	24.690000	63.920000	0.000000	0.000000	102.000000	56.000000	0.000000	0.000000
1.480000	25.340000	64.700000	0.000000	0.000000	102.000000	56.000000	65.000000	78.000000
1.490000	25.540000	65.080000	0.000000	0.000000	102.000000	56.000000	20.000000	38.000000
1.500000	25.680000	65.440000	0.000000	0.000000	103.000000	57.000000	14.000000	36.000000
1.510000	25.880000	65.920000	0.000000	0.000000	103.000000	57.000000	20.000000	48.000000
1.520000	26.110000	66.470000	0.000000	0.000000	103.000000	57.000000	23.000000	55.000000
1.530000	26.180000	66.980000	0.000000	0.000000	103.000000	58.000000	7.000000	51.000000
1.540000	26.120000	67.280000	0.000000	0.000000	103.000000	58.000000	-6.000000	30.000000
1.550000	26.050000	67.430000	0.000000	0.000000	103.000000	58.000000	-7.000000	15.000000
1.560000	25.930000	67.430000	0.000000	0.000000	103.000000	58.000000	-12.000000	0.000000
1.570000	25.930000	67.430000	148.000000	1.000000	103.000000	58.000000	0.000000	0.000000
1.580000	25.450000	66.950000	212.000000	0.000000	102.000000	58.000000	-48.000000	-48.000000
1.590000	25.170000	66.620000	228.000000	0.000000	102.000000	58.000000	-28.000000	-33.000000
1.600000	24.990000	66.370000	228.000000	0.000000	102.000000	58.000000	-18.000000	-25.000000
1.610000	24.990000	66.210000	172.000000	0.000000	101.000000	58.000000	0.000000	-16.000000
1.620000	25.070000	66.090000	1.000000	1.000000	101.000000	58.000000	0.000000	0.000000
1.630000	25.070000	66.090000	0.000000	0.000000	101.000000	58.000000	0.000000	0.000000
1.640000	25.530000	65.880000	0.000000	0.000000	100.000000	58.000000	46.000000	-21.000000
1.650000	25.790000	65.740000	0.000000	0.000000	100.000000	58.000000	26.000000	-14.000000
1.660000	26.060000	65.470000	0.000000	0.000000	100.000000	58.000000	27.000000	-27.000000
1.670000	26.380000	65.110000	0.000000	0.000000	100.000000	58.000000	32.000000	-36.000000
1.680000	26.550000	64.640000	0.000000	0.000000	101.000000	58.000000	17.000000	-47.000000
1.690000	26.620000	64.170000	0.000000	0.000000	101.000000	57.000000	7.000000	-47.000000
1.700000	26.620000	63.690000	0.000000	0.000000	101.000000	57.000000	0.000000	-48.000000
1.710000	26.540000	63.250000	0.000000	0.000000	101.000000	57.000000	-8.000000	-44.000000
1.720000	26.390000	62.800000	0.000000	0.000000	102.000000	55.000000	-15.000000	-45.000000
1.730000	26.200000	62.520000	0.000000	0.000000	102.000000	55.000000	-19.000000	-28.000000
1.740000	26.200000	62.330000	0.000000	0.000000	102.000000	55.000000	0.000000	-19.000000
1.750000	26.200000	62.330000	208.000000	1.000000	101.000000	54.000000	0.000000	0.000000
1.760000	26.470000	62.550000	255.000000	0.000000	103.000000	54.000000	27.000000	22.000000
1.770000	26.570000	62.790000	304.000000	0.000000	101.000000	54.000000	10.000000	24.000000
1.780000	26.890000	63.440000	351.000000	0.000000	101.000000	53.000000	32.000000	65.000000
1.790000	27.340000	64.260000	389.000000	0.000000	101.000000	53.000000	45.000000	82.000000
1.800000	27.720000	65.190000	412.000000	0.000000	101.000000	53.000000	38.000000	93.000000
1.810000	28.120000	66.300000	420.000000	0.000000	100.000000	54.000000	40.000000	111.000000
1.820000	28.540000	67.400000	414.000000	0.000000	100.000000	54.000000	42.000000	110.000000
1.830000	28.930000	68.200000	428.000000	0.000000	100.000000	54.000000	39.000000	80.000000
1.840000	29.180000	68.800000	439.000000	0.000000	101.000000	53.000000	25.000000	60.000000
1.850000	29.340000	69.040000	490.000000	0.000000	101.000000	53.000000	16.000000	24.000000
1.860000	29.340000	69.040000	512.000000	0.000000	101.000000	54.000000	0.000000	0.000000
1.870000	29.230000	68.820000	527.000000	0.000000	103.000000	54.000000	-11.000000	-22.000000
1.880000	29.110000	68.240000	542.000000	0.000000	103.000000	54.000000	-12.000000	-58.000000
1.890000	28.900000	67.440000	567.000000	0.000000	103.000000	54.000000	-21.000000	-80.000000
1.900000	28.680000	66.490000	567.000000	0.000000	103.000000	54.000000	-22.000000	-95.000000
1.910000	28.490000	65.550000	564.000000	0.000000	103.000000	54.000000	-19.000000	-94.000000
1.920000	28.320000	64.810000	538.000000	0.000000	101.000000	54.000000	-17.000000	-74.000000
1.930000	28.320000	64.210000	446.000000	0.000000	101.000000	54.000000	0.000000	-60.000000
1.940000	28.390000	63.790000	273.000000	0.000000	100.000000	54.000000	7.000000	-42.000000
1.950000	28.390000	63.790000	0.000000	1.000000	100.000000	54.000000	0.000000	0.000000
1.960000	28.450000	63.310000	0.000000	0.000000	100.000000	54.000000	6.000000	-48.000000
1.970000	28.450000	63.310000	0.000000	0.000000	100.000000	54.000000	0.000000	0.000000
1.980000	28.370000	63.400000	0.000000	0.000000	100.000000	55.000000	-8.000000	9.000000
1.990000	28.200000	63.590000	0.000000	0.000000	100.000000	55.000000	-17.000000	19.000000
2.000000	28.000000	63.850000	0.000000	0.000000	100.000000	55.000000	-20.000000	26.000000
2.010000	27.790000	64.070000	0.000000	0.000000	100.000000	56.000000	-21.000000	22.000000
2.020000	27.640000	64.240000	0.000000	0.000000	100.000000	56.000000	-15.000000	17.000000
2.030000	27.500000	64.190000	0.000000	0.000000	102.000000	55.000000	-14.000000	-5.000000
2.040000	27.400000	64.010000	0.000000	0.000000	102.000000	55.000000	-10.000000	-18.000000
2.050000	27.400000	64.010000	65.000000	1.000000	102.000000	55.000000	0.000000	0.000000
2.060000	27.310000	63.590000	122.000000	0.000000	101.000000	54.000000	-9.000000	-42.000000
2.070000	27.310000	63.490000	179.000000	0.000000	101.000000	54.000000	0.000000	-10.000000
2.080000	27.470000	63.490000	253.000000	0.000000	101.000000	54.000000	16.000000	0.000000
2.090000	27.730000	63.570000	273.000000	0.000000	101.000000	53.000000	26.000000	8.000000
2.100000	28.060000	63.860000	294.000000	0.000000	100.000000	54.000000	33.000000	29.000000
2.110000	28.570000	64.280000	302.000000	0.000000	100.000000	54.000000	51.000000	42.000000
2.120000	29.090000	64.820000	301.000000	0.000000	99.000000	53.000000	52.000000	54.000000
2.130000	29.650000	65.550000	311.000000	0.000000	99.000000	53.000000	56.000000	73.000000
2.140000	30.230000	66.420000	304.000000	0.000000	100.000000	54.000000	58.000000	87.000000
2.150000	30.850000	67.430000	291.000000	0.000000	100.000000	54.000000	62.000000	101.000000
2.160000	31.330000	68.410000	292.000000	0.000000	100.000000	54.000000	48.000000	98.000000
2.170000	31.730000	69.380000	294.000000	0.000000	100.000000	55.000000	40.000000	97.000000
2.180000	32.000000	69.920000	305.000000	0.000000	101.000000	54.000000	27.000000	54.000000
2.190000	32.000000	70.070000	369.000000	0.000000	103.000000	55.000000	0.000000	15.000000
2.200000	31.880000	69.950000	377.000000	0.000000	105.000000	55.000000	-12.000000	-12.000000
2.210000	31.620000	69.600000	376.000000	0.000000	106.000000	55.000000	-26.000000	-35.000000
