t	x	y	pressure	penup	azimuth	inclination	v_x	v_y
0.000000	15.440000	10.470000	15.000000	1.000000	155.000000	54.000000	0.000000	0.000000
0.010000	15.440000	10.470000	112.000000	0.000000	155.000000	54.000000	0.000000	0.000000
0.020000	15.440000	10.470000	181.000000	0.000000	155.000000	54.000000	0.000000	0.000000
0.030000	15.440000	10.470000	277.000000	0.000000	154.000000	55.000000	0.000000	0.000000
0.040000	15.700000	10.320000	371.000000	0.000000	154.000000	55.000000	26.000000	-15.000000
0.050000	15.930000	10.440000	448.000000	0.000000	154.000000	55.000000	23.000000	12.000000
0.060000	16.230000	10.660000	495.000000	0.000000	153.000000	55.000000	30.000000	22.000000
0.070000	16.570000	11.150000	501.000000	0.000000	149.000000	55.000000	34.000000	49.000000
0.080000	16.920000	11.820000	492.000000	0.000000	146.000000	54.000000	35.000000	67.000000
0.090000	17.260000	12.830000	468.000000	0.000000	143.000000	53.000000	34.000000	101.000000
0.100000	17.560000	13.800000	447.000000	0.000000	141.000000	52.000000	30.000000	97.000000
0.110000	17.820000	14.670000	445.000000	0.000000	140.000000	52.000000	26.000000	87.000000
0.120000	17.930000	15.250000	458.000000	0.000000	137.000000	51.000000	11.000000	58.000000
0.130000	17.930000	15.660000	471.000000	0.000000	136.000000	50.000000	0.000000	41.000000
0.140000	17.930000	15.860000	483.000000	0.000000	135.000000	50.000000	0.000000	20.000000
0.150000	17.880000	15.860000	483.000000	0.000000	134.000000	49.000000	-5.000000	0.000000
0.160000	17.880000	15.620000	491.000000	0.000000	134.000000	49.000000	0.000000	-24.000000
0.170000	17.880000	14.980000	485.000000	0.000000	134.000000	49.000000	0.000000	-64.000000
0.180000	17.880000	14.060000	496.000000	0.000000	134.000000	49.000000	0.000000	-92.000000
0.190000	17.880000	12.950000	504.000000	0.000000	134.000000	49.000000	0.000000	-111.000000
0.200000	17.830000	11.520000	514.000000	0.000000	134.000000	49.000000	-5.000000	-143.000000
0.210000	17.760000	10.310000	502.000000	0.000000	134.000000	49.000000	-7.000000	-121.000000
0.220000	17.600000	9.260000	501.000000	0.000000	134.000000	49.000000	-16.000000	-105.000000
0.230000	17.380000	8.400000	496.000000	0.000000	135.000000	50.000000	-22.000000	-86.000000
0.240000	17.140000	7.840000	491.000000	0.000000	135.000000	50.000000	-24.000000	-56.000000
0.250000	16.960000	7.470000	474.000000	0.000000	135.000000	50.000000	-18.000000	-37.000000
0.260000	16.900000	7.580000	452.000000	0.000000	135.000000	50.000000	-6.000000	11.000000
0.270000	16.900000	7.820000	458.000000	0.000000	136.000000	49.000000	0.000000	24.000000
0.280000	16.900000	8.160000	456.000000	0.000000	137.000000	48.000000	0.000000	34.000000
0.290000	17.020000	8.440000	455.000000	0.000000	137.000000	48.000000	12.000000	28.000000
0.300000	17.170000	8.720000	453.000000	0.000000	138.000000	48.000000	15.000000	28.000000
0.310000	17.330000	9.120000	439.000000	0.000000	138.000000	48.000000	16.000000	40.000000
0.320000	17.600000	9.600000	339.000000	0.000000	137.000000	48.000000	27.000000	48.000000
0.330000	17.930000	10.130000	61.000000	0.000000	137.000000	48.000000	33.000000	53.000000
0.340000	17.930000	10.130000	0.000000	1.000000	137.000000	48.000000	0.000000	0.000000
0.350000	18.480000	11.090000	0.000000	0.000000	136.000000	49.000000	55.000000	96.000000
0.360000	18.680000	11.480000	0.000000	0.000000	136.000000	49.000000	20.000000	39.000000
0.370000	18.900000	11.650000	0.000000	0.000000	137.000000	50.000000	22.000000	17.000000
0.380000	19.030000	11.650000	0.000000	0.000000	137.000000	50.000000	13.000000	0.000000
0.390000	19.110000	11.600000	0.000000	0.000000	137.000000	50.000000	8.000000	-5.000000
0.400000	19.210000	11.490000	0.000000	0.000000	138.000000	50.000000	10.000000	-11.000000
0.410000	19.300000	11.370000	0.000000	0.000000	138.000000	50.000000	9.000000	-12.000000
0.420000	19.390000	11.370000	0.000000	0.000000	138.000000	50.000000	9.000000	0.000000
0.430000	19.440000	11.370000	0.000000	0.000000	138.000000	50.000000	5.000000	0.000000
0.440000	19.440000	11.370000	0.000000	0.000000	138.000000	50.000000	0.000000	0.000000
0.450000	19.440000	11.370000	0.000000	0.000000	138.000000	50.000000	0.000000	0.000000
0.460000	19.340000	11.240000	0.000000	0.000000	138.000000	50.000000	-10.000000	-13.000000
0.470000	19.280000	11.110000	0.000000	0.000000	138.000000	50.000000	-6.000000	-13.000000
0.480000	19.180000	10.970000	0.000000	0.000000	137.000000	51.000000	-10.000000	-14.000000
0.490000	19.060000	10.820000	0.000000	0.000000	137.000000	51.000000	-12.000000	-15.000000
0.500000	18.940000	10.730000	0.000000	0.000000	137.000000	51.000000	-12.000000	-9.000000
0.510000	18.850000	10.670000	0.000000	0.000000	137.000000	51.000000	-9.000000	-6.000000
0.520000	18.850000	10.670000	0.000000	0.000000	137.000000	51.000000	0.000000	0.000000
0.530000	18.850000	10.670000	68.000000	1.000000	137.000000	51.000000	0.000000	0.000000
0.540000	18.850000	10.670000	165.000000	0.000000	137.000000	51.000000	0.000000	0.000000
0.550000	18.750000	10.980000	235.000000	0.000000	136.000000	51.000000	-10.000000	31.000000
0.560000	18.800000	11.120000	294.000000	0.000000	135.000000	51.000000	5.000000	14.000000
0.570000	18.880000	11.320000	346.000000	0.000000	135.000000	51.000000	8.000000	20.000000
0.580000	19.030000	11.570000	399.000000	0.000000	135.000000	51.000000	15.000000	25.000000
0.590000	19.200000	11.760000	422.000000	0.000000	135.000000	51.000000	17.000000	19.000000
0.600000	19.400000	11.900000	460.000000	0.000000	135.000000	51.000000	20.000000	14.000000
0.610000	19.540000	11.830000	492.000000	0.000000	135.000000	51.000000	14.000000	-7.000000
0.620000	19.630000	11.650000	535.000000	0.000000	135.000000	51.000000	9.000000	-18.000000
0.630000	19.630000	11.350000	536.000000	0.000000	135.000000	51.000000	0.000000	-30.000000
0.640000	19.550000	11.040000	545.000000	0.000000	135.000000	51.000000	-8.000000	-31.000000
0.650000	19.370000	10.820000	548.000000	0.000000	135.000000	51.000000	-18.000000	-22.000000
0.660000	19.190000	10.660000	541.000000	0.000000	135.000000	51.000000	-18.000000	-16.000000
0.670000	19.000000	10.660000	504.000000	0.000000	135.000000	51.000000	-19.000000	0.000000
0.680000	18.790000	10.780000	448.000000	0.000000	135.000000	51.000000	-21.000000	12.000000
0.690000	18.680000	10.980000	233.000000	0.000000	135.000000	51.000000	-11.000000	20.000000
0.700000	18.680000	10.980000	0.000000	1.000000	135.000000	51.000000	0.000000	0.000000
0.710000	18.680000	11.300000	0.000000	0.000000	135.000000	51.000000	0.000000	32.000000
0.720000	18.890000	11.450000	0.000000	0.000000	135.000000	51.000000	21.000000	15.000000
0.730000	19.250000	11.600000	0.000000	0.000000	135.000000	51.000000	36.000000	15.000000
0.740000	19.730000	11.720000	0.000000	0.000000	136.000000	50.000000	48.000000	12.000000
0.750000	20.240000	11.770000	0.000000	0.000000	136.000000	50.000000	51.000000	5.000000
0.760000	20.750000	11.770000	0.000000	0.000000	136.000000	50.000000	51.000000	0.000000
0.770000	21.260000	11.720000	0.000000	0.000000	136.000000	50.000000	51.000000	-5.000000
0.780000	21.490000	11.720000	0.000000	0.000000	137.000000	50.000000	23.000000	0.000000
0.790000	21.540000	11.650000	0.000000	0.000000	137.000000	50.000000	5.000000	-7.000000
0.800000	21.470000	11.560000	0.000000	0.000000	136.000000	50.000000	-7.000000	-9.000000
0.810000	21.300000	11.460000	0.000000	0.000000	136.000000	50.000000	-17.000000	-10.000000
0.820000	21.060000	11.340000	0.000000	0.000000	136.000000	50.000000	-24.000000	-12.000000
0.830000	20.780000	11.280000	0.000000	0.000000	136.000000	50.000000	-28.000000	-6.000000
0.840000	20.510000	11.280000	0.000000	0.000000	136.000000	50.000000	-27.000000	0.000000
0.850000	20.250000	11.280000	0.000000	0.000000	136.000000	50.000000	-26.000000	0.000000
0.860000	20.130000	11.280000	0.000000	0.000000	136.000000	50.000000	-12.000000	0.000000
0.870000	20.030000	11.280000	0.000000	0.000000	136.000000	50.000000	-10.000000	0.000000
0.880000	19.980000	11.280000	0.000000	0.000000	137.000000	51.000000	-5.000000	0.000000
0.890000	19.980000	11.280000	0.000000	0.000000	137.000000	51.000000	0.000000	0.000000
0.900000	19.980000	11.280000	53.000000	1.000000	137.000000	51.000000	0.000000	0.000000
0.910000	19.980000	11.280000	143.000000	0.000000	137.000000	51.000000	0.000000	0.000000
0.920000	20.230000	11.360000	265.000000	0.000000	136.000000	51.000000	25.000000	8.000000
0.930000	20.410000	11.510000	371.000000	0.000000	136.000000	51.000000	18.000000	15.000000
0.940000	20.580000	11.730000	439.000000	0.000000	136.000000	51.000000	17.000000	22.000000
0.950000	20.770000	11.930000	477.000000	0.000000	136.000000	51.000000	19.000000	20.000000
0.960000	20.900000	12.120000	493.000000	0.000000	136.000000	51.000000	13.000000	19.000000
0.970000	20.980000	12.190000	491.000000	0.000000	136.000000	51.000000	8.000000	7.000000
0.980000	21.060000	12.100000	488.000000	0.000000	136.000000	51.000000	8.000000	-9.000000
0.990000	21.110000	11.900000	496.000000	0.000000	136.000000	52.000000	5.000000	-20.000000
1.000000	21.110000	11.650000	489.000000	0.000000	136.000000	52.000000	0.000000	-25.000000
1.010000	21.110000	11.400000	498.000000	0.000000	136.000000	52.000000	0.000000	-25.000000
1.020000	21.000000	11.160000	495.000000	0.000000	136.000000	52.000000	-11.000000	-24.000000
1.030000	20.860000	11.030000	495.000000	0.000000	136.000000	52.000000	-14.000000	-13.000000
1.040000	20.690000	11.030000	486.000000	0.000000	136.000000	52.000000	-17.000000	0.000000
1.050000	20.500000	10.950000	448.000000	0.000000	136.000000	52.000000	-19.000000	-8.000000
1.060000	20.290000	10.950000	366.000000	0.000000	136.000000	52.000000	-21.000000	0.000000
1.070000	20.290000	11.060000	226.000000	0.000000	136.000000	52.000000	0.000000	11.000000
1.080000	20.290000	11.060000	81.000000	0.000000	136.000000	52.000000	0.000000	0.000000
1.090000	20.290000	11.060000	0.000000	1.000000	135.000000	52.000000	0.000000	0.000000
1.100000	20.830000	11.060000	0.000000	0.000000	135.000000	52.000000	54.000000	0.000000
1.110000	21.210000	11.120000	0.000000	0.000000	136.000000	51.000000	38.000000	6.000000
1.120000	21.210000	11.120000	83.000000	1.000000	136.000000	51.000000	0.000000	0.000000
1.130000	22.000000	11.390000	101.000000	0.000000	137.000000	52.000000	79.000000	27.000000
1.140000	22.210000	11.630000	175.000000	0.000000	137.000000	52.000000	21.000000	24.000000
1.150000	22.320000	11.870000	253.000000	0.000000	136.000000	52.000000	11.000000	24.000000
1.160000	22.320000	12.100000	339.000000	0.000000	136.000000	52.000000	0.000000	23.000000
1.170000	22.240000	12.290000	400.000000	0.000000	136.000000	52.000000	-8.000000	19.000000
1.180000	22.140000	12.400000	418.000000	0.000000	136.000000	52.000000	-10.000000	11.000000
1.190000	22.040000	12.400000	447.000000	0.000000	136.000000	52.000000	-10.000000	0.000000
1.200000	21.920000	12.350000	453.000000	0.000000	136.000000	52.000000	-12.000000	-5.000000
1.210000	21.790000	12.230000	456.000000	0.000000	136.000000	52.000000	-13.000000	-12.000000
1.220000	21.790000	12.060000	458.000000	0.000000	136.000000	52.000000	0.000000	-17.000000
1.230000	21.790000	11.750000	461.000000	0.000000	136.000000	52.000000	0.000000	-31.000000
1.240000	21.790000	11.350000	465.000000	0.000000	136.000000	52.000000	0.000000	-40.000000
1.250000	21.860000	11.020000	464.000000	0.000000	136.000000	52.000000	7.000000	-33.000000
1.260000	21.990000	10.790000	480.000000	0.000000	136.000000	52.000000	13.000000	-23.000000
1.270000	22.140000	10.640000	460.000000	0.000000	136.000000	52.000000	15.000000	-15.000000
1.280000	22.260000	10.640000	364.000000	0.000000	136.000000	52.000000	12.000000	0.000000
1.290000	22.440000	10.830000	15.000000	0.000000	136.000000	52.000000	18.000000	19.000000
1.300000	22.440000	10.830000	0.000000	1.000000	136.000000	52.000000	0.000000	0.000000
1.310000	22.830000	11.450000	0.000000	0.000000	136.000000	52.000000	39.000000	62.000000
1.320000	22.880000	11.830000	0.000000	0.000000	136.000000	52.000000	5.000000	38.000000
1.330000	22.880000	12.230000	0.000000	0.000000	136.000000	52.000000	0.000000	40.000000
1.340000	22.880000	12.640000	0.000000	0.000000	136.000000	52.000000	0.000000	41.000000
1.350000	22.950000	13.020000	0.000000	0.000000	136.000000	51.000000	7.000000	38.000000
1.360000	22.950000	13.340000	0.000000	0.000000	135.000000	51.000000	0.000000	32.000000
1.370000	22.950000	13.470000	0.000000	0.000000	136.000000	50.000000	0.000000	13.000000
1.380000	22.950000	13.470000	0.000000	0.000000	136.000000	49.000000	0.000000	0.000000
1.390000	22.950000	13.370000	0.000000	0.000000	136.000000	49.000000	0.000000	-10.000000
1.400000	22.830000	13.260000	0.000000	0.000000	136.000000	49.000000	-12.000000	-11.000000
1.410000	22.740000	13.130000	0.000000	0.000000	137.000000	48.000000	-9.000000	-13.000000
1.420000	22.740000	13.130000	399.000000	1.000000	136.000000	49.000000	0.000000	0.000000
1.430000	22.600000	13.440000	643.000000	0.000000	136.000000	49.000000	-14.000000	31.000000
1.440000	22.600000	13.620000	780.000000	0.000000	136.000000	50.000000	0.000000	18.000000
1.450000	22.740000	13.850000	826.000000	0.000000	136.000000	50.000000	14.000000	23.000000
1.460000	22.930000	14.110000	821.000000	0.000000	136.000000	51.000000	19.000000	26.000000
1.470000	23.120000	14.320000	771.000000	0.000000	135.000000	52.000000	19.000000	21.000000
1.480000	23.360000	14.530000	574.000000	0.000000	136.000000	52.000000	24.000000	21.000000
1.490000	23.360000	14.530000	0.000000	1.000000	136.000000	52.000000	0.000000	0.000000
1.500000	24.340000	15.210000	0.000000	0.000000	137.000000	53.000000	98.000000	68.000000
1.510000	24.800000	15.550000	0.000000	0.000000	139.000000	52.000000	46.000000	34.000000
1.520000	25.290000	15.930000	0.000000	0.000000	139.000000	52.000000	49.000000	38.000000
1.530000	25.810000	16.330000	0.000000	0.000000	140.000000	52.000000	52.000000	40.000000
1.540000	26.530000	16.670000	0.000000	0.000000	141.000000	51.000000	72.000000	34.000000
1.550000	27.310000	16.870000	0.000000	0.000000	142.000000	50.000000	78.000000	20.000000
1.560000	28.070000	16.970000	0.000000	0.000000	142.000000	49.000000	76.000000	10.000000
1.570000	28.790000	16.870000	0.000000	0.000000	142.000000	48.000000	72.000000	-10.000000
1.580000	29.390000	16.540000	0.000000	0.000000	142.000000	47.000000	60.000000	-33.000000
1.590000	29.750000	16.070000	0.000000	0.000000	140.000000	47.000000	36.000000	-47.000000
1.600000	29.950000	15.430000	0.000000	0.000000	140.000000	46.000000	20.000000	-64.000000
1.610000	30.040000	14.900000	0.000000	0.000000	140.000000	46.000000	9.000000	-53.000000
1.620000	30.040000	14.440000	0.000000	0.000000	140.000000	46.000000	0.000000	-46.000000
1.630000	29.910000	14.130000	0.000000	0.000000	138.000000	46.000000	-13.000000	-31.000000
1.640000	29.780000	14.010000	0.000000	0.000000	139.000000	46.000000	-13.000000	-12.000000
1.650000	29.590000	14.010000	0.000000	0.000000	139.000000	46.000000	-19.000000	0.000000
1.660000	29.370000	14.010000	0.000000	0.000000	138.000000	47.000000	-22.000000	0.000000
1.670000	29.110000	14.010000	0.000000	0.000000	138.000000	47.000000	-26.000000	0.000000
1.680000	28.880000	14.010000	0.000000	0.000000	138.000000	47.000000	-23.000000	0.000000
1.690000	28.710000	14.010000	0.000000	0.000000	138.000000	47.000000	-17.000000	0.000000
1.700000	28.580000	13.890000	0.000000	0.000000	138.000000	47.000000	-13.000000	-12.000000
1.710000	28.460000	13.620000	0.000000	0.000000	137.000000	47.000000	-12.000000	-27.000000
1.720000	28.290000	13.240000	0.000000	0.000000	137.000000	47.000000	-17.000000	-38.000000
1.730000	28.090000	12.710000	0.000000	0.000000	138.000000	48.000000	-20.000000	-53.000000
1.740000	27.850000	12.150000	0.000000	0.000000	137.000000	48.000000	-24.000000	-56.000000
1.750000	27.610000	11.740000	0.000000	0.000000	137.000000	48.000000	-24.000000	-41.000000
1.760000	27.410000	11.440000	0.000000	0.000000	138.000000	49.000000	-20.000000	-30.000000
1.770000	27.240000	11.250000	0.000000	0.000000	137.000000	50.000000	-17.000000	-19.000000
1.780000	27.120000	11.200000	0.000000	0.000000	137.000000	50.000000	-12.000000	-5.000000
1.790000	27.070000	11.200000	0.000000	0.000000	137.000000	50.000000	-5.000000	0.000000
1.800000	27.070000	11.320000	0.000000	0.000000	137.000000	50.000000	0.000000	12.000000
1.810000	27.070000	11.430000	0.000000	0.000000	136.000000	50.000000	0.000000	11.000000
1.820000	27.150000	11.570000	0.000000	0.000000	136.000000	50.000000	8.000000	14.000000
1.830000	27.240000	11.720000	0.000000	0.000000	136.000000	50.000000	9.000000	15.000000
1.840000	27.350000	11.900000	0.000000	0.000000	136.000000	50.000000	11.000000	18.000000
1.850000	27.450000	12.100000	0.000000	0.000000	135.000000	50.000000	10.000000	20.000000
1.860000	27.550000	12.310000	0.000000	0.000000	135.000000	50.000000	10.000000	21.000000
1.870000	27.700000	12.560000	0.000000	0.000000	135.000000	50.000000	15.000000	25.000000
1.880000	27.880000	12.850000	0.000000	0.000000	135.000000	50.000000	18.000000	29.000000
1.890000	28.080000	13.170000	0.000000	0.000000	135.000000	50.000000	20.000000	32.000000
1.900000	28.280000	13.440000	0.000000	0.000000	135.000000	50.000000	20.000000	27.000000
1.910000	28.420000	13.600000	0.000000	0.000000	135.000000	50.000000	14.000000	16.000000
1.920000	28.520000	13.670000	0.000000	0.000000	135.000000	50.000000	10.000000	7.000000
1.930000	28.580000	13.670000	0.000000	0.000000	135.000000	50.000000	6.000000	0.000000
1.940000	28.580000	13.590000	0.000000	0.000000	136.000000	49.000000	0.000000	-8.000000
1.950000	28.580000	13.510000	0.000000	0.000000	136.000000	49.000000	0.000000	-8.000000
1.960000	28.580000	13.440000	0.000000	0.000000	136.000000	49.000000	0.000000	-7.000000
1.970000	28.510000	13.340000	0.000000	0.000000	136.000000	49.000000	-7.000000	-10.000000
1.980000	28.450000	13.240000	0.000000	0.000000	136.000000	49.000000	-6.000000	-10.000000
1.990000	28.330000	13.150000	0.000000	0.000000	136.000000	49.000000	-12.000000	-9.000000
2.000000	28.210000	13.060000	0.000000	0.000000	135.000000	50.000000	-12.000000	-9.000000
2.010000	28.090000	13.000000	0.000000	0.000000	135.000000	50.000000	-12.000000	-6.000000
2.020000	27.990000	12.920000	0.000000	0.000000	136.000000	50.000000	-10.000000	-8.000000
2.030000	27.880000	12.840000	0.000000	0.000000	136.000000	50.000000	-11.000000	-8.000000
2.040000	27.780000	12.710000	0.000000	0.000000	136.000000	50.000000	-10.000000	-13.000000
2.050000	27.690000	12.590000	0.000000	0.000000	136.000000	50.000000	-9.000000	-12.000000
2.060000	27.610000	12.510000	0.000000	0.000000	136.000000	50.000000	-8.000000	-8.000000
2.070000	27.520000	12.460000	0.000000	0.000000	136.000000	50.000000	-9.000000	-5.000000
2.080000	27.460000	12.460000	0.000000	0.000000	136.000000	50.000000	-6.000000	0.000000
2.090000	27.370000	12.540000	0.000000	0.000000	136.000000	50.000000	-9.000000	8.000000
2.100000	27.300000	12.540000	0.000000	0.000000	136.000000	50.000000	-7.000000	0.000000
2.110000	27.210000	12.540000	0.000000	0.000000	135.000000	50.000000	-9.000000	0.000000
2.120000	27.130000	12.540000	0.000000	0.000000	135.000000	50.000000	-8.000000	0.000000
2.130000	27.050000	12.480000	0.000000	0.000000	135.000000	50.000000	-8.000000	-6.000000
2.140000	26.970000	12.390000	0.000000	0.000000	134.000000	49.000000	-8.000000	-9.000000
2.150000	26.880000	12.260000	0.000000	0.000000	133.000000	50.000000	-9.000000	-13.000000
2.160000	26.790000	12.120000	0.000000	0.000000	133.000000	50.000000	-9.000000	-14.000000
2.170000	26.720000	11.950000	0.000000	0.000000	133.000000	50.000000	-7.000000	-17.000000
2.180000	26.670000	11.860000	0.000000	0.000000	132.000000	49.000000	-5.000000	-9.000000
2.190000	26.670000	11.860000	0.000000	0.000000	130.000000	50.000000	0.000000	0.000000
2.200000	26.670000	11.860000	0.000000	0.000000	130.000000	50.000000	0.000000	0.000000
2.210000	26.670000	11.860000	0.000000	0.000000	130.000000	50.000000	0.000000	0.000000
2.220000	26.670000	11.860000	0.000000	0.000000	128.000000	49.000000	0.000000	0.000000
2.230000	26.670000	11.860000	0.000000	0.000000	128.000000	49.000000	0.000000	0.000000
