t	x	y	pressure	penup	azimuth	inclination	v_x	v_y
0.000000	11.860000	22.650000	418.000000	1.000000	111.000000	76.000000	0.000000	0.000000
0.010000	11.860000	22.650000	760.000000	0.000000	106.000000	75.000000	0.000000	0.000000
0.020000	11.860000	22.650000	815.000000	0.000000	97.000000	75.000000	0.000000	0.000000
0.030000	11.860000	22.650000	944.000000	0.000000	93.000000	74.000000	0.000000	0.000000
0.040000	12.310000	22.670000	1021.000000	0.000000	93.000000	74.000000	45.000000	2.000000
0.050000	12.770000	22.940000	1023.000000	0.000000	90.000000	74.000000	46.000000	27.000000
0.060000	13.450000	23.350000	1023.000000	0.000000	90.000000	73.000000	68.000000	41.000000
0.070000	14.150000	24.440000	1023.000000	0.000000	90.000000	73.000000	70.000000	109.000000
0.080000	14.870000	25.910000	1023.000000	0.000000	87.000000	73.000000	72.000000	147.000000
0.090000	15.510000	27.640000	1023.000000	0.000000	87.000000	73.000000	64.000000	173.000000
0.100000	16.120000	30.020000	1023.000000	0.000000	90.000000	73.000000	61.000000	238.000000
0.110000	16.710000	32.720000	1023.000000	0.000000	90.000000	72.000000	59.000000	270.000000
0.120000	17.100000	35.630000	1023.000000	0.000000	90.000000	72.000000	39.000000	291.000000
0.130000	17.160000	37.280000	1023.000000	0.000000	93.000000	71.000000	6.000000	165.000000
0.140000	16.990000	38.400000	1023.000000	0.000000	95.000000	70.000000	-17.000000	112.000000
0.150000	16.590000	39.160000	1023.000000	0.000000	98.000000	69.000000	-40.000000	76.000000
0.160000	16.190000	39.160000	1023.000000	0.000000	102.000000	68.000000	-40.000000	0.000000
0.170000	15.980000	38.750000	1023.000000	0.000000	105.000000	67.000000	-21.000000	-41.000000
0.180000	15.880000	38.010000	1023.000000	0.000000	107.000000	67.000000	-10.000000	-74.000000
0.190000	15.880000	35.900000	1023.000000	0.000000	109.000000	67.000000	0.000000	-211.000000
0.200000	16.160000	33.290000	1023.000000	0.000000	109.000000	67.000000	28.000000	-261.000000
0.210000	16.700000	30.360000	1023.000000	0.000000	109.000000	67.000000	54.000000	-293.000000
0.220000	17.550000	28.150000	1023.000000	0.000000	110.000000	68.000000	85.000000	-221.000000
0.230000	18.440000	26.520000	1023.000000	0.000000	108.000000	68.000000	89.000000	-163.000000
0.240000	19.400000	25.270000	1023.000000	0.000000	105.000000	68.000000	96.000000	-125.000000
0.250000	20.410000	24.550000	1023.000000	0.000000	100.000000	69.000000	101.000000	-72.000000
0.260000	21.060000	24.220000	1023.000000	0.000000	98.000000	69.000000	65.000000	-33.000000
0.270000	21.480000	24.150000	1023.000000	0.000000	93.000000	70.000000	42.000000	-7.000000
0.280000	21.680000	24.310000	1023.000000	0.000000	90.000000	70.000000	20.000000	16.000000
0.290000	21.760000	24.480000	1023.000000	0.000000	90.000000	70.000000	8.000000	17.000000
0.300000	21.760000	24.660000	1023.000000	0.000000	87.000000	71.000000	0.000000	18.000000
0.310000	21.760000	24.850000	1023.000000	0.000000	87.000000	71.000000	0.000000	19.000000
0.320000	21.510000	25.110000	1023.000000	0.000000	87.000000	71.000000	-25.000000	26.000000
0.330000	21.160000	25.420000	1023.000000	0.000000	87.000000	71.000000	-35.000000	31.000000
0.340000	20.680000	25.750000	1023.000000	0.000000	87.000000	71.000000	-48.000000	33.000000
0.350000	20.250000	26.200000	1023.000000	0.000000	87.000000	71.000000	-43.000000	45.000000
0.360000	19.530000	26.660000	1023.000000	0.000000	90.000000	71.000000	-72.000000	46.000000
0.370000	18.600000	27.500000	1023.000000	0.000000	90.000000	71.000000	-93.000000	84.000000
0.380000	17.340000	28.600000	1023.000000	0.000000	90.000000	71.000000	-126.000000	110.000000
0.390000	15.930000	29.080000	1023.000000	0.000000	93.000000	71.000000	-141.000000	48.000000
0.400000	14.420000	29.020000	1023.000000	0.000000	93.000000	71.000000	-151.000000	-6.000000
0.410000	12.780000	28.590000	1023.000000	0.000000	93.000000	71.000000	-164.000000	-43.000000
0.420000	11.170000	27.580000	1023.000000	0.000000	96.000000	71.000000	-161.000000	-101.000000
0.430000	9.590000	26.540000	1023.000000	0.000000	96.000000	72.000000	-158.000000	-104.000000
0.440000	8.900000	25.470000	1023.000000	0.000000	96.000000	72.000000	-69.000000	-107.000000
0.450000	8.900000	24.890000	1023.000000	0.000000	99.000000	72.000000	0.000000	-58.000000
0.460000	9.290000	24.500000	1023.000000	0.000000	100.000000	73.000000	39.000000	-39.000000
0.470000	10.380000	24.230000	1023.000000	0.000000	97.000000	73.000000	109.000000	-27.000000
0.480000	12.020000	24.410000	1023.000000	0.000000	97.000000	73.000000	164.000000	18.000000
0.490000	14.020000	24.920000	1023.000000	0.000000	97.000000	73.000000	200.000000	51.000000
0.500000	16.120000	25.640000	1023.000000	0.000000	97.000000	73.000000	210.000000	72.000000
0.510000	18.140000	26.850000	1023.000000	0.000000	97.000000	73.000000	202.000000	121.000000
0.520000	20.100000	28.090000	1023.000000	0.000000	97.000000	73.000000	196.000000	124.000000
0.530000	22.050000	29.360000	1023.000000	0.000000	97.000000	73.000000	195.000000	127.000000
0.540000	23.580000	30.210000	1023.000000	0.000000	97.000000	73.000000	153.000000	85.000000
0.550000	24.830000	31.020000	1023.000000	0.000000	97.000000	73.000000	125.000000	81.000000
0.560000	25.850000	31.750000	1023.000000	0.000000	97.000000	73.000000	102.000000	73.000000
0.570000	26.860000	32.310000	1023.000000	0.000000	99.000000	72.000000	101.000000	56.000000
0.580000	27.820000	32.760000	1023.000000	0.000000	99.000000	72.000000	96.000000	45.000000
0.590000	28.440000	33.280000	1023.000000	0.000000	99.000000	72.000000	62.000000	52.000000
0.600000	28.880000	33.580000	1023.000000	0.000000	101.000000	71.000000	44.000000	30.000000
0.610000	29.170000	33.730000	1023.000000	0.000000	99.000000	71.000000	29.000000	15.000000
0.620000	29.260000	33.730000	1023.000000	0.000000	98.000000	70.000000	9.000000	0.000000
0.630000	29.210000	33.790000	1023.000000	0.000000	98.000000	70.000000	-5.000000	6.000000
0.640000	29.210000	33.790000	1023.000000	0.000000	98.000000	69.000000	0.000000	0.000000
0.650000	29.210000	33.790000	1023.000000	0.000000	98.000000	69.000000	0.000000	0.000000
0.660000	29.210000	33.790000	1023.000000	0.000000	98.000000	69.000000	0.000000	0.000000
0.670000	29.210000	33.790000	1023.000000	0.000000	97.000000	68.000000	0.000000	0.000000
0.680000	29.210000	33.790000	1023.000000	0.000000	97.000000	68.000000	0.000000	0.000000
0.690000	29.210000	33.790000	1023.000000	0.000000	97.000000	68.000000	0.000000	0.000000
0.700000	29.210000	33.790000	1023.000000	0.000000	97.000000	68.000000	0.000000	0.000000
0.710000	29.210000	33.790000	1023.000000	0.000000	97.000000	68.000000	0.000000	0.000000
0.720000	29.210000	33.790000	1023.000000	0.000000	97.000000	68.000000	0.000000	0.000000
0.730000	29.210000	33.790000	1023.000000	0.000000	97.000000	68.000000	0.000000	0.000000
0.740000	29.210000	33.790000	1023.000000	0.000000	97.000000	68.000000	0.000000	0.000000
0.750000	29.210000	33.790000	1023.000000	0.000000	97.000000	68.000000	0.000000	0.000000
0.760000	29.210000	33.790000	1023.000000	0.000000	95.000000	68.000000	0.000000	0.000000
0.770000	29.210000	33.790000	1023.000000	0.000000	95.000000	68.000000	0.000000	0.000000
0.780000	29.210000	33.790000	1023.000000	0.000000	95.000000	68.000000	0.000000	0.000000
0.790000	29.210000	33.790000	1023.000000	0.000000	95.000000	68.000000	0.000000	0.000000
0.800000	29.210000	33.790000	1023.000000	0.000000	95.000000	68.000000	0.000000	0.000000
0.810000	29.210000	33.790000	1023.000000	0.000000	95.000000	68.000000	0.000000	0.000000
0.820000	29.210000	33.790000	1023.000000	0.000000	95.000000	68.000000	0.000000	0.000000
0.830000	29.210000	33.840000	1023.000000	0.000000	95.000000	68.000000	0.000000	5.000000
0.840000	29.210000	33.840000	1023.000000	0.000000	95.000000	68.000000	0.000000	0.000000
0.850000	29.210000	33.840000	1023.000000	0.000000	95.000000	68.000000	0.000000	0.000000
0.860000	29.210000	33.840000	1023.000000	0.000000	95.000000	68.000000	0.000000	0.000000
0.870000	29.210000	33.840000	1023.000000	0.000000	95.000000	68.000000	0.000000	0.000000
0.880000	29.210000	33.840000	976.000000	0.000000	95.000000	68.000000	0.000000	0.000000
0.890000	29.210000	33.840000	279.000000	0.000000	95.000000	68.000000	0.000000	0.000000
0.900000	29.210000	33.840000	0.000000	1.000000	97.000000	68.000000	0.000000	0.000000
0.910000	28.280000	33.120000	0.000000	0.000000	97.000000	68.000000	-93.000000	-72.000000
0.920000	27.800000	32.580000	0.000000	0.000000	97.000000	68.000000	-48.000000	-54.000000
0.930000	27.310000	32.070000	0.000000	0.000000	97.000000	68.000000	-49.000000	-51.000000
0.940000	26.810000	31.590000	0.000000	0.000000	97.000000	67.000000	-50.000000	-48.000000
0.950000	26.250000	31.170000	0.000000	0.000000	97.000000	68.000000	-56.000000	-42.000000
0.960000	25.670000	30.750000	0.000000	0.000000	97.000000	68.000000	-58.000000	-42.000000
0.970000	25.090000	30.350000	0.000000	0.000000	97.000000	68.000000	-58.000000	-40.000000
0.980000	24.530000	29.960000	0.000000	0.000000	98.000000	69.000000	-56.000000	-39.000000
0.990000	24.000000	29.720000	0.000000	0.000000	98.000000	69.000000	-53.000000	-24.000000
1.000000	23.530000	29.570000	0.000000	0.000000	98.000000	69.000000	-47.000000	-15.000000
1.010000	23.130000	29.470000	0.000000	0.000000	98.000000	69.000000	-40.000000	-10.000000
1.020000	22.960000	29.550000	0.000000	0.000000	98.000000	69.000000	-17.000000	8.000000
1.030000	22.960000	29.860000	0.000000	0.000000	98.000000	69.000000	0.000000	31.000000
1.040000	22.960000	30.330000	0.000000	0.000000	98.000000	69.000000	0.000000	47.000000
1.050000	22.960000	30.330000	47.000000	1.000000	98.000000	69.000000	0.000000	0.000000
1.060000	23.220000	31.620000	669.000000	0.000000	100.000000	69.000000	26.000000	129.000000
1.070000	23.220000	32.280000	749.000000	0.000000	103.000000	69.000000	0.000000	66.000000
1.080000	23.220000	32.770000	849.000000	0.000000	103.000000	69.000000	0.000000	49.000000
1.090000	23.030000	33.000000	995.000000	0.000000	105.000000	68.000000	-19.000000	23.000000
1.100000	22.770000	33.070000	1023.000000	0.000000	106.000000	69.000000	-26.000000	7.000000
1.110000	22.430000	32.900000	1023.000000	0.000000	106.000000	69.000000	-34.000000	-17.000000
1.120000	21.880000	32.110000	1023.000000	0.000000	110.000000	70.000000	-55.000000	-79.000000
1.130000	21.330000	30.920000	1023.000000	0.000000	110.000000	70.000000	-55.000000	-119.000000
1.140000	20.790000	29.470000	1023.000000	0.000000	107.000000	70.000000	-54.000000	-145.000000
1.150000	20.790000	28.360000	1023.000000	0.000000	107.000000	70.000000	0.000000	-111.000000
1.160000	21.170000	27.480000	1023.000000	0.000000	107.000000	70.000000	38.000000	-88.000000
1.170000	21.720000	26.770000	1023.000000	0.000000	104.000000	69.000000	55.000000	-71.000000
1.180000	22.420000	26.450000	1023.000000	0.000000	101.000000	70.000000	70.000000	-32.000000
1.190000	23.150000	26.380000	1023.000000	0.000000	99.000000	71.000000	73.000000	-7.000000
1.200000	23.780000	26.520000	1023.000000	0.000000	96.000000	71.000000	63.000000	14.000000
1.210000	24.330000	26.970000	1023.000000	0.000000	96.000000	71.000000	55.000000	45.000000
1.220000	24.580000	27.640000	1023.000000	0.000000	93.000000	71.000000	25.000000	67.000000
1.230000	24.640000	27.990000	1023.000000	0.000000	93.000000	72.000000	6.000000	35.000000
1.240000	24.580000	28.330000	818.000000	0.000000	93.000000	72.000000	-6.000000	34.000000
1.250000	24.350000	28.620000	148.000000	0.000000	93.000000	72.000000	-23.000000	29.000000
1.260000	24.350000	28.620000	0.000000	1.000000	96.000000	72.000000	0.000000	0.000000
1.270000	23.690000	28.920000	0.000000	0.000000	96.000000	72.000000	-66.000000	30.000000
1.280000	23.590000	29.040000	0.000000	0.000000	99.000000	72.000000	-10.000000	12.000000
1.290000	23.660000	29.180000	0.000000	0.000000	99.000000	71.000000	7.000000	14.000000
1.300000	23.850000	29.380000	0.000000	0.000000	99.000000	71.000000	19.000000	20.000000
1.310000	23.850000	29.380000	438.000000	1.000000	101.000000	71.000000	0.000000	0.000000
1.320000	24.380000	29.740000	641.000000	0.000000	101.000000	70.000000	53.000000	36.000000
1.330000	24.690000	29.800000	869.000000	0.000000	101.000000	70.000000	31.000000	6.000000
1.340000	24.930000	29.860000	1023.000000	0.000000	101.000000	70.000000	24.000000	6.000000
1.350000	25.150000	29.950000	1023.000000	0.000000	101.000000	71.000000	22.000000	9.000000
1.360000	25.290000	30.050000	1023.000000	0.000000	101.000000	71.000000	14.000000	10.000000
1.370000	25.370000	30.190000	1023.000000	0.000000	101.000000	71.000000	8.000000	14.000000
1.380000	25.640000	30.550000	1023.000000	0.000000	105.000000	71.000000	27.000000	36.000000
1.390000	25.930000	31.060000	1023.000000	0.000000	105.000000	71.000000	29.000000	51.000000
1.400000	26.220000	31.840000	1023.000000	0.000000	105.000000	71.000000	29.000000	78.000000
1.410000	26.220000	32.720000	1023.000000	0.000000	105.000000	71.000000	0.000000	88.000000
1.420000	26.080000	33.680000	1023.000000	0.000000	105.000000	71.000000	-14.000000	96.000000
1.430000	25.710000	34.000000	1023.000000	0.000000	105.000000	71.000000	-37.000000	32.000000
1.440000	25.200000	34.000000	1023.000000	0.000000	105.000000	71.000000	-51.000000	0.000000
1.450000	24.590000	33.740000	1023.000000	0.000000	105.000000	71.000000	-61.000000	-26.000000
1.460000	24.080000	32.960000	1023.000000	0.000000	105.000000	71.000000	-51.000000	-78.000000
1.470000	23.850000	31.800000	1023.000000	0.000000	105.000000	71.000000	-23.000000	-116.000000
1.480000	23.850000	30.380000	1023.000000	0.000000	108.000000	71.000000	0.000000	-142.000000
1.490000	23.990000	29.540000	1023.000000	0.000000	108.000000	71.000000	14.000000	-84.000000
1.500000	24.410000	28.860000	1023.000000	0.000000	108.000000	71.000000	42.000000	-68.000000
1.510000	24.980000	28.300000	1023.000000	0.000000	105.000000	71.000000	57.000000	-56.000000
1.520000	25.510000	28.030000	1023.000000	0.000000	105.000000	71.000000	53.000000	-27.000000
1.530000	25.980000	27.940000	1023.000000	0.000000	105.000000	71.000000	47.000000	-9.000000
1.540000	26.300000	27.940000	1023.000000	0.000000	102.000000	72.000000	32.000000	0.000000
1.550000	26.550000	28.260000	1023.000000	0.000000	102.000000	72.000000	25.000000	32.000000
1.560000	26.740000	28.590000	817.000000	0.000000	99.000000	72.000000	19.000000	33.000000
1.570000	26.740000	28.950000	277.000000	0.000000	99.000000	72.000000	0.000000	36.000000
1.580000	26.740000	28.950000	0.000000	1.000000	99.000000	72.000000	0.000000	0.000000
1.590000	26.430000	28.910000	0.000000	0.000000	99.000000	72.000000	-31.000000	-4.000000
1.600000	26.290000	28.700000	0.000000	0.000000	99.000000	71.000000	-14.000000	-21.000000
1.610000	26.240000	28.530000	0.000000	0.000000	99.000000	71.000000	-5.000000	-17.000000
1.620000	26.240000	28.380000	0.000000	0.000000	99.000000	71.000000	0.000000	-15.000000
1.630000	26.330000	28.320000	0.000000	0.000000	99.000000	71.000000	9.000000	-6.000000
1.640000	26.420000	28.320000	0.000000	0.000000	99.000000	71.000000	9.000000	0.000000
1.650000	26.510000	28.320000	0.000000	0.000000	96.000000	72.000000	9.000000	0.000000
1.660000	26.510000	28.390000	0.000000	0.000000	96.000000	72.000000	0.000000	7.000000
1.670000	26.410000	28.390000	0.000000	0.000000	96.000000	72.000000	-10.000000	0.000000
1.680000	26.240000	28.270000	0.000000	0.000000	96.000000	72.000000	-17.000000	-12.000000
1.690000	26.070000	28.140000	0.000000	0.000000	93.000000	72.000000	-17.000000	-13.000000
1.700000	25.910000	28.000000	0.000000	0.000000	93.000000	72.000000	-16.000000	-14.000000
1.710000	25.750000	27.840000	0.000000	0.000000	93.000000	72.000000	-16.000000	-16.000000
1.720000	25.680000	27.740000	0.000000	0.000000	93.000000	72.000000	-7.000000	-10.000000
1.730000	25.620000	27.680000	0.000000	0.000000	93.000000	72.000000	-6.000000	-6.000000
1.740000	25.570000	27.610000	0.000000	0.000000	93.000000	72.000000	-5.000000	-7.000000
1.750000	25.480000	27.610000	0.000000	0.000000	93.000000	72.000000	-9.000000	0.000000
1.760000	25.350000	27.610000	0.000000	0.000000	90.000000	72.000000	-13.000000	0.000000
1.770000	25.200000	27.540000	0.000000	0.000000	90.000000	72.000000	-15.000000	-7.000000
1.780000	25.110000	27.540000	0.000000	0.000000	90.000000	72.000000	-9.000000	0.000000
1.790000	25.040000	27.430000	0.000000	0.000000	90.000000	71.000000	-7.000000	-11.000000
1.800000	25.040000	27.370000	0.000000	0.000000	90.000000	71.000000	0.000000	-6.000000
1.810000	25.040000	27.300000	0.000000	0.000000	90.000000	71.000000	0.000000	-7.000000
1.820000	25.040000	27.300000	0.000000	0.000000	90.000000	71.000000	0.000000	0.000000
1.830000	25.040000	27.300000	0.000000	0.000000	90.000000	71.000000	0.000000	0.000000
1.840000	25.140000	27.420000	0.000000	0.000000	90.000000	71.000000	10.000000	12.000000
1.850000	25.240000	27.520000	0.000000	0.000000	90.000000	71.000000	10.000000	10.000000
1.860000	25.370000	27.620000	0.000000	0.000000	90.000000	71.000000	13.000000	10.000000
1.870000	25.510000	27.740000	0.000000	0.000000	90.000000	71.000000	14.000000	12.000000
1.880000	25.680000	27.890000	0.000000	0.000000	90.000000	71.000000	17.000000	15.000000
1.890000	25.910000	28.060000	0.000000	0.000000	90.000000	71.000000	23.000000	17.000000
1.900000	26.120000	28.180000	0.000000	0.000000	90.000000	72.000000	21.000000	12.000000
1.910000	26.260000	28.290000	0.000000	0.000000	90.000000	72.000000	14.000000	11.000000
1.920000	26.370000	28.370000	0.000000	0.000000	90.000000	72.000000	11.000000	8.000000
1.930000	26.470000	28.450000	0.000000	0.000000	90.000000	72.000000	10.000000	8.000000
1.940000	26.540000	28.560000	0.000000	0.000000	90.000000	72.000000	7.000000	11.000000
1.950000	26.600000	28.680000	0.000000	0.000000	90.000000	72.000000	6.000000	12.000000
1.960000	26.660000	28.790000	0.000000	0.000000	93.000000	71.000000	6.000000	11.000000
1.970000	26.740000	28.900000	0.000000	0.000000	93.000000	70.000000	8.000000	11.000000
1.980000	26.850000	29.000000	0.000000	0.000000	93.000000	70.000000	11.000000	10.000000
1.990000	27.020000	29.050000	0.000000	0.000000	93.000000	69.000000	17.000000	5.000000
2.000000	27.070000	29.050000	0.000000	0.000000	92.000000	68.000000	5.000000	0.000000
2.010000	27.070000	29.120000	0.000000	0.000000	92.000000	68.000000	0.000000	7.000000
2.020000	27.070000	29.120000	0.000000	0.000000	92.000000	67.000000	0.000000	0.000000
2.030000	27.010000	29.120000	0.000000	0.000000	92.000000	67.000000	-6.000000	0.000000
2.040000	27.010000	29.120000	0.000000	0.000000	92.000000	67.000000	0.000000	0.000000
2.050000	26.960000	29.120000	0.000000	0.000000	92.000000	67.000000	-5.000000	0.000000
2.060000	26.960000	29.120000	0.000000	0.000000	95.000000	68.000000	0.000000	0.000000
2.070000	27.090000	29.120000	0.000000	0.000000	95.000000	68.000000	13.000000	0.000000
2.080000	27.090000	29.120000	0.000000	0.000000	95.000000	68.000000	0.000000	0.000000
2.090000	27.330000	29.380000	0.000000	0.000000	95.000000	68.000000	24.000000	26.000000
2.100000	27.390000	29.560000	0.000000	0.000000	95.000000	68.000000	6.000000	18.000000
2.110000	27.460000	29.780000	0.000000	0.000000	95.000000	68.000000	7.000000	22.000000
2.120000	27.460000	29.950000	0.000000	0.000000	95.000000	68.000000	0.000000	17.000000
2.130000	27.460000	30.110000	0.000000	0.000000	95.000000	68.000000	0.000000	16.000000
2.140000	27.380000	30.260000	0.000000	0.000000	95.000000	68.000000	-8.000000	15.000000
2.150000	27.310000	30.410000	0.000000	0.000000	95.000000	68.000000	-7.000000	15.000000
2.160000	27.260000	30.580000	0.000000	0.000000	95.000000	68.000000	-5.000000	17.000000
2.170000	27.260000	30.690000	0.000000	0.000000	95.000000	68.000000	0.000000	11.000000
2.180000	27.210000	30.690000	0.000000	0.000000	97.000000	68.000000	-5.000000	0.000000
2.190000	27.210000	30.610000	0.000000	0.000000	97.000000	67.000000	0.000000	-8.000000
2.200000	27.140000	30.430000	0.000000	0.000000	97.000000	67.000000	-7.000000	-18.000000
2.210000	27.140000	30.300000	0.000000	0.000000	97.000000	67.000000	0.000000	-13.000000
2.220000	27.140000	30.300000	0.000000	0.000000	97.000000	67.000000	0.000000	0.000000
2.230000	27.140000	30.300000	0.000000	0.000000	97.000000	67.000000	0.000000	0.000000
