t	x	y	pressure	penup	azimuth	inclination	v_x	v_y
0.000000	107.070000	46.660000	104.000000	1.000000	171.000000	52.000000	0.000000	0.000000
0.010000	107.790000	46.180000	188.000000	0.000000	172.000000	54.000000	72.000000	-48.000000
0.020000	108.000000	46.270000	371.000000	0.000000	171.000000	55.000000	21.000000	9.000000
0.030000	108.120000	46.480000	491.000000	0.000000	173.000000	56.000000	12.000000	21.000000
0.040000	108.280000	46.800000	630.000000	0.000000	173.000000	56.000000	16.000000	32.000000
0.050000	108.430000	47.170000	694.000000	0.000000	174.000000	57.000000	15.000000	37.000000
0.060000	108.580000	47.570000	757.000000	0.000000	174.000000	57.000000	15.000000	40.000000
0.070000	108.730000	48.100000	777.000000	0.000000	175.000000	57.000000	15.000000	53.000000
0.080000	108.810000	48.720000	773.000000	0.000000	175.000000	57.000000	8.000000	62.000000
0.090000	108.860000	49.410000	751.000000	0.000000	177.000000	57.000000	5.000000	69.000000
0.100000	108.700000	50.350000	731.000000	0.000000	177.000000	56.000000	-16.000000	94.000000
0.110000	108.090000	51.360000	690.000000	0.000000	177.000000	56.000000	-61.000000	101.000000
0.120000	107.170000	52.420000	673.000000	0.000000	177.000000	55.000000	-92.000000	106.000000
0.130000	105.520000	53.180000	666.000000	0.000000	177.000000	55.000000	-165.000000	76.000000
0.140000	103.520000	53.530000	671.000000	0.000000	177.000000	55.000000	-200.000000	35.000000
0.150000	101.280000	53.610000	669.000000	0.000000	177.000000	54.000000	-224.000000	8.000000
0.160000	98.560000	53.280000	682.000000	0.000000	176.000000	54.000000	-272.000000	-33.000000
0.170000	95.610000	52.470000	697.000000	0.000000	176.000000	54.000000	-295.000000	-81.000000
0.180000	92.500000	51.340000	717.000000	0.000000	175.000000	53.000000	-311.000000	-113.000000
0.190000	89.730000	49.980000	731.000000	0.000000	175.000000	53.000000	-277.000000	-136.000000
0.200000	87.600000	48.550000	728.000000	0.000000	173.000000	53.000000	-213.000000	-143.000000
0.210000	85.890000	47.080000	733.000000	0.000000	173.000000	54.000000	-171.000000	-147.000000
0.220000	85.220000	46.030000	716.000000	0.000000	172.000000	54.000000	-67.000000	-105.000000
0.230000	85.510000	45.300000	727.000000	0.000000	172.000000	54.000000	29.000000	-73.000000
0.240000	86.440000	44.780000	761.000000	0.000000	171.000000	55.000000	93.000000	-52.000000
0.250000	88.060000	44.600000	785.000000	0.000000	171.000000	55.000000	162.000000	-18.000000
0.260000	90.150000	44.760000	814.000000	0.000000	171.000000	55.000000	209.000000	16.000000
0.270000	92.540000	45.140000	823.000000	0.000000	171.000000	55.000000	239.000000	38.000000
0.280000	95.150000	45.930000	821.000000	0.000000	171.000000	55.000000	261.000000	79.000000
0.290000	97.420000	46.890000	785.000000	0.000000	171.000000	55.000000	227.000000	96.000000
0.300000	99.460000	47.960000	753.000000	0.000000	171.000000	55.000000	204.000000	107.000000
0.310000	101.160000	49.270000	730.000000	0.000000	171.000000	55.000000	170.000000	131.000000
0.320000	102.270000	50.540000	728.000000	0.000000	172.000000	54.000000	111.000000	127.000000
0.330000	102.980000	51.540000	740.000000	0.000000	172.000000	54.000000	71.000000	100.000000
0.340000	102.980000	52.380000	746.000000	0.000000	172.000000	54.000000	0.000000	84.000000
0.350000	102.480000	52.910000	755.000000	0.000000	172.000000	54.000000	-50.000000	53.000000
0.360000	101.630000	53.170000	758.000000	0.000000	172.000000	53.000000	-85.000000	26.000000
0.370000	100.380000	53.250000	760.000000	0.000000	172.000000	53.000000	-125.000000	8.000000
0.380000	98.930000	52.850000	757.000000	0.000000	172.000000	53.000000	-145.000000	-40.000000
0.390000	97.350000	52.000000	777.000000	0.000000	172.000000	53.000000	-158.000000	-85.000000
0.400000	95.990000	50.850000	797.000000	0.000000	172.000000	53.000000	-136.000000	-115.000000
0.410000	94.920000	49.140000	793.000000	0.000000	172.000000	53.000000	-107.000000	-171.000000
0.420000	94.030000	47.220000	788.000000	0.000000	172.000000	53.000000	-89.000000	-192.000000
0.430000	93.840000	45.150000	797.000000	0.000000	172.000000	53.000000	-19.000000	-207.000000
0.440000	94.240000	43.160000	794.000000	0.000000	172.000000	54.000000	40.000000	-199.000000
0.450000	95.040000	41.580000	785.000000	0.000000	172.000000	54.000000	80.000000	-158.000000
0.460000	96.130000	40.280000	793.000000	0.000000	172.000000	54.000000	109.000000	-130.000000
0.470000	97.280000	39.310000	799.000000	0.000000	172.000000	54.000000	115.000000	-97.000000
0.480000	98.510000	38.670000	808.000000	0.000000	170.000000	54.000000	123.000000	-64.000000
0.490000	99.710000	38.260000	824.000000	0.000000	170.000000	54.000000	120.000000	-41.000000
0.500000	100.480000	38.170000	843.000000	0.000000	170.000000	54.000000	77.000000	-9.000000
0.510000	101.000000	38.310000	884.000000	0.000000	170.000000	54.000000	52.000000	14.000000
0.520000	101.220000	38.610000	881.000000	0.000000	170.000000	54.000000	22.000000	30.000000
0.530000	101.130000	39.240000	845.000000	0.000000	170.000000	55.000000	-9.000000	63.000000
0.540000	100.840000	40.100000	794.000000	0.000000	170.000000	55.000000	-29.000000	86.000000
0.550000	100.040000	41.110000	780.000000	0.000000	169.000000	54.000000	-80.000000	101.000000
0.560000	98.610000	42.130000	779.000000	0.000000	169.000000	54.000000	-143.000000	102.000000
0.570000	96.770000	43.080000	796.000000	0.000000	169.000000	54.000000	-184.000000	95.000000
0.580000	94.340000	43.750000	814.000000	0.000000	168.000000	53.000000	-243.000000	67.000000
0.590000	91.840000	44.250000	815.000000	0.000000	168.000000	53.000000	-250.000000	50.000000
0.600000	89.280000	44.480000	803.000000	0.000000	168.000000	53.000000	-256.000000	23.000000
0.610000	87.010000	44.690000	818.000000	0.000000	168.000000	53.000000	-227.000000	21.000000
0.620000	85.400000	44.850000	824.000000	0.000000	168.000000	53.000000	-161.000000	16.000000
0.630000	84.220000	44.970000	846.000000	0.000000	168.000000	53.000000	-118.000000	12.000000
0.640000	83.870000	45.110000	845.000000	0.000000	168.000000	53.000000	-35.000000	14.000000
0.650000	84.190000	45.260000	852.000000	0.000000	168.000000	53.000000	32.000000	15.000000
0.660000	84.950000	45.260000	854.000000	0.000000	168.000000	53.000000	76.000000	0.000000
0.670000	86.650000	45.260000	875.000000	0.000000	168.000000	52.000000	170.000000	0.000000
0.680000	89.270000	45.390000	896.000000	0.000000	168.000000	52.000000	262.000000	13.000000
0.690000	92.500000	45.740000	905.000000	0.000000	168.000000	52.000000	323.000000	35.000000
0.700000	96.410000	46.080000	897.000000	0.000000	168.000000	52.000000	391.000000	34.000000
0.710000	100.170000	46.390000	879.000000	0.000000	168.000000	52.000000	376.000000	31.000000
0.720000	103.820000	46.680000	864.000000	0.000000	170.000000	52.000000	365.000000	29.000000
0.730000	107.140000	46.780000	812.000000	0.000000	169.000000	53.000000	332.000000	10.000000
0.740000	109.790000	46.780000	717.000000	0.000000	171.000000	53.000000	265.000000	0.000000
0.750000	112.000000	46.650000	354.000000	0.000000	171.000000	53.000000	221.000000	-13.000000
