t	x	y	pressure	penup	azimuth	inclination	v_x	v_y
0.000000	52.670000	6.970000	468.000000	1.000000	120.000000	62.000000	0.000000	0.000000
0.010000	52.300000	6.550000	491.000000	0.000000	120.000000	62.000000	-37.000000	-42.000000
0.020000	52.090000	6.550000	477.000000	0.000000	120.000000	62.000000	-21.000000	0.000000
0.030000	51.900000	6.550000	499.000000	0.000000	119.000000	63.000000	-19.000000	0.000000
0.040000	52.010000	6.620000	567.000000	0.000000	119.000000	63.000000	11.000000	7.000000
0.050000	52.120000	6.860000	645.000000	0.000000	117.000000	63.000000	11.000000	24.000000
0.060000	52.440000	7.240000	694.000000	0.000000	117.000000	63.000000	32.000000	38.000000
0.070000	52.900000	7.940000	748.000000	0.000000	116.000000	64.000000	46.000000	70.000000
0.080000	53.840000	9.090000	759.000000	0.000000	114.000000	64.000000	94.000000	115.000000
0.090000	55.120000	10.540000	771.000000	0.000000	112.000000	64.000000	128.000000	145.000000
0.100000	56.620000	12.620000	768.000000	0.000000	112.000000	64.000000	150.000000	208.000000
0.110000	58.200000	15.040000	759.000000	0.000000	110.000000	65.000000	158.000000	242.000000
0.120000	59.710000	17.680000	761.000000	0.000000	112.000000	64.000000	151.000000	264.000000
0.130000	60.900000	20.150000	754.000000	0.000000	114.000000	64.000000	119.000000	247.000000
0.140000	61.900000	21.880000	771.000000	0.000000	116.000000	64.000000	100.000000	173.000000
0.150000	62.270000	23.110000	796.000000	0.000000	117.000000	63.000000	37.000000	123.000000
0.160000	62.270000	23.440000	805.000000	0.000000	121.000000	63.000000	0.000000	33.000000
0.170000	62.090000	23.490000	808.000000	0.000000	123.000000	62.000000	-18.000000	5.000000
0.180000	61.800000	23.350000	823.000000	0.000000	127.000000	62.000000	-29.000000	-14.000000
0.190000	61.210000	22.530000	821.000000	0.000000	129.000000	61.000000	-59.000000	-82.000000
0.200000	60.430000	21.050000	843.000000	0.000000	131.000000	61.000000	-78.000000	-148.000000
0.210000	59.850000	19.130000	843.000000	0.000000	132.000000	60.000000	-58.000000	-192.000000
0.220000	59.270000	16.670000	846.000000	0.000000	131.000000	61.000000	-58.000000	-246.000000
0.230000	58.840000	14.310000	854.000000	0.000000	128.000000	61.000000	-43.000000	-236.000000
0.240000	58.510000	12.030000	863.000000	0.000000	126.000000	61.000000	-33.000000	-228.000000
0.250000	58.430000	10.550000	860.000000	0.000000	122.000000	61.000000	-8.000000	-148.000000
0.260000	58.350000	9.460000	858.000000	0.000000	120.000000	62.000000	-8.000000	-109.000000
0.270000	58.350000	8.640000	869.000000	0.000000	115.000000	62.000000	0.000000	-82.000000
0.280000	58.440000	8.200000	869.000000	0.000000	112.000000	62.000000	9.000000	-44.000000
0.290000	58.590000	8.030000	863.000000	0.000000	111.000000	64.000000	15.000000	-17.000000
0.300000	58.590000	8.030000	863.000000	0.000000	109.000000	64.000000	0.000000	0.000000
0.310000	58.590000	8.100000	864.000000	0.000000	109.000000	64.000000	0.000000	7.000000
0.320000	58.490000	8.360000	861.000000	0.000000	110.000000	65.000000	-10.000000	26.000000
0.330000	58.010000	8.750000	851.000000	0.000000	110.000000	65.000000	-48.000000	39.000000
0.340000	57.260000	9.370000	852.000000	0.000000	110.000000	66.000000	-75.000000	62.000000
0.350000	55.960000	9.880000	866.000000	0.000000	110.000000	66.000000	-130.000000	51.000000
0.360000	54.360000	10.320000	873.000000	0.000000	110.000000	66.000000	-160.000000	44.000000
0.370000	52.560000	10.200000	899.000000	0.000000	110.000000	66.000000	-180.000000	-12.000000
0.380000	50.810000	10.040000	909.000000	0.000000	110.000000	66.000000	-175.000000	-16.000000
0.390000	49.540000	9.820000	915.000000	0.000000	110.000000	66.000000	-127.000000	-22.000000
0.400000	48.600000	9.600000	935.000000	0.000000	110.000000	66.000000	-94.000000	-22.000000
0.410000	48.200000	9.510000	950.000000	0.000000	110.000000	65.000000	-40.000000	-9.000000
0.420000	48.580000	9.510000	983.000000	0.000000	110.000000	65.000000	38.000000	0.000000
0.430000	49.470000	9.760000	982.000000	0.000000	109.000000	64.000000	89.000000	25.000000
0.440000	52.190000	10.990000	1002.000000	0.000000	109.000000	64.000000	272.000000	123.000000
0.450000	56.470000	12.870000	1018.000000	0.000000	108.000000	63.000000	428.000000	188.000000
0.460000	61.780000	15.270000	981.000000	0.000000	109.000000	64.000000	531.000000	240.000000
0.470000	67.860000	17.550000	903.000000	0.000000	111.000000	64.000000	608.000000	228.000000
0.480000	73.470000	19.740000	699.000000	0.000000	114.000000	64.000000	561.000000	219.000000
0.490000	78.760000	21.350000	70.000000	0.000000	117.000000	65.000000	529.000000	161.000000
0.500000	78.760000	21.350000	0.000000	1.000000	123.000000	65.000000	0.000000	0.000000
0.510000	84.900000	23.880000	0.000000	0.000000	128.000000	65.000000	614.000000	253.000000
0.520000	86.610000	24.730000	0.000000	0.000000	133.000000	65.000000	171.000000	85.000000
0.530000	87.160000	25.140000	0.000000	0.000000	138.000000	64.000000	55.000000	41.000000
0.540000	86.710000	25.270000	0.000000	0.000000	145.000000	64.000000	-45.000000	13.000000
0.550000	85.600000	25.270000	0.000000	0.000000	149.000000	63.000000	-111.000000	0.000000
0.560000	84.160000	24.730000	0.000000	0.000000	153.000000	61.000000	-144.000000	-54.000000
0.570000	82.220000	23.820000	0.000000	0.000000	155.000000	60.000000	-194.000000	-91.000000
0.580000	79.940000	23.090000	0.000000	0.000000	156.000000	59.000000	-228.000000	-73.000000
0.590000	77.780000	22.350000	0.000000	0.000000	159.000000	57.000000	-216.000000	-74.000000
0.600000	76.190000	21.720000	0.000000	0.000000	160.000000	56.000000	-159.000000	-63.000000
0.610000	74.970000	21.160000	0.000000	0.000000	160.000000	55.000000	-122.000000	-56.000000
0.620000	74.030000	20.850000	0.000000	0.000000	160.000000	55.000000	-94.000000	-31.000000
0.630000	73.130000	20.270000	0.000000	0.000000	157.000000	56.000000	-90.000000	-58.000000
0.640000	72.290000	19.510000	0.000000	0.000000	151.000000	58.000000	-84.000000	-76.000000
0.650000	71.390000	18.490000	0.000000	0.000000	143.000000	59.000000	-90.000000	-102.000000
0.660000	70.460000	17.210000	0.000000	0.000000	136.000000	58.000000	-93.000000	-128.000000
0.670000	69.450000	15.760000	0.000000	0.000000	130.000000	58.000000	-101.000000	-145.000000
0.680000	68.480000	14.320000	0.000000	0.000000	127.000000	56.000000	-97.000000	-144.000000
0.690000	67.690000	12.930000	0.000000	0.000000	127.000000	55.000000	-79.000000	-139.000000
0.700000	67.000000	11.570000	0.000000	0.000000	129.000000	55.000000	-69.000000	-136.000000
0.710000	66.240000	10.230000	0.000000	0.000000	130.000000	54.000000	-76.000000	-134.000000
0.720000	65.290000	9.180000	0.000000	0.000000	130.000000	52.000000	-95.000000	-105.000000
0.730000	64.220000	8.330000	0.000000	0.000000	128.000000	49.000000	-107.000000	-85.000000
0.740000	63.710000	7.780000	0.000000	0.000000	127.000000	49.000000	-51.000000	-55.000000
0.750000	62.860000	7.430000	0.000000	0.000000	124.000000	48.000000	-85.000000	-35.000000
0.760000	61.780000	7.220000	0.000000	0.000000	122.000000	50.000000	-108.000000	-21.000000
0.770000	61.350000	7.160000	0.000000	0.000000	122.000000	54.000000	-43.000000	-6.000000
0.780000	61.190000	7.230000	0.000000	0.000000	119.000000	56.000000	-16.000000	7.000000
0.790000	61.190000	7.390000	0.000000	0.000000	117.000000	59.000000	0.000000	16.000000
0.800000	61.250000	7.570000	0.000000	0.000000	115.000000	62.000000	6.000000	18.000000
0.810000	61.250000	7.740000	0.000000	0.000000	113.000000	63.000000	0.000000	17.000000
0.820000	61.250000	8.030000	0.000000	0.000000	111.000000	64.000000	0.000000	29.000000
0.830000	61.190000	8.390000	0.000000	0.000000	111.000000	64.000000	-6.000000	36.000000
0.840000	61.130000	8.950000	0.000000	0.000000	109.000000	64.000000	-6.000000	56.000000
0.850000	61.130000	9.620000	0.000000	0.000000	109.000000	64.000000	0.000000	67.000000
0.860000	61.130000	10.370000	0.000000	0.000000	109.000000	64.000000	0.000000	75.000000
0.870000	61.280000	11.480000	0.000000	0.000000	109.000000	64.000000	15.000000	111.000000
0.880000	61.570000	12.930000	0.000000	0.000000	109.000000	64.000000	29.000000	145.000000
0.890000	61.910000	14.610000	0.000000	0.000000	108.000000	63.000000	34.000000	168.000000
0.900000	62.320000	16.490000	0.000000	0.000000	110.000000	63.000000	41.000000	188.000000
0.910000	62.850000	18.360000	0.000000	0.000000	114.000000	62.000000	53.000000	187.000000
0.920000	62.850000	18.360000	371.000000	1.000000	115.000000	62.000000	0.000000	0.000000
0.930000	63.520000	20.610000	456.000000	0.000000	119.000000	61.000000	67.000000	225.000000
0.940000	63.300000	21.020000	546.000000	0.000000	122.000000	60.000000	-22.000000	41.000000
0.950000	63.100000	21.020000	562.000000	0.000000	125.000000	60.000000	-20.000000	0.000000
0.960000	62.750000	20.820000	592.000000	0.000000	128.000000	59.000000	-35.000000	-20.000000
0.970000	62.290000	20.100000	636.000000	0.000000	128.000000	59.000000	-46.000000	-72.000000
0.980000	61.650000	18.810000	690.000000	0.000000	129.000000	59.000000	-64.000000	-129.000000
0.990000	61.090000	17.130000	725.000000	0.000000	128.000000	59.000000	-56.000000	-168.000000
1.000000	60.590000	15.290000	759.000000	0.000000	125.000000	59.000000	-50.000000	-184.000000
1.010000	60.340000	13.920000	777.000000	0.000000	124.000000	60.000000	-25.000000	-137.000000
1.020000	60.270000	12.870000	799.000000	0.000000	119.000000	60.000000	-7.000000	-105.000000
1.030000	60.320000	12.030000	832.000000	0.000000	116.000000	60.000000	5.000000	-84.000000
1.040000	60.320000	11.590000	833.000000	0.000000	111.000000	61.000000	0.000000	-44.000000
1.050000	60.380000	11.430000	840.000000	0.000000	107.000000	61.000000	6.000000	-16.000000
1.060000	60.440000	11.430000	849.000000	0.000000	103.000000	61.000000	6.000000	0.000000
1.070000	60.660000	11.430000	851.000000	0.000000	99.000000	62.000000	22.000000	0.000000
1.080000	60.990000	11.670000	861.000000	0.000000	97.000000	61.000000	33.000000	24.000000
1.090000	61.630000	12.040000	866.000000	0.000000	97.000000	61.000000	64.000000	37.000000
1.100000	62.270000	12.500000	863.000000	0.000000	96.000000	62.000000	64.000000	46.000000
1.110000	62.750000	12.810000	863.000000	0.000000	96.000000	62.000000	48.000000	31.000000
1.120000	63.110000	12.810000	864.000000	0.000000	96.000000	62.000000	36.000000	0.000000
1.130000	63.240000	12.750000	853.000000	0.000000	98.000000	63.000000	13.000000	-6.000000
1.140000	63.240000	12.320000	853.000000	0.000000	98.000000	63.000000	0.000000	-43.000000
1.150000	63.240000	11.830000	853.000000	0.000000	98.000000	63.000000	0.000000	-49.000000
1.160000	62.930000	11.110000	860.000000	0.000000	98.000000	63.000000	-31.000000	-72.000000
1.170000	62.390000	10.270000	878.000000	0.000000	98.000000	63.000000	-54.000000	-84.000000
1.180000	61.680000	9.660000	896.000000	0.000000	98.000000	63.000000	-71.000000	-61.000000
1.190000	61.000000	9.170000	897.000000	0.000000	98.000000	63.000000	-68.000000	-49.000000
1.200000	60.390000	8.770000	897.000000	0.000000	98.000000	64.000000	-61.000000	-40.000000
1.210000	60.010000	8.500000	897.000000	0.000000	100.000000	64.000000	-38.000000	-27.000000
1.220000	59.770000	8.410000	893.000000	0.000000	100.000000	64.000000	-24.000000	-9.000000
1.230000	59.770000	8.410000	903.000000	0.000000	100.000000	64.000000	0.000000	0.000000
1.240000	59.890000	8.540000	894.000000	0.000000	102.000000	63.000000	12.000000	13.000000
1.250000	60.050000	8.910000	888.000000	0.000000	102.000000	63.000000	16.000000	37.000000
1.260000	60.580000	9.460000	867.000000	0.000000	102.000000	63.000000	53.000000	55.000000
1.270000	61.340000	10.820000	863.000000	0.000000	102.000000	63.000000	76.000000	136.000000
1.280000	62.300000	12.180000	863.000000	0.000000	102.000000	63.000000	96.000000	136.000000
1.290000	63.200000	13.190000	861.000000	0.000000	100.000000	64.000000	90.000000	101.000000
1.300000	63.700000	13.960000	867.000000	0.000000	100.000000	64.000000	50.000000	77.000000
1.310000	63.950000	14.230000	873.000000	0.000000	100.000000	64.000000	25.000000	27.000000
1.320000	63.950000	14.290000	878.000000	0.000000	100.000000	63.000000	0.000000	6.000000
1.330000	63.950000	14.220000	879.000000	0.000000	100.000000	64.000000	0.000000	-7.000000
1.340000	63.860000	14.130000	873.000000	0.000000	100.000000	64.000000	-9.000000	-9.000000
1.350000	63.750000	13.790000	881.000000	0.000000	100.000000	64.000000	-11.000000	-34.000000
1.360000	63.520000	13.290000	881.000000	0.000000	102.000000	63.000000	-23.000000	-50.000000
1.370000	63.290000	12.480000	897.000000	0.000000	102.000000	63.000000	-23.000000	-81.000000
1.380000	63.060000	11.570000	902.000000	0.000000	100.000000	64.000000	-23.000000	-91.000000
1.390000	62.830000	10.590000	906.000000	0.000000	100.000000	64.000000	-23.000000	-98.000000
1.400000	62.830000	10.120000	905.000000	0.000000	100.000000	64.000000	0.000000	-47.000000
1.410000	62.920000	9.840000	900.000000	0.000000	98.000000	64.000000	9.000000	-28.000000
1.420000	62.920000	9.690000	902.000000	0.000000	98.000000	64.000000	0.000000	-15.000000
1.430000	63.220000	9.690000	894.000000	0.000000	96.000000	64.000000	30.000000	0.000000
1.440000	63.630000	10.160000	903.000000	0.000000	96.000000	64.000000	41.000000	47.000000
1.450000	64.350000	10.950000	908.000000	0.000000	96.000000	64.000000	72.000000	79.000000
1.460000	65.070000	12.220000	908.000000	0.000000	96.000000	64.000000	72.000000	127.000000
1.470000	65.750000	13.460000	905.000000	0.000000	96.000000	64.000000	68.000000	124.000000
1.480000	66.100000	14.650000	906.000000	0.000000	96.000000	64.000000	35.000000	119.000000
1.490000	66.260000	15.390000	933.000000	0.000000	99.000000	65.000000	16.000000	74.000000
1.500000	66.260000	15.840000	953.000000	0.000000	101.000000	65.000000	0.000000	45.000000
1.510000	66.170000	15.840000	958.000000	0.000000	101.000000	65.000000	-9.000000	0.000000
1.520000	66.080000	15.330000	964.000000	0.000000	103.000000	64.000000	-9.000000	-51.000000
1.530000	65.770000	14.550000	973.000000	0.000000	105.000000	64.000000	-31.000000	-78.000000
1.540000	65.510000	13.090000	982.000000	0.000000	105.000000	64.000000	-26.000000	-146.000000
1.550000	65.510000	12.130000	971.000000	0.000000	105.000000	64.000000	0.000000	-96.000000
1.560000	65.760000	11.510000	968.000000	0.000000	105.000000	64.000000	25.000000	-62.000000
1.570000	66.220000	11.510000	968.000000	0.000000	103.000000	64.000000	46.000000	0.000000
1.580000	67.320000	12.280000	976.000000	0.000000	101.000000	65.000000	110.000000	77.000000
1.590000	68.850000	13.490000	974.000000	0.000000	99.000000	65.000000	153.000000	121.000000
1.600000	70.220000	15.160000	976.000000	0.000000	99.000000	65.000000	137.000000	167.000000
1.610000	71.030000	16.930000	974.000000	0.000000	99.000000	65.000000	81.000000	177.000000
1.620000	71.470000	18.780000	986.000000	0.000000	101.000000	65.000000	44.000000	185.000000
1.630000	71.400000	20.160000	1023.000000	0.000000	105.000000	64.000000	-7.000000	138.000000
1.640000	71.080000	20.600000	1023.000000	0.000000	110.000000	65.000000	-32.000000	44.000000
1.650000	70.580000	20.420000	1023.000000	0.000000	114.000000	64.000000	-50.000000	-18.000000
1.660000	69.920000	19.660000	996.000000	0.000000	117.000000	63.000000	-66.000000	-76.000000
1.670000	69.190000	17.760000	890.000000	0.000000	119.000000	63.000000	-73.000000	-190.000000
1.680000	68.400000	15.100000	595.000000	0.000000	121.000000	63.000000	-79.000000	-266.000000
1.690000	68.400000	15.100000	0.000000	1.000000	121.000000	63.000000	0.000000	0.000000
1.700000	68.780000	11.170000	0.000000	0.000000	117.000000	63.000000	38.000000	-393.000000
1.710000	70.140000	10.690000	0.000000	0.000000	116.000000	64.000000	136.000000	-48.000000
1.720000	71.540000	11.270000	0.000000	0.000000	112.000000	64.000000	140.000000	58.000000
1.730000	72.860000	12.190000	0.000000	0.000000	110.000000	66.000000	132.000000	92.000000
1.740000	74.130000	13.350000	0.000000	0.000000	110.000000	66.000000	127.000000	116.000000
1.750000	75.360000	14.700000	0.000000	0.000000	110.000000	66.000000	123.000000	135.000000
1.760000	76.420000	16.500000	0.000000	0.000000	110.000000	66.000000	106.000000	180.000000
1.770000	77.360000	18.610000	0.000000	0.000000	110.000000	66.000000	94.000000	211.000000
1.780000	78.600000	20.420000	0.000000	0.000000	110.000000	66.000000	124.000000	181.000000
1.790000	80.200000	22.060000	0.000000	0.000000	110.000000	66.000000	160.000000	164.000000
1.800000	80.200000	22.060000	0.000000	0.000000	110.000000	66.000000	0.000000	0.000000
1.810000	74.670000	17.400000	0.000000	0.000000	112.000000	70.000000	-553.000000	-466.000000
1.820000	74.670000	17.400000	0.000000	0.000000	118.000000	73.000000	0.000000	0.000000
1.830000	74.730000	17.070000	0.000000	0.000000	122.000000	77.000000	6.000000	-33.000000
1.840000	74.810000	16.520000	0.000000	0.000000	135.000000	80.000000	8.000000	-55.000000
1.850000	74.810000	16.230000	0.000000	0.000000	142.000000	79.000000	0.000000	-29.000000
1.860000	74.760000	15.940000	0.000000	0.000000	148.000000	77.000000	-5.000000	-29.000000
1.870000	74.590000	15.640000	0.000000	0.000000	149.000000	73.000000	-17.000000	-30.000000
1.880000	74.110000	15.350000	0.000000	0.000000	151.000000	68.000000	-48.000000	-29.000000
1.890000	73.800000	14.990000	0.000000	0.000000	150.000000	65.000000	-31.000000	-36.000000
1.900000	73.600000	14.650000	0.000000	0.000000	151.000000	61.000000	-20.000000	-34.000000
1.910000	73.670000	14.460000	0.000000	0.000000	151.000000	58.000000	7.000000	-19.000000
1.920000	73.390000	14.380000	0.000000	0.000000	151.000000	54.000000	-28.000000	-8.000000
1.930000	72.880000	14.380000	0.000000	0.000000	151.000000	53.000000	-51.000000	0.000000
1.940000	72.610000	14.610000	0.000000	0.000000	149.000000	53.000000	-27.000000	23.000000
1.950000	72.510000	14.910000	0.000000	0.000000	147.000000	53.000000	-10.000000	30.000000
1.960000	72.510000	15.420000	0.000000	0.000000	146.000000	54.000000	0.000000	51.000000
1.970000	72.660000	16.140000	0.000000	0.000000	145.000000	54.000000	15.000000	72.000000
1.980000	72.810000	17.010000	0.000000	0.000000	144.000000	54.000000	15.000000	87.000000
1.990000	72.900000	17.830000	0.000000	0.000000	143.000000	55.000000	9.000000	82.000000
2.000000	72.900000	18.420000	0.000000	0.000000	140.000000	56.000000	0.000000	59.000000
2.010000	72.900000	18.870000	0.000000	0.000000	139.000000	57.000000	0.000000	45.000000
2.020000	72.980000	19.210000	0.000000	0.000000	138.000000	58.000000	8.000000	34.000000
2.030000	73.100000	19.500000	0.000000	0.000000	136.000000	58.000000	12.000000	29.000000
2.040000	72.630000	19.670000	0.000000	0.000000	135.000000	59.000000	-47.000000	17.000000
2.050000	72.450000	19.790000	0.000000	0.000000	134.000000	60.000000	-18.000000	12.000000
2.060000	72.450000	20.470000	0.000000	0.000000	134.000000	60.000000	0.000000	68.000000
2.070000	72.450000	20.470000	329.000000	1.000000	134.000000	60.000000	0.000000	0.000000
2.080000	72.780000	21.020000	407.000000	0.000000	136.000000	60.000000	33.000000	55.000000
2.090000	72.340000	21.090000	423.000000	0.000000	138.000000	59.000000	-44.000000	7.000000
2.100000	72.340000	21.090000	448.000000	0.000000	138.000000	59.000000	0.000000	0.000000
2.110000	72.340000	20.650000	491.000000	0.000000	141.000000	59.000000	0.000000	-44.000000
2.120000	72.450000	19.880000	533.000000	0.000000	141.000000	59.000000	11.000000	-77.000000
2.130000	72.450000	18.630000	556.000000	0.000000	141.000000	59.000000	0.000000	-125.000000
2.140000	72.210000	17.020000	588.000000	0.000000	141.000000	59.000000	-24.000000	-161.000000
2.150000	71.750000	15.170000	613.000000	0.000000	139.000000	60.000000	-46.000000	-185.000000
2.160000	71.200000	13.470000	620.000000	0.000000	136.000000	61.000000	-55.000000	-170.000000
2.170000	70.360000	12.020000	653.000000	0.000000	135.000000	62.000000	-84.000000	-145.000000
2.180000	69.330000	10.730000	714.000000	0.000000	133.000000	63.000000	-103.000000	-129.000000
2.190000	68.000000	9.680000	731.000000	0.000000	130.000000	65.000000	-133.000000	-105.000000
2.200000	66.610000	8.840000	746.000000	0.000000	126.000000	66.000000	-139.000000	-84.000000
