t	x	y	pressure	penup	azimuth	inclination	v_x	v_y
0.000000	53.550000	78.360000	279.000000	1.000000	115.000000	54.000000	0.000000	0.000000
0.010000	53.290000	77.790000	316.000000	0.000000	115.000000	54.000000	-26.000000	-57.000000
0.020000	53.150000	77.570000	389.000000	0.000000	117.000000	54.000000	-14.000000	-22.000000
0.030000	53.080000	77.310000	491.000000	0.000000	118.000000	54.000000	-7.000000	-26.000000
0.040000	53.080000	77.150000	544.000000	0.000000	118.000000	54.000000	0.000000	-16.000000
0.050000	53.080000	77.150000	569.000000	0.000000	118.000000	54.000000	0.000000	0.000000
0.060000	53.080000	77.150000	641.000000	0.000000	118.000000	54.000000	0.000000	0.000000
0.070000	53.080000	77.150000	711.000000	0.000000	118.000000	54.000000	0.000000	0.000000
0.080000	53.420000	77.280000	788.000000	0.000000	118.000000	54.000000	34.000000	13.000000
0.090000	53.660000	77.820000	863.000000	0.000000	118.000000	54.000000	24.000000	54.000000
0.100000	54.050000	78.950000	881.000000	0.000000	118.000000	54.000000	39.000000	113.000000
0.110000	54.540000	80.480000	881.000000	0.000000	118.000000	54.000000	49.000000	153.000000
0.120000	55.170000	82.350000	873.000000	0.000000	119.000000	53.000000	63.000000	187.000000
0.130000	55.820000	84.250000	867.000000	0.000000	119.000000	53.000000	65.000000	190.000000
0.140000	56.480000	86.180000	846.000000	0.000000	121.000000	53.000000	66.000000	193.000000
0.150000	56.780000	87.620000	848.000000	0.000000	122.000000	54.000000	30.000000	144.000000
0.160000	56.860000	88.540000	861.000000	0.000000	123.000000	53.000000	8.000000	92.000000
0.170000	56.860000	89.120000	869.000000	0.000000	123.000000	53.000000	0.000000	58.000000
0.180000	56.860000	89.120000	861.000000	0.000000	123.000000	53.000000	0.000000	0.000000
0.190000	56.860000	89.020000	860.000000	0.000000	124.000000	53.000000	0.000000	-10.000000
0.200000	56.810000	88.270000	864.000000	0.000000	124.000000	53.000000	-5.000000	-75.000000
0.210000	56.810000	87.090000	851.000000	0.000000	125.000000	54.000000	0.000000	-118.000000
0.220000	56.920000	85.730000	832.000000	0.000000	125.000000	54.000000	11.000000	-136.000000
0.230000	57.160000	84.320000	811.000000	0.000000	125.000000	54.000000	24.000000	-141.000000
0.240000	57.520000	83.250000	784.000000	0.000000	124.000000	54.000000	36.000000	-107.000000
0.250000	57.950000	82.420000	749.000000	0.000000	124.000000	54.000000	43.000000	-83.000000
0.260000	58.480000	81.900000	733.000000	0.000000	123.000000	53.000000	53.000000	-52.000000
0.270000	58.950000	81.680000	666.000000	0.000000	123.000000	53.000000	47.000000	-22.000000
0.280000	59.370000	81.680000	614.000000	0.000000	123.000000	53.000000	42.000000	0.000000
0.290000	59.560000	81.680000	608.000000	0.000000	123.000000	53.000000	19.000000	0.000000
0.300000	59.450000	81.740000	619.000000	0.000000	124.000000	54.000000	-11.000000	6.000000
0.310000	59.150000	81.810000	644.000000	0.000000	125.000000	54.000000	-30.000000	7.000000
0.320000	58.600000	81.880000	690.000000	0.000000	125.000000	54.000000	-55.000000	7.000000
0.330000	57.660000	81.880000	700.000000	0.000000	125.000000	54.000000	-94.000000	0.000000
0.340000	56.450000	81.400000	730.000000	0.000000	126.000000	54.000000	-121.000000	-48.000000
0.350000	55.040000	80.650000	740.000000	0.000000	126.000000	54.000000	-141.000000	-75.000000
0.360000	53.370000	79.390000	770.000000	0.000000	127.000000	53.000000	-167.000000	-126.000000
0.370000	51.520000	78.110000	825.000000	0.000000	125.000000	54.000000	-185.000000	-128.000000
0.380000	50.080000	77.380000	897.000000	0.000000	124.000000	53.000000	-144.000000	-73.000000
0.390000	49.310000	77.030000	955.000000	0.000000	123.000000	52.000000	-77.000000	-35.000000
0.400000	48.990000	77.170000	962.000000	0.000000	122.000000	51.000000	-32.000000	14.000000
0.410000	48.990000	77.560000	968.000000	0.000000	122.000000	51.000000	0.000000	39.000000
0.420000	49.720000	78.120000	974.000000	0.000000	121.000000	51.000000	73.000000	56.000000
0.430000	50.850000	79.110000	974.000000	0.000000	121.000000	51.000000	113.000000	99.000000
0.440000	52.860000	80.560000	967.000000	0.000000	121.000000	51.000000	201.000000	145.000000
0.450000	55.280000	82.330000	942.000000	0.000000	121.000000	51.000000	242.000000	177.000000
0.460000	57.980000	83.860000	870.000000	0.000000	121.000000	51.000000	270.000000	153.000000
0.470000	60.200000	85.210000	742.000000	0.000000	122.000000	51.000000	222.000000	135.000000
0.480000	62.200000	86.440000	510.000000	0.000000	123.000000	51.000000	200.000000	123.000000
0.490000	62.200000	86.440000	0.000000	1.000000	122.000000	51.000000	0.000000	0.000000
0.500000	65.210000	88.110000	0.000000	0.000000	123.000000	52.000000	301.000000	167.000000
0.510000	65.660000	88.690000	0.000000	0.000000	124.000000	53.000000	45.000000	58.000000
0.520000	65.660000	88.970000	0.000000	0.000000	124.000000	53.000000	0.000000	28.000000
0.530000	65.270000	88.970000	0.000000	0.000000	123.000000	53.000000	-39.000000	0.000000
0.540000	64.730000	88.900000	0.000000	0.000000	123.000000	53.000000	-54.000000	-7.000000
0.550000	64.080000	88.470000	0.000000	0.000000	123.000000	53.000000	-65.000000	-43.000000
0.560000	63.300000	87.740000	0.000000	0.000000	123.000000	53.000000	-78.000000	-73.000000
0.570000	62.580000	86.820000	0.000000	0.000000	124.000000	53.000000	-72.000000	-92.000000
0.580000	61.910000	85.730000	0.000000	0.000000	124.000000	53.000000	-67.000000	-109.000000
0.590000	61.490000	84.630000	0.000000	0.000000	123.000000	52.000000	-42.000000	-110.000000
0.600000	61.190000	83.630000	0.000000	0.000000	124.000000	52.000000	-30.000000	-100.000000
0.610000	60.970000	82.700000	0.000000	0.000000	124.000000	52.000000	-22.000000	-93.000000
0.620000	60.720000	81.890000	0.000000	0.000000	123.000000	51.000000	-25.000000	-81.000000
0.630000	60.440000	81.220000	0.000000	0.000000	122.000000	51.000000	-28.000000	-67.000000
0.640000	60.130000	80.640000	0.000000	0.000000	122.000000	51.000000	-31.000000	-58.000000
0.650000	59.810000	80.270000	0.000000	0.000000	123.000000	52.000000	-32.000000	-37.000000
0.660000	59.490000	80.140000	0.000000	0.000000	122.000000	53.000000	-32.000000	-13.000000
0.670000	59.190000	80.140000	0.000000	0.000000	122.000000	53.000000	-30.000000	0.000000
0.680000	58.910000	80.520000	0.000000	0.000000	123.000000	53.000000	-28.000000	38.000000
0.690000	58.770000	81.200000	0.000000	0.000000	123.000000	53.000000	-14.000000	68.000000
0.700000	58.680000	82.100000	0.000000	0.000000	124.000000	54.000000	-9.000000	90.000000
0.710000	58.680000	83.370000	0.000000	0.000000	124.000000	54.000000	0.000000	127.000000
0.720000	58.780000	84.880000	0.000000	0.000000	124.000000	54.000000	10.000000	151.000000
0.730000	58.780000	84.880000	132.000000	1.000000	125.000000	54.000000	0.000000	0.000000
0.740000	59.050000	87.970000	333.000000	0.000000	126.000000	54.000000	27.000000	309.000000
0.750000	59.110000	88.880000	449.000000	0.000000	126.000000	54.000000	6.000000	91.000000
0.760000	59.110000	89.450000	530.000000	0.000000	126.000000	54.000000	0.000000	57.000000
0.770000	59.190000	89.570000	546.000000	0.000000	128.000000	54.000000	8.000000	12.000000
0.780000	59.190000	89.310000	564.000000	0.000000	128.000000	54.000000	0.000000	-26.000000
0.790000	59.420000	88.800000	562.000000	0.000000	129.000000	53.000000	23.000000	-51.000000
0.800000	59.710000	87.830000	556.000000	0.000000	129.000000	53.000000	29.000000	-97.000000
0.810000	59.760000	86.300000	559.000000	0.000000	129.000000	53.000000	5.000000	-153.000000
0.820000	59.760000	84.400000	561.000000	0.000000	128.000000	53.000000	0.000000	-190.000000
0.830000	59.670000	82.590000	551.000000	0.000000	127.000000	53.000000	-9.000000	-181.000000
0.840000	59.430000	81.060000	562.000000	0.000000	127.000000	53.000000	-24.000000	-153.000000
0.850000	59.180000	79.730000	561.000000	0.000000	125.000000	54.000000	-25.000000	-133.000000
0.860000	58.910000	78.770000	584.000000	0.000000	125.000000	54.000000	-27.000000	-96.000000
0.870000	58.770000	78.540000	584.000000	0.000000	125.000000	54.000000	-14.000000	-23.000000
0.880000	58.770000	78.810000	567.000000	0.000000	125.000000	54.000000	0.000000	27.000000
0.890000	58.910000	79.460000	554.000000	0.000000	124.000000	53.000000	14.000000	65.000000
0.900000	59.230000	80.350000	538.000000	0.000000	124.000000	53.000000	32.000000	89.000000
0.910000	59.600000	81.400000	514.000000	0.000000	124.000000	53.000000	37.000000	105.000000
0.920000	59.890000	81.770000	505.000000	0.000000	124.000000	53.000000	29.000000	37.000000
0.930000	60.100000	81.770000	533.000000	0.000000	124.000000	53.000000	21.000000	0.000000
0.940000	60.100000	81.450000	542.000000	0.000000	125.000000	54.000000	0.000000	-32.000000
0.950000	60.010000	81.010000	551.000000	0.000000	127.000000	53.000000	-9.000000	-44.000000
0.960000	59.850000	80.440000	559.000000	0.000000	127.000000	53.000000	-16.000000	-57.000000
0.970000	59.600000	79.780000	550.000000	0.000000	127.000000	53.000000	-25.000000	-66.000000
0.980000	59.480000	79.370000	537.000000	0.000000	125.000000	54.000000	-12.000000	-41.000000
0.990000	59.480000	79.440000	496.000000	0.000000	125.000000	54.000000	0.000000	7.000000
1.000000	59.480000	79.840000	392.000000	0.000000	125.000000	54.000000	0.000000	40.000000
1.010000	59.710000	80.550000	287.000000	0.000000	125.000000	54.000000	23.000000	71.000000
1.020000	60.020000	81.240000	225.000000	0.000000	125.000000	54.000000	31.000000	69.000000
1.030000	60.290000	81.590000	193.000000	0.000000	126.000000	54.000000	27.000000	35.000000
1.040000	60.440000	81.720000	218.000000	0.000000	126.000000	54.000000	15.000000	13.000000
1.050000	60.500000	81.560000	270.000000	0.000000	126.000000	54.000000	6.000000	-16.000000
1.060000	60.500000	81.230000	341.000000	0.000000	127.000000	55.000000	0.000000	-33.000000
1.070000	60.440000	80.800000	413.000000	0.000000	129.000000	55.000000	-6.000000	-43.000000
1.080000	60.370000	80.420000	425.000000	0.000000	129.000000	55.000000	-7.000000	-38.000000
1.090000	60.420000	80.260000	387.000000	0.000000	129.000000	55.000000	5.000000	-16.000000
1.100000	60.510000	80.260000	333.000000	0.000000	129.000000	55.000000	9.000000	0.000000
1.110000	60.670000	80.630000	285.000000	0.000000	129.000000	55.000000	16.000000	37.000000
1.120000	61.000000	81.330000	205.000000	0.000000	129.000000	55.000000	33.000000	70.000000
1.130000	61.440000	82.250000	167.000000	0.000000	129.000000	55.000000	44.000000	92.000000
1.140000	61.630000	82.890000	155.000000	0.000000	129.000000	55.000000	19.000000	64.000000
1.150000	61.680000	83.350000	256.000000	0.000000	129.000000	55.000000	5.000000	46.000000
1.160000	61.680000	83.690000	387.000000	0.000000	128.000000	54.000000	0.000000	34.000000
1.170000	61.560000	83.880000	521.000000	0.000000	128.000000	54.000000	-12.000000	19.000000
1.180000	61.390000	84.130000	585.000000	0.000000	128.000000	54.000000	-17.000000	25.000000
1.190000	61.170000	84.420000	646.000000	0.000000	128.000000	54.000000	-22.000000	29.000000
1.200000	61.040000	84.990000	641.000000	0.000000	127.000000	53.000000	-13.000000	57.000000
1.210000	61.100000	85.550000	631.000000	0.000000	125.000000	54.000000	6.000000	56.000000
1.220000	61.290000	86.110000	595.000000	0.000000	124.000000	53.000000	19.000000	56.000000
1.230000	61.450000	86.270000	588.000000	0.000000	124.000000	53.000000	16.000000	16.000000
1.240000	61.610000	86.070000	594.000000	0.000000	122.000000	53.000000	16.000000	-20.000000
1.250000	61.660000	85.640000	643.000000	0.000000	122.000000	53.000000	5.000000	-43.000000
1.260000	61.660000	84.580000	675.000000	0.000000	120.000000	52.000000	0.000000	-106.000000
1.270000	61.420000	83.500000	678.000000	0.000000	120.000000	52.000000	-24.000000	-108.000000
1.280000	61.220000	82.400000	644.000000	0.000000	120.000000	52.000000	-20.000000	-110.000000
1.290000	61.020000	81.620000	553.000000	0.000000	120.000000	52.000000	-20.000000	-78.000000
1.300000	61.020000	81.030000	235.000000	0.000000	120.000000	52.000000	0.000000	-59.000000
1.310000	61.020000	81.030000	0.000000	1.000000	122.000000	53.000000	0.000000	0.000000
1.320000	61.020000	80.900000	0.000000	0.000000	122.000000	53.000000	0.000000	-13.000000
1.330000	60.930000	80.960000	0.000000	0.000000	122.000000	53.000000	-9.000000	6.000000
1.340000	60.860000	81.060000	0.000000	0.000000	123.000000	53.000000	-7.000000	10.000000
1.350000	60.860000	81.300000	0.000000	0.000000	123.000000	53.000000	0.000000	24.000000
1.360000	60.950000	81.630000	0.000000	0.000000	123.000000	53.000000	9.000000	33.000000
1.370000	61.140000	82.190000	0.000000	0.000000	123.000000	53.000000	19.000000	56.000000
1.380000	61.420000	82.890000	0.000000	0.000000	123.000000	53.000000	28.000000	70.000000
1.390000	61.780000	83.690000	0.000000	0.000000	122.000000	53.000000	36.000000	80.000000
1.400000	62.160000	84.420000	0.000000	0.000000	122.000000	53.000000	38.000000	73.000000
1.410000	62.540000	84.920000	0.000000	0.000000	122.000000	53.000000	38.000000	50.000000
1.420000	62.740000	85.270000	0.000000	0.000000	121.000000	52.000000	20.000000	35.000000
1.430000	62.840000	85.360000	0.000000	0.000000	121.000000	52.000000	10.000000	9.000000
1.440000	62.840000	85.360000	0.000000	0.000000	121.000000	52.000000	0.000000	0.000000
1.450000	62.730000	85.300000	0.000000	0.000000	121.000000	52.000000	-11.000000	-6.000000
1.460000	62.630000	85.390000	0.000000	0.000000	122.000000	51.000000	-10.000000	9.000000
1.470000	62.520000	85.650000	0.000000	0.000000	121.000000	52.000000	-11.000000	26.000000
1.480000	62.460000	86.020000	0.000000	0.000000	121.000000	52.000000	-6.000000	37.000000
1.490000	62.460000	86.550000	0.000000	0.000000	121.000000	52.000000	0.000000	53.000000
1.500000	62.550000	87.110000	0.000000	0.000000	120.000000	52.000000	9.000000	56.000000
1.510000	62.670000	87.680000	0.000000	0.000000	120.000000	52.000000	12.000000	57.000000
1.520000	62.780000	88.080000	0.000000	0.000000	120.000000	52.000000	11.000000	40.000000
1.530000	62.880000	88.380000	0.000000	0.000000	121.000000	53.000000	10.000000	30.000000
1.540000	62.880000	88.380000	98.000000	1.000000	121.000000	53.000000	0.000000	0.000000
1.550000	62.960000	88.870000	443.000000	0.000000	121.000000	53.000000	8.000000	49.000000
1.560000	62.880000	89.120000	522.000000	0.000000	121.000000	53.000000	-8.000000	25.000000
1.570000	62.880000	89.350000	556.000000	0.000000	122.000000	54.000000	0.000000	23.000000
1.580000	62.960000	89.260000	605.000000	0.000000	123.000000	53.000000	8.000000	-9.000000
1.590000	63.090000	88.980000	628.000000	0.000000	123.000000	53.000000	13.000000	-28.000000
1.600000	63.330000	88.070000	647.000000	0.000000	123.000000	53.000000	24.000000	-91.000000
1.610000	63.630000	86.420000	667.000000	0.000000	123.000000	53.000000	30.000000	-165.000000
1.620000	63.710000	84.290000	700.000000	0.000000	123.000000	53.000000	8.000000	-213.000000
1.630000	63.650000	82.270000	731.000000	0.000000	123.000000	53.000000	-6.000000	-202.000000
1.640000	63.500000	80.590000	767.000000	0.000000	123.000000	53.000000	-15.000000	-168.000000
1.650000	63.180000	79.130000	793.000000	0.000000	122.000000	54.000000	-32.000000	-146.000000
1.660000	62.870000	78.320000	809.000000	0.000000	122.000000	54.000000	-31.000000	-81.000000
1.670000	62.390000	77.990000	800.000000	0.000000	122.000000	54.000000	-48.000000	-33.000000
1.680000	61.790000	77.990000	787.000000	0.000000	122.000000	54.000000	-60.000000	0.000000
1.690000	61.180000	78.370000	759.000000	0.000000	122.000000	54.000000	-61.000000	38.000000
1.700000	60.460000	79.300000	743.000000	0.000000	122.000000	54.000000	-72.000000	93.000000
1.710000	59.660000	80.600000	754.000000	0.000000	121.000000	53.000000	-80.000000	130.000000
1.720000	59.610000	82.070000	749.000000	0.000000	121.000000	53.000000	-5.000000	147.000000
1.730000	60.110000	83.270000	740.000000	0.000000	121.000000	53.000000	50.000000	120.000000
1.740000	60.970000	84.290000	675.000000	0.000000	121.000000	52.000000	86.000000	102.000000
1.750000	62.130000	84.980000	610.000000	0.000000	121.000000	52.000000	116.000000	69.000000
1.760000	63.010000	84.980000	606.000000	0.000000	121.000000	52.000000	88.000000	0.000000
1.770000	63.700000	84.440000	617.000000	0.000000	122.000000	53.000000	69.000000	-54.000000
1.780000	63.900000	83.600000	673.000000	0.000000	123.000000	52.000000	20.000000	-84.000000
1.790000	63.650000	82.720000	724.000000	0.000000	123.000000	52.000000	-25.000000	-88.000000
1.800000	63.110000	81.550000	750.000000	0.000000	124.000000	53.000000	-54.000000	-117.000000
1.810000	61.940000	80.210000	760.000000	0.000000	124.000000	53.000000	-117.000000	-134.000000
1.820000	60.410000	78.550000	721.000000	0.000000	124.000000	53.000000	-153.000000	-166.000000
1.830000	58.630000	77.340000	725.000000	0.000000	123.000000	53.000000	-178.000000	-121.000000
1.840000	56.380000	76.440000	783.000000	0.000000	123.000000	53.000000	-225.000000	-90.000000
1.850000	54.840000	76.510000	788.000000	0.000000	123.000000	53.000000	-154.000000	7.000000
1.860000	53.780000	77.310000	836.000000	0.000000	123.000000	53.000000	-106.000000	80.000000
1.870000	53.690000	78.600000	845.000000	0.000000	122.000000	53.000000	-9.000000	129.000000
1.880000	54.480000	79.810000	869.000000	0.000000	122.000000	53.000000	79.000000	121.000000
1.890000	55.860000	80.930000	873.000000	0.000000	122.000000	53.000000	138.000000	112.000000
1.900000	58.220000	82.220000	878.000000	0.000000	123.000000	52.000000	236.000000	129.000000
1.910000	60.930000	83.650000	854.000000	0.000000	124.000000	53.000000	271.000000	143.000000
1.920000	63.860000	84.890000	783.000000	0.000000	124.000000	53.000000	293.000000	124.000000
1.930000	66.420000	85.830000	502.000000	0.000000	125.000000	53.000000	256.000000	94.000000
