t	x	y	pressure	penup	azimuth	inclination	v_x	v_y
0.000000	14.370000	43.540000	309.000000	1.000000	94.000000	65.000000	0.000000	0.000000
0.010000	14.340000	42.570000	386.000000	0.000000	92.000000	64.000000	-3.000000	-97.000000
0.020000	14.250000	42.200000	394.000000	0.000000	90.000000	63.000000	-9.000000	-37.000000
0.030000	14.160000	42.050000	425.000000	0.000000	90.000000	61.000000	-9.000000	-15.000000
0.040000	14.290000	42.050000	512.000000	0.000000	88.000000	60.000000	13.000000	0.000000
0.050000	14.590000	42.390000	583.000000	0.000000	88.000000	59.000000	30.000000	34.000000
0.060000	14.990000	43.520000	640.000000	0.000000	87.000000	58.000000	40.000000	113.000000
0.070000	15.570000	45.190000	691.000000	0.000000	87.000000	58.000000	58.000000	167.000000
0.080000	16.150000	47.530000	696.000000	0.000000	88.000000	57.000000	58.000000	234.000000
0.090000	16.760000	49.980000	699.000000	0.000000	88.000000	57.000000	61.000000	245.000000
0.100000	17.370000	52.500000	716.000000	0.000000	90.000000	56.000000	61.000000	252.000000
0.110000	17.520000	54.460000	720.000000	0.000000	90.000000	56.000000	15.000000	196.000000
0.120000	17.600000	55.500000	743.000000	0.000000	90.000000	56.000000	8.000000	104.000000
0.130000	17.600000	55.940000	773.000000	0.000000	91.000000	56.000000	0.000000	44.000000
0.140000	17.600000	55.810000	782.000000	0.000000	91.000000	56.000000	0.000000	-13.000000
0.150000	17.470000	55.660000	794.000000	0.000000	93.000000	56.000000	-13.000000	-15.000000
0.160000	17.310000	54.290000	793.000000	0.000000	94.000000	55.000000	-16.000000	-137.000000
0.170000	17.440000	52.130000	797.000000	0.000000	94.000000	55.000000	13.000000	-216.000000
0.180000	17.620000	49.250000	815.000000	0.000000	94.000000	55.000000	18.000000	-288.000000
0.190000	17.840000	46.350000	818.000000	0.000000	94.000000	55.000000	22.000000	-290.000000
0.200000	18.280000	44.330000	817.000000	0.000000	94.000000	55.000000	44.000000	-202.000000
0.210000	18.730000	42.900000	814.000000	0.000000	93.000000	55.000000	45.000000	-143.000000
0.220000	19.330000	42.180000	803.000000	0.000000	91.000000	55.000000	60.000000	-72.000000
0.230000	20.020000	41.800000	794.000000	0.000000	90.000000	55.000000	69.000000	-38.000000
0.240000	20.550000	41.650000	793.000000	0.000000	90.000000	55.000000	53.000000	-15.000000
0.250000	20.690000	41.720000	809.000000	0.000000	89.000000	55.000000	14.000000	7.000000
0.260000	20.570000	41.840000	821.000000	0.000000	87.000000	55.000000	-12.000000	12.000000
0.270000	20.280000	42.470000	808.000000	0.000000	87.000000	55.000000	-29.000000	63.000000
0.280000	19.290000	43.430000	797.000000	0.000000	86.000000	55.000000	-99.000000	96.000000
0.290000	17.840000	44.010000	791.000000	0.000000	86.000000	55.000000	-145.000000	58.000000
0.300000	15.850000	44.600000	827.000000	0.000000	86.000000	55.000000	-199.000000	59.000000
0.310000	14.130000	44.600000	855.000000	0.000000	86.000000	55.000000	-172.000000	0.000000
0.320000	12.580000	44.170000	882.000000	0.000000	86.000000	55.000000	-155.000000	-43.000000
0.330000	11.490000	43.720000	905.000000	0.000000	86.000000	55.000000	-109.000000	-45.000000
0.340000	10.590000	43.270000	900.000000	0.000000	87.000000	55.000000	-90.000000	-45.000000
0.350000	9.820000	42.830000	905.000000	0.000000	87.000000	55.000000	-77.000000	-44.000000
0.360000	9.770000	42.830000	885.000000	0.000000	87.000000	54.000000	-5.000000	0.000000
0.370000	10.230000	43.000000	896.000000	0.000000	87.000000	54.000000	46.000000	17.000000
0.380000	11.030000	43.380000	899.000000	0.000000	87.000000	54.000000	80.000000	38.000000
0.390000	12.550000	44.340000	896.000000	0.000000	87.000000	53.000000	152.000000	96.000000
0.400000	14.700000	45.330000	908.000000	0.000000	87.000000	53.000000	215.000000	99.000000
0.410000	17.270000	46.790000	923.000000	0.000000	89.000000	54.000000	257.000000	146.000000
0.420000	20.260000	48.570000	944.000000	0.000000	89.000000	54.000000	299.000000	178.000000
0.430000	23.550000	49.900000	937.000000	0.000000	89.000000	54.000000	329.000000	133.000000
0.440000	27.040000	51.230000	946.000000	0.000000	90.000000	55.000000	349.000000	133.000000
0.450000	30.170000	52.530000	951.000000	0.000000	90.000000	55.000000	313.000000	130.000000
0.460000	33.480000	53.800000	918.000000	0.000000	91.000000	56.000000	331.000000	127.000000
0.470000	36.900000	55.250000	887.000000	0.000000	91.000000	56.000000	342.000000	145.000000
0.480000	39.550000	56.810000	834.000000	0.000000	93.000000	56.000000	265.000000	156.000000
0.490000	41.920000	58.390000	720.000000	0.000000	93.000000	56.000000	237.000000	158.000000
0.500000	44.110000	59.500000	495.000000	0.000000	94.000000	56.000000	219.000000	111.000000
0.510000	44.110000	59.500000	0.000000	1.000000	96.000000	57.000000	0.000000	0.000000
0.520000	45.980000	60.570000	0.000000	0.000000	96.000000	57.000000	187.000000	107.000000
0.530000	45.910000	60.280000	0.000000	0.000000	98.000000	57.000000	-7.000000	-29.000000
0.540000	45.030000	59.610000	0.000000	0.000000	99.000000	57.000000	-88.000000	-67.000000
0.550000	44.250000	58.820000	0.000000	0.000000	99.000000	57.000000	-78.000000	-79.000000
0.560000	43.540000	58.260000	0.000000	0.000000	99.000000	57.000000	-71.000000	-56.000000
0.570000	42.880000	57.860000	0.000000	0.000000	101.000000	57.000000	-66.000000	-40.000000
0.580000	42.230000	57.700000	0.000000	0.000000	101.000000	57.000000	-65.000000	-16.000000
0.590000	41.870000	57.700000	0.000000	0.000000	101.000000	57.000000	-36.000000	0.000000
0.600000	41.690000	57.750000	0.000000	0.000000	101.000000	57.000000	-18.000000	5.000000
0.610000	41.870000	57.920000	0.000000	0.000000	101.000000	57.000000	18.000000	17.000000
0.620000	42.060000	57.920000	0.000000	0.000000	101.000000	57.000000	19.000000	0.000000
0.630000	42.260000	57.850000	0.000000	0.000000	101.000000	57.000000	20.000000	-7.000000
0.640000	42.260000	57.850000	0.000000	0.000000	101.000000	57.000000	0.000000	0.000000
0.650000	24.460000	51.710000	0.000000	0.000000	96.000000	64.000000	-1780.000000	-614.000000
0.660000	24.460000	51.710000	0.000000	0.000000	90.000000	70.000000	0.000000	0.000000
0.670000	23.790000	51.320000	0.000000	0.000000	80.000000	74.000000	-67.000000	-39.000000
0.680000	22.670000	50.670000	0.000000	0.000000	62.000000	75.000000	-112.000000	-65.000000
0.690000	21.880000	49.970000	0.000000	0.000000	68.000000	72.000000	-79.000000	-70.000000
0.700000	21.100000	49.270000	0.000000	0.000000	72.000000	68.000000	-78.000000	-70.000000
0.710000	20.360000	48.750000	0.000000	0.000000	75.000000	65.000000	-74.000000	-52.000000
0.720000	19.990000	48.350000	0.000000	0.000000	74.000000	63.000000	-37.000000	-40.000000
0.730000	19.860000	48.100000	0.000000	0.000000	74.000000	63.000000	-13.000000	-25.000000
0.740000	20.030000	47.750000	0.000000	0.000000	72.000000	63.000000	17.000000	-35.000000
0.750000	20.210000	47.340000	0.000000	0.000000	76.000000	56.000000	18.000000	-41.000000
0.760000	20.310000	46.750000	0.000000	0.000000	79.000000	50.000000	10.000000	-59.000000
0.770000	20.360000	46.180000	0.000000	0.000000	82.000000	43.000000	5.000000	-57.000000
0.780000	19.800000	45.660000	0.000000	0.000000	83.000000	36.000000	-56.000000	-52.000000
0.790000	19.520000	45.320000	0.000000	0.000000	83.000000	36.000000	-28.000000	-34.000000
0.800000	19.430000	45.090000	0.000000	0.000000	82.000000	37.000000	-9.000000	-23.000000
0.810000	19.310000	44.910000	0.000000	0.000000	83.000000	38.000000	-12.000000	-18.000000
0.820000	19.230000	44.780000	0.000000	0.000000	82.000000	40.000000	-8.000000	-13.000000
0.830000	19.410000	44.860000	0.000000	0.000000	84.000000	42.000000	18.000000	8.000000
0.840000	19.740000	45.060000	0.000000	0.000000	85.000000	44.000000	33.000000	20.000000
0.850000	20.190000	45.380000	0.000000	0.000000	87.000000	46.000000	45.000000	32.000000
0.860000	20.550000	45.760000	0.000000	0.000000	89.000000	48.000000	36.000000	38.000000
0.870000	20.840000	46.190000	0.000000	0.000000	90.000000	50.000000	29.000000	43.000000
0.880000	20.940000	46.680000	0.000000	0.000000	91.000000	51.000000	10.000000	49.000000
0.890000	20.860000	47.380000	0.000000	0.000000	92.000000	51.000000	-8.000000	70.000000
0.900000	20.650000	48.210000	0.000000	0.000000	92.000000	51.000000	-21.000000	83.000000
0.910000	20.410000	49.100000	0.000000	0.000000	92.000000	51.000000	-24.000000	89.000000
0.920000	20.180000	50.210000	0.000000	0.000000	92.000000	51.000000	-23.000000	111.000000
0.930000	20.010000	51.460000	0.000000	0.000000	92.000000	51.000000	-17.000000	125.000000
0.940000	19.930000	52.910000	0.000000	0.000000	94.000000	51.000000	-8.000000	145.000000
0.950000	20.120000	54.350000	0.000000	0.000000	95.000000	51.000000	19.000000	144.000000
0.960000	20.470000	55.510000	0.000000	0.000000	95.000000	51.000000	35.000000	116.000000
0.970000	21.030000	56.480000	0.000000	0.000000	96.000000	51.000000	56.000000	97.000000
0.980000	21.750000	57.060000	0.000000	0.000000	98.000000	52.000000	72.000000	58.000000
0.990000	21.750000	57.060000	425.000000	1.000000	99.000000	52.000000	0.000000	0.000000
1.000000	21.750000	57.320000	387.000000	0.000000	100.000000	52.000000	0.000000	26.000000
1.010000	21.380000	57.220000	381.000000	0.000000	101.000000	53.000000	-37.000000	-10.000000
1.020000	21.300000	56.470000	388.000000	0.000000	102.000000	53.000000	-8.000000	-75.000000
1.030000	21.060000	55.310000	446.000000	0.000000	103.000000	54.000000	-24.000000	-116.000000
1.040000	20.820000	53.320000	493.000000	0.000000	101.000000	54.000000	-24.000000	-199.000000
1.050000	20.580000	50.920000	515.000000	0.000000	101.000000	54.000000	-24.000000	-240.000000
1.060000	20.370000	48.260000	529.000000	0.000000	101.000000	54.000000	-21.000000	-266.000000
1.070000	20.290000	46.320000	542.000000	0.000000	100.000000	55.000000	-8.000000	-194.000000
1.080000	20.290000	45.280000	572.000000	0.000000	99.000000	55.000000	0.000000	-104.000000
1.090000	20.290000	44.840000	599.000000	0.000000	96.000000	55.000000	0.000000	-44.000000
1.100000	20.370000	44.840000	619.000000	0.000000	94.000000	55.000000	8.000000	0.000000
1.110000	20.370000	44.840000	655.000000	0.000000	93.000000	55.000000	0.000000	0.000000
1.120000	20.370000	44.960000	665.000000	0.000000	91.000000	55.000000	0.000000	12.000000
1.130000	20.370000	45.400000	669.000000	0.000000	90.000000	55.000000	0.000000	44.000000
1.140000	20.660000	46.140000	669.000000	0.000000	90.000000	55.000000	29.000000	74.000000
1.150000	21.040000	47.080000	667.000000	0.000000	90.000000	55.000000	38.000000	94.000000
1.160000	21.550000	47.880000	670.000000	0.000000	90.000000	55.000000	51.000000	80.000000
1.170000	22.090000	48.390000	652.000000	0.000000	90.000000	56.000000	54.000000	51.000000
1.180000	22.660000	48.700000	652.000000	0.000000	91.000000	56.000000	57.000000	31.000000
1.190000	23.040000	48.590000	664.000000	0.000000	91.000000	56.000000	38.000000	-11.000000
1.200000	23.280000	48.120000	681.000000	0.000000	93.000000	56.000000	24.000000	-47.000000
1.210000	23.280000	47.410000	725.000000	0.000000	93.000000	56.000000	0.000000	-71.000000
1.220000	23.030000	46.190000	750.000000	0.000000	93.000000	56.000000	-25.000000	-122.000000
1.230000	22.590000	44.860000	832.000000	0.000000	93.000000	56.000000	-44.000000	-133.000000
1.240000	21.880000	43.460000	860.000000	0.000000	93.000000	56.000000	-71.000000	-140.000000
1.250000	21.170000	42.400000	891.000000	0.000000	91.000000	56.000000	-71.000000	-106.000000
1.260000	20.460000	41.820000	894.000000	0.000000	91.000000	56.000000	-71.000000	-58.000000
1.270000	19.810000	41.570000	906.000000	0.000000	90.000000	56.000000	-65.000000	-25.000000
1.280000	19.400000	41.490000	903.000000	0.000000	90.000000	56.000000	-41.000000	-8.000000
1.290000	19.140000	41.580000	893.000000	0.000000	90.000000	56.000000	-26.000000	9.000000
1.300000	19.010000	41.790000	899.000000	0.000000	90.000000	56.000000	-13.000000	21.000000
1.310000	19.010000	41.910000	887.000000	0.000000	90.000000	55.000000	0.000000	12.000000
1.320000	19.200000	42.220000	866.000000	0.000000	90.000000	55.000000	19.000000	31.000000
1.330000	19.470000	42.650000	861.000000	0.000000	90.000000	55.000000	27.000000	43.000000
1.340000	20.030000	43.080000	840.000000	0.000000	90.000000	55.000000	56.000000	43.000000
1.350000	20.770000	43.470000	819.000000	0.000000	90.000000	55.000000	74.000000	39.000000
1.360000	21.550000	43.840000	817.000000	0.000000	90.000000	55.000000	78.000000	37.000000
1.370000	22.350000	44.450000	802.000000	0.000000	89.000000	55.000000	80.000000	61.000000
1.380000	23.180000	45.050000	783.000000	0.000000	89.000000	56.000000	83.000000	60.000000
1.390000	23.960000	45.640000	790.000000	0.000000	89.000000	56.000000	78.000000	59.000000
1.400000	24.480000	45.970000	784.000000	0.000000	89.000000	56.000000	52.000000	33.000000
1.410000	24.860000	46.260000	780.000000	0.000000	88.000000	57.000000	38.000000	29.000000
1.420000	25.060000	46.530000	787.000000	0.000000	88.000000	57.000000	20.000000	27.000000
1.430000	25.150000	46.760000	796.000000	0.000000	90.000000	57.000000	9.000000	23.000000
1.440000	25.150000	47.090000	787.000000	0.000000	90.000000	57.000000	0.000000	33.000000
1.450000	25.050000	47.480000	796.000000	0.000000	90.000000	57.000000	-10.000000	39.000000
1.460000	24.790000	47.820000	829.000000	0.000000	90.000000	57.000000	-26.000000	34.000000
1.470000	24.440000	48.040000	846.000000	0.000000	90.000000	57.000000	-35.000000	22.000000
1.480000	24.090000	47.940000	858.000000	0.000000	90.000000	57.000000	-35.000000	-10.000000
1.490000	23.700000	47.670000	849.000000	0.000000	92.000000	57.000000	-39.000000	-27.000000
1.500000	23.290000	47.370000	855.000000	0.000000	92.000000	57.000000	-41.000000	-30.000000
1.510000	22.870000	46.750000	851.000000	0.000000	92.000000	57.000000	-42.000000	-62.000000
1.520000	22.590000	45.910000	845.000000	0.000000	92.000000	57.000000	-28.000000	-84.000000
1.530000	22.400000	44.990000	837.000000	0.000000	92.000000	57.000000	-19.000000	-92.000000
1.540000	22.400000	44.200000	828.000000	0.000000	90.000000	57.000000	0.000000	-79.000000
1.550000	22.670000	43.500000	824.000000	0.000000	90.000000	56.000000	27.000000	-70.000000
1.560000	23.090000	43.190000	806.000000	0.000000	90.000000	56.000000	42.000000	-31.000000
1.570000	23.680000	43.100000	805.000000	0.000000	90.000000	56.000000	59.000000	-9.000000
1.580000	24.280000	43.150000	806.000000	0.000000	90.000000	56.000000	60.000000	5.000000
1.590000	24.880000	43.610000	799.000000	0.000000	90.000000	56.000000	60.000000	46.000000
1.600000	25.560000	44.300000	799.000000	0.000000	88.000000	57.000000	68.000000	69.000000
1.610000	26.190000	45.140000	788.000000	0.000000	88.000000	57.000000	63.000000	84.000000
1.620000	26.700000	46.180000	788.000000	0.000000	88.000000	57.000000	51.000000	104.000000
1.630000	27.160000	47.160000	788.000000	0.000000	90.000000	57.000000	46.000000	98.000000
1.640000	27.510000	48.100000	787.000000	0.000000	90.000000	57.000000	35.000000	94.000000
1.650000	27.730000	48.920000	790.000000	0.000000	90.000000	56.000000	22.000000	82.000000
1.660000	27.860000	49.370000	791.000000	0.000000	91.000000	56.000000	13.000000	45.000000
1.670000	27.860000	49.570000	803.000000	0.000000	93.000000	56.000000	0.000000	20.000000
1.680000	27.740000	49.630000	808.000000	0.000000	94.000000	56.000000	-12.000000	6.000000
1.690000	27.620000	49.720000	814.000000	0.000000	96.000000	56.000000	-12.000000	9.000000
1.700000	27.620000	49.830000	820.000000	0.000000	97.000000	56.000000	0.000000	11.000000
1.710000	27.530000	49.880000	817.000000	0.000000	99.000000	55.000000	-9.000000	5.000000
1.720000	27.450000	49.880000	814.000000	0.000000	99.000000	56.000000	-8.000000	0.000000
1.730000	27.300000	49.880000	811.000000	0.000000	100.000000	56.000000	-15.000000	0.000000
1.740000	27.020000	49.530000	812.000000	0.000000	100.000000	56.000000	-28.000000	-35.000000
1.750000	26.640000	48.940000	818.000000	0.000000	100.000000	56.000000	-38.000000	-59.000000
1.760000	26.030000	47.830000	823.000000	0.000000	99.000000	56.000000	-61.000000	-111.000000
1.770000	25.450000	46.930000	832.000000	0.000000	99.000000	56.000000	-58.000000	-90.000000
1.780000	25.230000	46.170000	824.000000	0.000000	97.000000	56.000000	-22.000000	-76.000000
1.790000	25.230000	45.840000	805.000000	0.000000	96.000000	56.000000	0.000000	-33.000000
1.800000	25.400000	45.770000	799.000000	0.000000	95.000000	57.000000	17.000000	-7.000000
1.810000	25.840000	45.870000	809.000000	0.000000	93.000000	57.000000	44.000000	10.000000
1.820000	26.460000	46.430000	806.000000	0.000000	92.000000	57.000000	62.000000	56.000000
1.830000	27.180000	47.690000	812.000000	0.000000	92.000000	57.000000	72.000000	126.000000
1.840000	27.990000	49.430000	808.000000	0.000000	92.000000	57.000000	81.000000	174.000000
1.850000	28.870000	50.900000	805.000000	0.000000	92.000000	57.000000	88.000000	147.000000
1.860000	29.530000	52.310000	809.000000	0.000000	93.000000	57.000000	66.000000	141.000000
1.870000	29.920000	53.590000	817.000000	0.000000	95.000000	57.000000	39.000000	128.000000
1.880000	30.120000	54.560000	829.000000	0.000000	96.000000	57.000000	20.000000	97.000000
1.890000	30.030000	55.330000	849.000000	0.000000	98.000000	57.000000	-9.000000	77.000000
1.900000	29.740000	55.630000	888.000000	0.000000	99.000000	57.000000	-29.000000	30.000000
1.910000	29.310000	55.480000	896.000000	0.000000	99.000000	56.000000	-43.000000	-15.000000
1.920000	28.560000	55.040000	894.000000	0.000000	99.000000	56.000000	-75.000000	-44.000000
1.930000	27.770000	53.540000	900.000000	0.000000	100.000000	56.000000	-79.000000	-150.000000
1.940000	26.960000	51.470000	932.000000	0.000000	100.000000	56.000000	-81.000000	-207.000000
1.950000	26.230000	49.030000	948.000000	0.000000	99.000000	56.000000	-73.000000	-244.000000
1.960000	26.040000	46.390000	950.000000	0.000000	99.000000	56.000000	-19.000000	-264.000000
1.970000	26.220000	44.640000	941.000000	0.000000	97.000000	56.000000	18.000000	-175.000000
1.980000	26.660000	43.480000	923.000000	0.000000	96.000000	56.000000	44.000000	-116.000000
1.990000	27.380000	42.890000	899.000000	0.000000	94.000000	56.000000	72.000000	-59.000000
2.000000	28.280000	42.750000	869.000000	0.000000	93.000000	56.000000	90.000000	-14.000000
2.010000	29.190000	42.900000	749.000000	0.000000	91.000000	56.000000	91.000000	15.000000
2.020000	30.110000	43.530000	447.000000	0.000000	90.000000	56.000000	92.000000	63.000000
2.030000	30.110000	43.530000	0.000000	1.000000	89.000000	56.000000	0.000000	0.000000
2.040000	32.130000	46.530000	0.000000	0.000000	89.000000	56.000000	202.000000	300.000000
2.050000	33.060000	48.220000	0.000000	0.000000	89.000000	56.000000	93.000000	169.000000
2.060000	33.530000	49.590000	0.000000	0.000000	89.000000	56.000000	47.000000	137.000000
2.070000	33.740000	50.760000	0.000000	0.000000	88.000000	57.000000	21.000000	117.000000
2.080000	34.300000	51.950000	0.000000	0.000000	90.000000	57.000000	56.000000	119.000000
2.090000	34.670000	53.060000	0.000000	0.000000	90.000000	57.000000	37.000000	111.000000
2.100000	34.920000	53.990000	0.000000	0.000000	92.000000	58.000000	25.000000	93.000000
2.110000	35.440000	54.820000	0.000000	0.000000	95.000000	59.000000	52.000000	83.000000
2.120000	35.950000	55.030000	0.000000	0.000000	97.000000	59.000000	51.000000	21.000000
2.130000	36.420000	55.180000	0.000000	0.000000	102.000000	58.000000	47.000000	15.000000
2.140000	36.580000	55.080000	0.000000	0.000000	102.000000	56.000000	16.000000	-10.000000
2.150000	36.580000	54.830000	0.000000	0.000000	104.000000	54.000000	0.000000	-25.000000
2.160000	36.410000	54.420000	0.000000	0.000000	104.000000	52.000000	-17.000000	-41.000000
2.170000	36.010000	53.850000	0.000000	0.000000	105.000000	51.000000	-40.000000	-57.000000
2.180000	35.440000	53.180000	0.000000	0.000000	106.000000	50.000000	-57.000000	-67.000000
2.190000	34.970000	52.240000	0.000000	0.000000	107.000000	49.000000	-47.000000	-94.000000
2.200000	34.210000	51.110000	0.000000	0.000000	105.000000	49.000000	-76.000000	-113.000000
2.210000	33.250000	49.860000	0.000000	0.000000	104.000000	49.000000	-96.000000	-125.000000
2.220000	32.000000	48.990000	0.000000	0.000000	102.000000	50.000000	-125.000000	-87.000000
