t	x	y	pressure	penup	azimuth	inclination	v_x	v_y
0.000000	14.780000	41.020000	567.000000	1.000000	104.000000	74.000000	0.000000	0.000000
0.010000	14.780000	41.020000	760.000000	0.000000	104.000000	74.000000	0.000000	0.000000
0.020000	14.780000	41.020000	902.000000	0.000000	103.000000	73.000000	0.000000	0.000000
0.030000	14.780000	41.020000	1023.000000	0.000000	105.000000	71.000000	0.000000	0.000000
0.040000	14.780000	41.020000	1023.000000	0.000000	105.000000	71.000000	0.000000	0.000000
0.050000	15.120000	41.450000	1023.000000	0.000000	104.000000	70.000000	34.000000	43.000000
0.060000	15.470000	42.260000	1023.000000	0.000000	104.000000	70.000000	35.000000	81.000000
0.070000	15.930000	43.560000	1023.000000	0.000000	101.000000	70.000000	46.000000	130.000000
0.080000	16.450000	45.190000	1023.000000	0.000000	101.000000	70.000000	52.000000	163.000000
0.090000	16.960000	47.660000	1023.000000	0.000000	100.000000	69.000000	51.000000	247.000000
0.100000	17.390000	50.340000	1023.000000	0.000000	100.000000	69.000000	43.000000	268.000000
0.110000	17.760000	53.160000	1023.000000	0.000000	103.000000	69.000000	37.000000	282.000000
0.120000	17.930000	54.650000	1023.000000	0.000000	105.000000	67.000000	17.000000	149.000000
0.130000	17.930000	55.270000	1023.000000	0.000000	107.000000	67.000000	0.000000	62.000000
0.140000	17.760000	55.320000	1023.000000	0.000000	109.000000	67.000000	-17.000000	5.000000
0.150000	17.700000	55.170000	1023.000000	0.000000	111.000000	67.000000	-6.000000	-15.000000
0.160000	17.700000	54.260000	1023.000000	0.000000	114.000000	66.000000	0.000000	-91.000000
0.170000	17.750000	52.850000	1023.000000	0.000000	116.000000	66.000000	5.000000	-141.000000
0.180000	18.080000	51.060000	1023.000000	0.000000	116.000000	66.000000	33.000000	-179.000000
0.190000	18.580000	49.240000	1023.000000	0.000000	116.000000	66.000000	50.000000	-182.000000
0.200000	19.280000	47.360000	1023.000000	0.000000	116.000000	66.000000	70.000000	-188.000000
0.210000	20.090000	45.450000	1023.000000	0.000000	115.000000	67.000000	81.000000	-191.000000
0.220000	20.980000	43.920000	1023.000000	0.000000	112.000000	67.000000	89.000000	-153.000000
0.230000	21.830000	42.730000	1023.000000	0.000000	110.000000	68.000000	85.000000	-119.000000
0.240000	22.620000	41.760000	1023.000000	0.000000	109.000000	69.000000	79.000000	-97.000000
0.250000	23.150000	41.260000	1023.000000	0.000000	106.000000	69.000000	53.000000	-50.000000
0.260000	23.530000	41.020000	1023.000000	0.000000	104.000000	70.000000	38.000000	-24.000000
0.270000	23.690000	40.950000	1023.000000	0.000000	101.000000	71.000000	16.000000	-7.000000
0.280000	23.760000	40.950000	1023.000000	0.000000	102.000000	72.000000	7.000000	0.000000
0.290000	23.760000	40.950000	1023.000000	0.000000	102.000000	72.000000	0.000000	0.000000
0.300000	23.760000	40.950000	1023.000000	0.000000	102.000000	72.000000	0.000000	0.000000
0.310000	23.760000	40.950000	1023.000000	0.000000	102.000000	72.000000	0.000000	0.000000
0.320000	23.760000	40.950000	1023.000000	0.000000	102.000000	72.000000	0.000000	0.000000
0.330000	23.760000	40.950000	1023.000000	0.000000	102.000000	72.000000	0.000000	0.000000
0.340000	23.760000	40.950000	1023.000000	0.000000	102.000000	72.000000	0.000000	0.000000
0.350000	23.760000	40.950000	1023.000000	0.000000	102.000000	72.000000	0.000000	0.000000
0.360000	23.760000	40.950000	1023.000000	0.000000	102.000000	72.000000	0.000000	0.000000
0.370000	23.760000	40.950000	1023.000000	0.000000	102.000000	72.000000	0.000000	0.000000
0.380000	23.760000	40.950000	1023.000000	0.000000	102.000000	72.000000	0.000000	0.000000
0.390000	23.760000	40.950000	1023.000000	0.000000	102.000000	72.000000	0.000000	0.000000
0.400000	23.760000	40.950000	1023.000000	0.000000	102.000000	72.000000	0.000000	0.000000
0.410000	23.760000	40.950000	1023.000000	0.000000	102.000000	72.000000	0.000000	0.000000
0.420000	23.760000	40.950000	1023.000000	0.000000	102.000000	72.000000	0.000000	0.000000
0.430000	23.760000	40.950000	1023.000000	0.000000	102.000000	72.000000	0.000000	0.000000
0.440000	23.760000	40.950000	1023.000000	0.000000	102.000000	72.000000	0.000000	0.000000
0.450000	23.760000	40.950000	1023.000000	0.000000	102.000000	72.000000	0.000000	0.000000
0.460000	23.600000	41.240000	1023.000000	0.000000	102.000000	72.000000	-16.000000	29.000000
0.470000	23.470000	41.520000	1023.000000	0.000000	102.000000	72.000000	-13.000000	28.000000
0.480000	23.080000	41.900000	1023.000000	0.000000	102.000000	72.000000	-39.000000	38.000000
0.490000	22.380000	42.280000	1023.000000	0.000000	102.000000	72.000000	-70.000000	38.000000
0.500000	21.480000	42.660000	1023.000000	0.000000	102.000000	72.000000	-90.000000	38.000000
0.510000	20.220000	42.790000	1023.000000	0.000000	102.000000	72.000000	-126.000000	13.000000
0.520000	18.720000	42.740000	1023.000000	0.000000	102.000000	72.000000	-150.000000	-5.000000
0.530000	17.070000	42.440000	1023.000000	0.000000	105.000000	71.000000	-165.000000	-30.000000
0.540000	15.590000	41.900000	1023.000000	0.000000	104.000000	70.000000	-148.000000	-54.000000
0.550000	14.560000	41.190000	1023.000000	0.000000	107.000000	70.000000	-103.000000	-71.000000
0.560000	13.840000	40.550000	1023.000000	0.000000	108.000000	71.000000	-72.000000	-64.000000
0.570000	13.330000	39.830000	1023.000000	0.000000	108.000000	71.000000	-51.000000	-72.000000
0.580000	12.850000	39.300000	1023.000000	0.000000	111.000000	71.000000	-48.000000	-53.000000
0.590000	12.750000	38.920000	1023.000000	0.000000	112.000000	72.000000	-10.000000	-38.000000
0.600000	12.900000	38.870000	1023.000000	0.000000	112.000000	72.000000	15.000000	-5.000000
0.610000	13.440000	38.810000	1023.000000	0.000000	112.000000	72.000000	54.000000	-6.000000
0.620000	14.520000	39.170000	1023.000000	0.000000	113.000000	73.000000	108.000000	36.000000
0.630000	15.960000	39.830000	1023.000000	0.000000	113.000000	73.000000	144.000000	66.000000
0.640000	18.070000	40.680000	1023.000000	0.000000	113.000000	73.000000	211.000000	85.000000
0.650000	20.370000	41.670000	1023.000000	0.000000	109.000000	72.000000	230.000000	99.000000
0.660000	22.800000	42.750000	1023.000000	0.000000	109.000000	72.000000	243.000000	108.000000
0.670000	24.820000	43.730000	1023.000000	0.000000	109.000000	72.000000	202.000000	98.000000
0.680000	26.550000	44.430000	1023.000000	0.000000	109.000000	72.000000	173.000000	70.000000
0.690000	28.090000	44.940000	1023.000000	0.000000	106.000000	72.000000	154.000000	51.000000
0.700000	29.040000	45.270000	1023.000000	0.000000	106.000000	72.000000	95.000000	33.000000
0.710000	29.590000	45.430000	1023.000000	0.000000	106.000000	72.000000	55.000000	16.000000
0.720000	29.860000	45.480000	1023.000000	0.000000	102.000000	72.000000	27.000000	5.000000
0.730000	29.860000	45.480000	1023.000000	0.000000	102.000000	72.000000	0.000000	0.000000
0.740000	29.860000	45.480000	1023.000000	0.000000	102.000000	72.000000	0.000000	0.000000
0.750000	29.860000	45.480000	1023.000000	0.000000	101.000000	71.000000	0.000000	0.000000
0.760000	29.860000	45.480000	1023.000000	0.000000	101.000000	71.000000	0.000000	0.000000
0.770000	29.860000	45.480000	1023.000000	0.000000	101.000000	71.000000	0.000000	0.000000
0.780000	29.860000	45.480000	1023.000000	0.000000	101.000000	70.000000	0.000000	0.000000
0.790000	29.860000	45.480000	1023.000000	0.000000	101.000000	70.000000	0.000000	0.000000
0.800000	29.860000	45.480000	1023.000000	0.000000	101.000000	70.000000	0.000000	0.000000
0.810000	29.860000	45.480000	1023.000000	0.000000	101.000000	70.000000	0.000000	0.000000
0.820000	29.860000	45.480000	1023.000000	0.000000	101.000000	70.000000	0.000000	0.000000
0.830000	29.860000	45.480000	1023.000000	0.000000	101.000000	70.000000	0.000000	0.000000
0.840000	29.860000	45.480000	1023.000000	0.000000	101.000000	70.000000	0.000000	0.000000
0.850000	29.860000	45.480000	1023.000000	0.000000	101.000000	70.000000	0.000000	0.000000
0.860000	29.860000	45.480000	1023.000000	0.000000	101.000000	70.000000	0.000000	0.000000
0.870000	29.860000	45.480000	1023.000000	0.000000	101.000000	70.000000	0.000000	0.000000
0.880000	29.860000	45.480000	1023.000000	0.000000	101.000000	70.000000	0.000000	0.000000
0.890000	29.860000	45.480000	1023.000000	0.000000	101.000000	70.000000	0.000000	0.000000
0.900000	29.860000	45.480000	1023.000000	0.000000	101.000000	71.000000	0.000000	0.000000
0.910000	29.860000	45.480000	1023.000000	0.000000	101.000000	71.000000	0.000000	0.000000
0.920000	29.860000	45.480000	1023.000000	0.000000	101.000000	71.000000	0.000000	0.000000
0.930000	29.860000	45.480000	1023.000000	0.000000	101.000000	71.000000	0.000000	0.000000
0.940000	29.860000	45.480000	1023.000000	0.000000	101.000000	71.000000	0.000000	0.000000
0.950000	29.860000	45.480000	1023.000000	0.000000	101.000000	71.000000	0.000000	0.000000
0.960000	29.860000	45.480000	1023.000000	0.000000	101.000000	71.000000	0.000000	0.000000
0.970000	29.860000	45.480000	1023.000000	0.000000	101.000000	71.000000	0.000000	0.000000
0.980000	29.860000	45.480000	1023.000000	0.000000	101.000000	71.000000	0.000000	0.000000
0.990000	29.860000	45.480000	1023.000000	0.000000	101.000000	71.000000	0.000000	0.000000
1.000000	29.860000	45.480000	1023.000000	0.000000	101.000000	70.000000	0.000000	0.000000
1.010000	29.860000	45.480000	1023.000000	0.000000	101.000000	70.000000	0.000000	0.000000
1.020000	29.860000	45.480000	1023.000000	0.000000	101.000000	70.000000	0.000000	0.000000
1.030000	29.860000	45.540000	1023.000000	0.000000	101.000000	70.000000	0.000000	6.000000
1.040000	29.980000	45.610000	1023.000000	0.000000	101.000000	70.000000	12.000000	7.000000
1.050000	30.100000	45.770000	1023.000000	0.000000	101.000000	70.000000	12.000000	16.000000
1.060000	30.230000	45.980000	1023.000000	0.000000	101.000000	70.000000	13.000000	21.000000
1.070000	30.300000	46.050000	1023.000000	0.000000	101.000000	70.000000	7.000000	7.000000
1.080000	30.300000	46.100000	1023.000000	0.000000	101.000000	70.000000	0.000000	5.000000
1.090000	30.300000	46.100000	1023.000000	0.000000	101.000000	70.000000	0.000000	0.000000
1.100000	30.300000	46.100000	1023.000000	0.000000	101.000000	70.000000	0.000000	0.000000
1.110000	30.300000	46.150000	1023.000000	0.000000	101.000000	70.000000	0.000000	5.000000
1.120000	30.300000	46.220000	1023.000000	0.000000	101.000000	70.000000	0.000000	7.000000
1.130000	30.350000	46.310000	1023.000000	0.000000	101.000000	71.000000	5.000000	9.000000
1.140000	30.400000	46.450000	1023.000000	0.000000	99.000000	71.000000	5.000000	14.000000
1.150000	30.450000	46.650000	1023.000000	0.000000	99.000000	71.000000	5.000000	20.000000
1.160000	30.450000	46.880000	1023.000000	0.000000	99.000000	71.000000	0.000000	23.000000
1.170000	30.450000	47.190000	1023.000000	0.000000	99.000000	71.000000	0.000000	31.000000
1.180000	30.370000	47.610000	1023.000000	0.000000	101.000000	71.000000	-8.000000	42.000000
1.190000	30.190000	48.110000	1023.000000	0.000000	101.000000	71.000000	-18.000000	50.000000
1.200000	29.930000	48.430000	1023.000000	0.000000	104.000000	70.000000	-26.000000	32.000000
1.210000	29.550000	48.690000	1023.000000	0.000000	104.000000	70.000000	-38.000000	26.000000
1.220000	29.180000	48.690000	1023.000000	0.000000	107.000000	70.000000	-37.000000	0.000000
1.230000	28.870000	48.600000	1023.000000	0.000000	110.000000	70.000000	-31.000000	-9.000000
1.240000	28.610000	48.110000	1023.000000	0.000000	110.000000	70.000000	-26.000000	-49.000000
1.250000	28.550000	47.320000	1023.000000	0.000000	110.000000	70.000000	-6.000000	-79.000000
1.260000	28.600000	46.320000	1023.000000	0.000000	110.000000	70.000000	5.000000	-100.000000
1.270000	28.860000	45.410000	1023.000000	0.000000	110.000000	70.000000	26.000000	-91.000000
1.280000	29.260000	44.630000	1023.000000	0.000000	106.000000	69.000000	40.000000	-78.000000
1.290000	29.750000	43.940000	1023.000000	0.000000	106.000000	69.000000	49.000000	-69.000000
1.300000	30.270000	43.300000	1023.000000	0.000000	104.000000	69.000000	52.000000	-64.000000
1.310000	30.670000	42.770000	1023.000000	0.000000	101.000000	70.000000	40.000000	-53.000000
1.320000	30.980000	42.420000	1023.000000	0.000000	101.000000	71.000000	31.000000	-35.000000
1.330000	31.150000	42.150000	1023.000000	0.000000	99.000000	71.000000	17.000000	-27.000000
1.340000	31.220000	42.060000	1023.000000	0.000000	99.000000	71.000000	7.000000	-9.000000
1.350000	31.220000	42.060000	1023.000000	0.000000	99.000000	71.000000	0.000000	0.000000
1.360000	31.220000	42.120000	1023.000000	0.000000	99.000000	72.000000	0.000000	6.000000
1.370000	31.220000	42.190000	1023.000000	0.000000	99.000000	72.000000	0.000000	7.000000
1.380000	31.220000	42.430000	1023.000000	0.000000	99.000000	72.000000	0.000000	24.000000
1.390000	31.440000	42.780000	1023.000000	0.000000	99.000000	72.000000	22.000000	35.000000
1.400000	31.730000	43.400000	1023.000000	0.000000	99.000000	72.000000	29.000000	62.000000
1.410000	31.950000	44.230000	1023.000000	0.000000	99.000000	72.000000	22.000000	83.000000
1.420000	32.160000	45.210000	1023.000000	0.000000	99.000000	72.000000	21.000000	98.000000
1.430000	32.370000	46.860000	1023.000000	0.000000	99.000000	72.000000	21.000000	165.000000
1.440000	32.370000	48.850000	1023.000000	0.000000	99.000000	72.000000	0.000000	199.000000
1.450000	32.150000	51.060000	1023.000000	0.000000	103.000000	73.000000	-22.000000	221.000000
1.460000	31.770000	53.010000	1023.000000	0.000000	106.000000	72.000000	-38.000000	195.000000
1.470000	31.340000	54.400000	1023.000000	0.000000	109.000000	72.000000	-43.000000	139.000000
1.480000	30.810000	55.420000	1023.000000	0.000000	112.000000	72.000000	-53.000000	102.000000
1.490000	30.220000	55.870000	1023.000000	0.000000	116.000000	70.000000	-59.000000	45.000000
1.500000	29.840000	56.070000	1023.000000	0.000000	118.000000	70.000000	-38.000000	20.000000
1.510000	29.720000	56.070000	1023.000000	0.000000	121.000000	69.000000	-12.000000	0.000000
1.520000	29.770000	55.980000	1023.000000	0.000000	123.000000	69.000000	5.000000	-9.000000
1.530000	29.980000	55.180000	1023.000000	0.000000	123.000000	69.000000	21.000000	-80.000000
1.540000	30.390000	53.920000	1023.000000	0.000000	125.000000	68.000000	41.000000	-126.000000
1.550000	30.930000	52.160000	1023.000000	0.000000	127.000000	69.000000	54.000000	-176.000000
1.560000	31.720000	50.540000	1023.000000	0.000000	127.000000	69.000000	79.000000	-162.000000
1.570000	32.420000	49.010000	1023.000000	0.000000	125.000000	70.000000	70.000000	-153.000000
1.580000	33.070000	47.650000	1023.000000	0.000000	125.000000	70.000000	65.000000	-136.000000
1.590000	33.520000	46.610000	1023.000000	0.000000	124.000000	71.000000	45.000000	-104.000000
1.600000	33.840000	45.780000	1023.000000	0.000000	122.000000	71.000000	32.000000	-83.000000
1.610000	34.060000	45.210000	1023.000000	0.000000	119.000000	72.000000	22.000000	-57.000000
1.620000	34.290000	44.940000	1023.000000	0.000000	113.000000	73.000000	23.000000	-27.000000
1.630000	34.370000	44.870000	1023.000000	0.000000	111.000000	74.000000	8.000000	-7.000000
1.640000	34.370000	44.870000	1023.000000	0.000000	108.000000	74.000000	0.000000	0.000000
1.650000	34.370000	44.870000	1023.000000	0.000000	105.000000	75.000000	0.000000	0.000000
1.660000	34.370000	44.870000	1023.000000	0.000000	101.000000	75.000000	0.000000	0.000000
1.670000	34.370000	44.870000	1023.000000	0.000000	101.000000	75.000000	0.000000	0.000000
1.680000	34.370000	44.870000	1023.000000	0.000000	101.000000	75.000000	0.000000	0.000000
1.690000	34.370000	44.870000	1023.000000	0.000000	97.000000	75.000000	0.000000	0.000000
1.700000	34.370000	44.870000	1023.000000	0.000000	97.000000	75.000000	0.000000	0.000000
1.710000	34.370000	44.870000	1023.000000	0.000000	97.000000	75.000000	0.000000	0.000000
1.720000	34.370000	44.870000	1023.000000	0.000000	97.000000	75.000000	0.000000	0.000000
1.730000	34.370000	45.130000	1023.000000	0.000000	97.000000	75.000000	0.000000	26.000000
1.740000	34.370000	45.210000	981.000000	0.000000	97.000000	74.000000	0.000000	8.000000
1.750000	34.370000	45.290000	516.000000	0.000000	97.000000	74.000000	0.000000	8.000000
1.760000	34.370000	45.290000	0.000000	1.000000	97.000000	74.000000	0.000000	0.000000
1.770000	34.000000	45.560000	0.000000	0.000000	100.000000	74.000000	-37.000000	27.000000
1.780000	33.620000	45.660000	0.000000	0.000000	100.000000	74.000000	-38.000000	10.000000
1.790000	33.110000	45.770000	0.000000	0.000000	103.000000	73.000000	-51.000000	11.000000
1.800000	32.500000	45.910000	0.000000	0.000000	103.000000	73.000000	-61.000000	14.000000
1.810000	31.830000	46.060000	0.000000	0.000000	105.000000	71.000000	-67.000000	15.000000
1.820000	31.140000	46.260000	0.000000	0.000000	108.000000	71.000000	-69.000000	20.000000
1.830000	30.440000	46.440000	0.000000	0.000000	110.000000	70.000000	-70.000000	18.000000
1.840000	29.590000	46.560000	0.000000	0.000000	111.000000	69.000000	-85.000000	12.000000
1.850000	28.500000	46.510000	0.000000	0.000000	112.000000	67.000000	-109.000000	-5.000000
1.860000	27.260000	46.350000	0.000000	0.000000	114.000000	66.000000	-124.000000	-16.000000
1.870000	26.030000	46.180000	0.000000	0.000000	116.000000	66.000000	-123.000000	-17.000000
1.880000	24.830000	45.980000	0.000000	0.000000	116.000000	66.000000	-120.000000	-20.000000
1.890000	23.700000	45.730000	0.000000	0.000000	118.000000	65.000000	-113.000000	-25.000000
1.900000	22.770000	45.490000	0.000000	0.000000	119.000000	66.000000	-93.000000	-24.000000
1.910000	21.960000	45.390000	0.000000	0.000000	117.000000	67.000000	-81.000000	-10.000000
1.920000	21.510000	45.390000	0.000000	0.000000	118.000000	68.000000	-45.000000	0.000000
1.930000	21.380000	45.490000	0.000000	0.000000	119.000000	68.000000	-13.000000	10.000000
1.940000	21.460000	45.680000	0.000000	0.000000	118.000000	70.000000	8.000000	19.000000
1.950000	21.670000	45.930000	0.000000	0.000000	118.000000	70.000000	21.000000	25.000000
1.960000	21.920000	46.190000	0.000000	0.000000	118.000000	70.000000	25.000000	26.000000
1.970000	22.210000	46.450000	0.000000	0.000000	118.000000	70.000000	29.000000	26.000000
1.980000	22.470000	46.710000	0.000000	0.000000	118.000000	70.000000	26.000000	26.000000
1.990000	22.630000	46.860000	0.000000	0.000000	118.000000	70.000000	16.000000	15.000000
2.000000	22.730000	47.010000	0.000000	0.000000	118.000000	70.000000	10.000000	15.000000
2.010000	22.880000	47.140000	0.000000	0.000000	118.000000	70.000000	15.000000	13.000000
2.020000	23.030000	47.280000	0.000000	0.000000	118.000000	70.000000	15.000000	14.000000
2.030000	23.140000	47.420000	0.000000	0.000000	118.000000	70.000000	11.000000	14.000000
2.040000	23.140000	47.560000	0.000000	0.000000	118.000000	70.000000	0.000000	14.000000
2.050000	23.140000	47.760000	0.000000	0.000000	121.000000	69.000000	0.000000	20.000000
2.060000	23.140000	48.000000	0.000000	0.000000	118.000000	70.000000	0.000000	24.000000
2.070000	23.140000	48.260000	0.000000	0.000000	118.000000	70.000000	0.000000	26.000000
2.080000	23.090000	48.500000	0.000000	0.000000	118.000000	70.000000	-5.000000	24.000000
2.090000	23.090000	48.500000	0.000000	0.000000	116.000000	70.000000	0.000000	0.000000
2.100000	22.820000	48.810000	0.000000	0.000000	113.000000	71.000000	-27.000000	31.000000
2.110000	22.730000	48.870000	0.000000	0.000000	112.000000	70.000000	-9.000000	6.000000
2.120000	22.640000	48.870000	0.000000	0.000000	110.000000	70.000000	-9.000000	0.000000
2.130000	22.540000	48.870000	0.000000	0.000000	107.000000	70.000000	-10.000000	0.000000
2.140000	22.540000	48.930000	0.000000	0.000000	107.000000	70.000000	0.000000	6.000000
2.150000	22.480000	48.930000	0.000000	0.000000	106.000000	69.000000	-6.000000	0.000000
2.160000	22.480000	48.930000	0.000000	0.000000	106.000000	69.000000	0.000000	0.000000
2.170000	22.480000	48.930000	0.000000	0.000000	106.000000	69.000000	0.000000	0.000000
2.180000	22.480000	48.880000	0.000000	0.000000	109.000000	69.000000	0.000000	-5.000000
2.190000	22.480000	48.820000	0.000000	0.000000	109.000000	69.000000	0.000000	-6.000000
2.200000	22.560000	48.690000	0.000000	0.000000	109.000000	69.000000	8.000000	-13.000000
