t	x	y	pressure	penup	azimuth	inclination	v_x	v_y
0.000000	14.520000	24.620000	588.000000	1.000000	132.000000	75.000000	0.000000	0.000000
0.010000	14.380000	23.890000	818.000000	0.000000	129.000000	76.000000	-14.000000	-73.000000
0.020000	14.380000	23.770000	943.000000	0.000000	123.000000	76.000000	0.000000	-12.000000
0.030000	14.330000	23.770000	1023.000000	0.000000	120.000000	76.000000	-5.000000	0.000000
0.040000	14.430000	23.940000	1023.000000	0.000000	114.000000	76.000000	10.000000	17.000000
0.050000	14.600000	24.240000	1023.000000	0.000000	111.000000	76.000000	17.000000	30.000000
0.060000	14.920000	25.170000	1023.000000	0.000000	111.000000	76.000000	32.000000	93.000000
0.070000	15.330000	26.590000	1023.000000	0.000000	106.000000	75.000000	41.000000	142.000000
0.080000	15.860000	28.340000	1023.000000	0.000000	106.000000	75.000000	53.000000	175.000000
0.090000	16.400000	30.470000	1023.000000	0.000000	105.000000	75.000000	54.000000	213.000000
0.100000	16.950000	32.840000	1023.000000	0.000000	107.000000	73.000000	55.000000	237.000000
0.110000	17.270000	35.370000	1023.000000	0.000000	109.000000	72.000000	32.000000	253.000000
0.120000	17.430000	36.900000	1023.000000	0.000000	111.000000	71.000000	16.000000	153.000000
0.130000	17.340000	37.690000	1023.000000	0.000000	112.000000	70.000000	-9.000000	79.000000
0.140000	17.230000	38.000000	1023.000000	0.000000	116.000000	68.000000	-11.000000	31.000000
0.150000	17.100000	38.000000	1023.000000	0.000000	118.000000	68.000000	-13.000000	0.000000
0.160000	17.150000	37.610000	1023.000000	0.000000	120.000000	67.000000	5.000000	-39.000000
0.170000	17.250000	36.900000	1023.000000	0.000000	119.000000	66.000000	10.000000	-71.000000
0.180000	17.430000	34.930000	1023.000000	0.000000	119.000000	66.000000	18.000000	-197.000000
0.190000	17.960000	32.900000	1023.000000	0.000000	121.000000	66.000000	53.000000	-203.000000
0.200000	18.730000	30.840000	1023.000000	0.000000	121.000000	66.000000	77.000000	-206.000000
0.210000	19.750000	28.780000	1023.000000	0.000000	119.000000	66.000000	102.000000	-206.000000
0.220000	20.820000	27.160000	1023.000000	0.000000	120.000000	67.000000	107.000000	-162.000000
0.230000	21.950000	26.000000	1023.000000	0.000000	118.000000	68.000000	113.000000	-116.000000
0.240000	22.750000	25.150000	1023.000000	0.000000	115.000000	69.000000	80.000000	-85.000000
0.250000	23.340000	24.710000	1023.000000	0.000000	112.000000	70.000000	59.000000	-44.000000
0.260000	23.610000	24.550000	1023.000000	0.000000	111.000000	71.000000	27.000000	-16.000000
0.270000	23.730000	24.550000	1023.000000	0.000000	105.000000	71.000000	12.000000	0.000000
0.280000	23.730000	24.550000	1023.000000	0.000000	102.000000	72.000000	0.000000	0.000000
0.290000	23.730000	24.550000	1023.000000	0.000000	100.000000	73.000000	0.000000	0.000000
0.300000	23.730000	24.550000	1023.000000	0.000000	97.000000	73.000000	0.000000	0.000000
0.310000	23.730000	24.550000	1023.000000	0.000000	97.000000	74.000000	0.000000	0.000000
0.320000	23.730000	24.550000	1023.000000	0.000000	97.000000	74.000000	0.000000	0.000000
0.330000	23.730000	24.550000	1023.000000	0.000000	97.000000	74.000000	0.000000	0.000000
0.340000	23.730000	24.600000	1023.000000	0.000000	97.000000	74.000000	0.000000	5.000000
0.350000	23.630000	24.600000	1023.000000	0.000000	97.000000	74.000000	-10.000000	0.000000
0.360000	23.480000	24.710000	1023.000000	0.000000	97.000000	74.000000	-15.000000	11.000000
0.370000	23.190000	24.890000	1023.000000	0.000000	97.000000	74.000000	-29.000000	18.000000
0.380000	22.640000	25.150000	1023.000000	0.000000	97.000000	74.000000	-55.000000	26.000000
0.390000	21.910000	25.470000	1023.000000	0.000000	97.000000	74.000000	-73.000000	32.000000
0.400000	20.600000	25.770000	1023.000000	0.000000	97.000000	73.000000	-131.000000	30.000000
0.410000	19.020000	25.720000	1023.000000	0.000000	100.000000	73.000000	-158.000000	-5.000000
0.420000	17.250000	25.440000	1023.000000	0.000000	100.000000	73.000000	-177.000000	-28.000000
0.430000	15.450000	24.780000	1023.000000	0.000000	103.000000	73.000000	-180.000000	-66.000000
0.440000	14.100000	24.100000	1023.000000	0.000000	103.000000	73.000000	-135.000000	-68.000000
0.450000	13.040000	23.400000	1023.000000	0.000000	107.000000	73.000000	-106.000000	-70.000000
0.460000	12.480000	23.040000	1023.000000	0.000000	107.000000	73.000000	-56.000000	-36.000000
0.470000	12.320000	22.890000	1023.000000	0.000000	111.000000	74.000000	-16.000000	-15.000000
0.480000	12.430000	22.890000	1023.000000	0.000000	113.000000	75.000000	11.000000	0.000000
0.490000	12.730000	22.820000	1023.000000	0.000000	114.000000	76.000000	30.000000	-7.000000
0.500000	13.600000	23.060000	1023.000000	0.000000	120.000000	76.000000	87.000000	24.000000
0.510000	14.840000	23.490000	1023.000000	0.000000	120.000000	76.000000	124.000000	43.000000
0.520000	16.760000	24.230000	1023.000000	0.000000	120.000000	76.000000	192.000000	74.000000
0.530000	18.680000	25.010000	1023.000000	0.000000	114.000000	76.000000	192.000000	78.000000
0.540000	20.460000	25.810000	1023.000000	0.000000	113.000000	75.000000	178.000000	80.000000
0.550000	22.140000	26.350000	1023.000000	0.000000	113.000000	75.000000	168.000000	54.000000
0.560000	23.370000	26.880000	1023.000000	0.000000	111.000000	74.000000	123.000000	53.000000
0.570000	24.200000	27.220000	1023.000000	0.000000	111.000000	74.000000	83.000000	34.000000
0.580000	24.770000	27.430000	1023.000000	0.000000	110.000000	73.000000	57.000000	21.000000
0.590000	25.130000	27.590000	1023.000000	0.000000	110.000000	73.000000	36.000000	16.000000
0.600000	25.410000	27.790000	1023.000000	0.000000	110.000000	73.000000	28.000000	20.000000
0.610000	25.640000	28.010000	1023.000000	0.000000	110.000000	73.000000	23.000000	22.000000
0.620000	25.640000	28.010000	1023.000000	0.000000	113.000000	73.000000	0.000000	0.000000
0.630000	25.640000	28.070000	1023.000000	0.000000	113.000000	73.000000	0.000000	6.000000
0.640000	25.640000	28.070000	1023.000000	0.000000	113.000000	73.000000	0.000000	0.000000
0.650000	25.640000	28.070000	1023.000000	0.000000	116.000000	72.000000	0.000000	0.000000
0.660000	25.640000	28.070000	1023.000000	0.000000	118.000000	73.000000	0.000000	0.000000
0.670000	25.640000	28.070000	1023.000000	0.000000	118.000000	73.000000	0.000000	0.000000
0.680000	25.640000	28.070000	1023.000000	0.000000	118.000000	73.000000	0.000000	0.000000
0.690000	25.640000	28.070000	1023.000000	0.000000	118.000000	73.000000	0.000000	0.000000
0.700000	25.640000	28.070000	1023.000000	0.000000	118.000000	73.000000	0.000000	0.000000
0.710000	25.640000	28.070000	1023.000000	0.000000	118.000000	73.000000	0.000000	0.000000
0.720000	25.640000	28.070000	1023.000000	0.000000	118.000000	73.000000	0.000000	0.000000
0.730000	25.640000	28.020000	1023.000000	0.000000	118.000000	73.000000	0.000000	-5.000000
0.740000	25.640000	28.020000	1023.000000	0.000000	118.000000	73.000000	0.000000	0.000000
0.750000	25.640000	28.020000	1023.000000	0.000000	118.000000	73.000000	0.000000	0.000000
0.760000	25.640000	28.020000	1023.000000	0.000000	118.000000	73.000000	0.000000	0.000000
0.770000	25.640000	28.020000	1023.000000	0.000000	116.000000	72.000000	0.000000	0.000000
0.780000	25.640000	28.020000	1023.000000	0.000000	116.000000	72.000000	0.000000	0.000000
0.790000	25.640000	28.020000	1023.000000	0.000000	116.000000	72.000000	0.000000	0.000000
0.800000	25.640000	28.020000	1023.000000	0.000000	116.000000	72.000000	0.000000	0.000000
0.810000	25.640000	28.020000	1023.000000	0.000000	116.000000	72.000000	0.000000	0.000000
0.820000	25.640000	28.020000	1023.000000	0.000000	116.000000	72.000000	0.000000	0.000000
0.830000	25.640000	28.020000	1023.000000	0.000000	116.000000	72.000000	0.000000	0.000000
0.840000	25.640000	28.020000	1023.000000	0.000000	116.000000	72.000000	0.000000	0.000000
0.850000	25.640000	28.020000	1023.000000	0.000000	116.000000	72.000000	0.000000	0.000000
0.860000	25.640000	28.020000	1023.000000	0.000000	116.000000	72.000000	0.000000	0.000000
0.870000	25.640000	28.020000	1023.000000	0.000000	116.000000	72.000000	0.000000	0.000000
0.880000	25.640000	28.020000	1023.000000	0.000000	116.000000	72.000000	0.000000	0.000000
0.890000	25.640000	28.020000	1023.000000	0.000000	116.000000	72.000000	0.000000	0.000000
0.900000	25.640000	28.020000	1023.000000	0.000000	116.000000	72.000000	0.000000	0.000000
0.910000	25.640000	28.070000	1023.000000	0.000000	116.000000	72.000000	0.000000	5.000000
0.920000	25.640000	28.070000	1023.000000	0.000000	116.000000	72.000000	0.000000	0.000000
0.930000	25.640000	28.120000	1023.000000	0.000000	116.000000	72.000000	0.000000	5.000000
0.940000	25.640000	28.170000	1023.000000	0.000000	116.000000	72.000000	0.000000	5.000000
0.950000	25.640000	28.500000	1023.000000	0.000000	116.000000	72.000000	0.000000	33.000000
0.960000	25.640000	28.990000	1023.000000	0.000000	116.000000	72.000000	0.000000	49.000000
0.970000	25.800000	29.580000	1023.000000	0.000000	116.000000	72.000000	16.000000	59.000000
0.980000	25.800000	30.300000	1023.000000	0.000000	116.000000	72.000000	0.000000	72.000000
0.990000	25.800000	31.330000	1023.000000	0.000000	116.000000	72.000000	0.000000	103.000000
1.000000	25.710000	32.560000	1023.000000	0.000000	116.000000	72.000000	-9.000000	123.000000
1.010000	25.480000	34.100000	1023.000000	0.000000	116.000000	72.000000	-23.000000	154.000000
1.020000	25.130000	35.230000	1023.000000	0.000000	116.000000	72.000000	-35.000000	113.000000
1.030000	24.800000	36.090000	1023.000000	0.000000	119.000000	72.000000	-33.000000	86.000000
1.040000	24.440000	36.330000	1023.000000	0.000000	119.000000	72.000000	-36.000000	24.000000
1.050000	24.060000	36.380000	1023.000000	0.000000	119.000000	72.000000	-38.000000	5.000000
1.060000	23.880000	36.310000	1023.000000	0.000000	117.000000	71.000000	-18.000000	-7.000000
1.070000	23.620000	35.680000	1023.000000	0.000000	120.000000	71.000000	-26.000000	-63.000000
1.080000	23.570000	34.460000	1023.000000	0.000000	120.000000	71.000000	-5.000000	-122.000000
1.090000	23.670000	32.860000	1023.000000	0.000000	120.000000	71.000000	10.000000	-160.000000
1.100000	24.140000	31.240000	1023.000000	0.000000	120.000000	71.000000	47.000000	-162.000000
1.110000	24.660000	29.790000	1023.000000	0.000000	120.000000	71.000000	52.000000	-145.000000
1.120000	25.190000	28.700000	1023.000000	0.000000	117.000000	71.000000	53.000000	-109.000000
1.130000	25.710000	27.800000	1023.000000	0.000000	117.000000	71.000000	52.000000	-90.000000
1.140000	26.110000	27.130000	1023.000000	0.000000	117.000000	71.000000	40.000000	-67.000000
1.150000	26.370000	26.420000	1023.000000	0.000000	116.000000	72.000000	26.000000	-71.000000
1.160000	26.530000	26.140000	1023.000000	0.000000	113.000000	73.000000	16.000000	-28.000000
1.170000	26.660000	26.140000	1023.000000	0.000000	110.000000	73.000000	13.000000	0.000000
1.180000	26.660000	26.140000	1023.000000	0.000000	108.000000	74.000000	0.000000	0.000000
1.190000	26.660000	26.140000	1023.000000	0.000000	105.000000	75.000000	0.000000	0.000000
1.200000	26.660000	26.140000	1023.000000	0.000000	105.000000	75.000000	0.000000	0.000000
1.210000	26.660000	26.140000	1023.000000	0.000000	102.000000	76.000000	0.000000	0.000000
1.220000	26.660000	26.190000	1023.000000	0.000000	98.000000	76.000000	0.000000	5.000000
1.230000	26.610000	26.250000	1023.000000	0.000000	98.000000	76.000000	-5.000000	6.000000
1.240000	26.610000	26.250000	1023.000000	0.000000	98.000000	76.000000	0.000000	0.000000
1.250000	26.550000	26.310000	1023.000000	0.000000	98.000000	76.000000	-6.000000	6.000000
1.260000	26.550000	26.310000	1023.000000	0.000000	98.000000	76.000000	0.000000	0.000000
1.270000	26.550000	26.310000	1023.000000	0.000000	98.000000	76.000000	0.000000	0.000000
1.280000	26.550000	26.310000	1023.000000	0.000000	98.000000	76.000000	0.000000	0.000000
1.290000	26.550000	26.310000	1023.000000	0.000000	98.000000	76.000000	0.000000	0.000000
1.300000	26.550000	26.310000	1023.000000	0.000000	98.000000	76.000000	0.000000	0.000000
1.310000	26.550000	26.310000	1023.000000	0.000000	98.000000	76.000000	0.000000	0.000000
1.320000	26.550000	26.310000	1023.000000	0.000000	98.000000	76.000000	0.000000	0.000000
1.330000	26.550000	26.310000	1023.000000	0.000000	98.000000	76.000000	0.000000	0.000000
1.340000	26.550000	26.310000	1023.000000	0.000000	98.000000	76.000000	0.000000	0.000000
1.350000	26.550000	26.310000	1023.000000	0.000000	102.000000	76.000000	0.000000	0.000000
1.360000	26.550000	26.310000	1023.000000	0.000000	102.000000	76.000000	0.000000	0.000000
1.370000	26.550000	26.310000	1023.000000	0.000000	102.000000	76.000000	0.000000	0.000000
1.380000	26.550000	26.310000	1023.000000	0.000000	102.000000	76.000000	0.000000	0.000000
1.390000	26.550000	26.310000	1023.000000	0.000000	102.000000	76.000000	0.000000	0.000000
1.400000	26.550000	26.310000	1023.000000	0.000000	102.000000	76.000000	0.000000	0.000000
1.410000	26.550000	26.310000	1023.000000	0.000000	102.000000	76.000000	0.000000	0.000000
1.420000	26.550000	26.310000	1023.000000	0.000000	102.000000	76.000000	0.000000	0.000000
1.430000	26.550000	26.310000	1023.000000	0.000000	102.000000	76.000000	0.000000	0.000000
1.440000	26.550000	26.310000	1023.000000	0.000000	102.000000	76.000000	0.000000	0.000000
1.450000	26.550000	26.310000	1023.000000	0.000000	102.000000	76.000000	0.000000	0.000000
1.460000	26.550000	26.310000	1023.000000	0.000000	102.000000	76.000000	0.000000	0.000000
1.470000	26.550000	26.310000	1023.000000	0.000000	102.000000	76.000000	0.000000	0.000000
1.480000	26.550000	26.310000	1023.000000	0.000000	102.000000	76.000000	0.000000	0.000000
1.490000	26.550000	26.310000	1023.000000	0.000000	102.000000	76.000000	0.000000	0.000000
1.500000	26.550000	26.310000	1023.000000	0.000000	102.000000	76.000000	0.000000	0.000000
1.510000	26.550000	26.310000	1023.000000	0.000000	102.000000	76.000000	0.000000	0.000000
1.520000	26.550000	26.310000	1023.000000	0.000000	102.000000	76.000000	0.000000	0.000000
1.530000	26.550000	26.310000	1023.000000	0.000000	102.000000	76.000000	0.000000	0.000000
1.540000	26.550000	26.310000	1023.000000	0.000000	102.000000	76.000000	0.000000	0.000000
1.550000	26.550000	26.310000	1023.000000	0.000000	102.000000	76.000000	0.000000	0.000000
1.560000	26.550000	26.310000	1023.000000	0.000000	103.000000	77.000000	0.000000	0.000000
1.570000	26.550000	26.310000	1023.000000	0.000000	103.000000	77.000000	0.000000	0.000000
1.580000	26.550000	26.310000	1023.000000	0.000000	103.000000	77.000000	0.000000	0.000000
1.590000	26.550000	26.310000	1023.000000	0.000000	103.000000	77.000000	0.000000	0.000000
1.600000	26.550000	26.310000	1023.000000	0.000000	103.000000	77.000000	0.000000	0.000000
1.610000	26.550000	26.310000	1023.000000	0.000000	103.000000	77.000000	0.000000	0.000000
1.620000	26.550000	26.310000	1023.000000	0.000000	103.000000	77.000000	0.000000	0.000000
1.630000	26.550000	26.310000	1023.000000	0.000000	103.000000	77.000000	0.000000	0.000000
1.640000	26.550000	26.310000	1023.000000	0.000000	103.000000	77.000000	0.000000	0.000000
1.650000	26.550000	26.310000	1023.000000	0.000000	102.000000	76.000000	0.000000	0.000000
1.660000	26.550000	26.310000	1023.000000	0.000000	102.000000	76.000000	0.000000	0.000000
1.670000	26.550000	26.310000	1023.000000	0.000000	102.000000	76.000000	0.000000	0.000000
1.680000	26.550000	26.310000	1023.000000	0.000000	102.000000	76.000000	0.000000	0.000000
1.690000	26.550000	26.260000	1023.000000	0.000000	102.000000	76.000000	0.000000	-5.000000
1.700000	26.550000	26.260000	1023.000000	0.000000	102.000000	76.000000	0.000000	0.000000
1.710000	26.550000	26.260000	1023.000000	0.000000	102.000000	76.000000	0.000000	0.000000
1.720000	26.550000	26.260000	1023.000000	0.000000	102.000000	76.000000	0.000000	0.000000
1.730000	26.550000	26.260000	1023.000000	0.000000	102.000000	76.000000	0.000000	0.000000
1.740000	26.550000	26.260000	1023.000000	0.000000	102.000000	76.000000	0.000000	0.000000
1.750000	26.550000	26.260000	1023.000000	0.000000	102.000000	76.000000	0.000000	0.000000
1.760000	26.550000	26.260000	1023.000000	0.000000	106.000000	75.000000	0.000000	0.000000
1.770000	26.550000	26.260000	1023.000000	0.000000	106.000000	75.000000	0.000000	0.000000
1.780000	26.550000	26.260000	1023.000000	0.000000	106.000000	75.000000	0.000000	0.000000
1.790000	26.550000	26.260000	1023.000000	0.000000	106.000000	75.000000	0.000000	0.000000
1.800000	26.550000	26.260000	1023.000000	0.000000	106.000000	75.000000	0.000000	0.000000
1.810000	26.550000	26.260000	1023.000000	0.000000	106.000000	75.000000	0.000000	0.000000
1.820000	26.550000	26.260000	1023.000000	0.000000	106.000000	75.000000	0.000000	0.000000
1.830000	26.550000	26.260000	1023.000000	0.000000	107.000000	76.000000	0.000000	0.000000
1.840000	26.550000	26.260000	1023.000000	0.000000	103.000000	77.000000	0.000000	0.000000
1.850000	26.550000	26.260000	1023.000000	0.000000	103.000000	77.000000	0.000000	0.000000
1.860000	26.550000	26.260000	1023.000000	0.000000	103.000000	77.000000	0.000000	0.000000
1.870000	26.550000	26.260000	1023.000000	0.000000	103.000000	77.000000	0.000000	0.000000
1.880000	26.550000	26.260000	1023.000000	0.000000	103.000000	77.000000	0.000000	0.000000
1.890000	26.550000	26.260000	1023.000000	0.000000	103.000000	77.000000	0.000000	0.000000
1.900000	26.550000	26.260000	1023.000000	0.000000	102.000000	76.000000	0.000000	0.000000
1.910000	26.550000	26.260000	1023.000000	0.000000	102.000000	76.000000	0.000000	0.000000
1.920000	26.550000	26.260000	1023.000000	0.000000	102.000000	76.000000	0.000000	0.000000
1.930000	26.550000	26.260000	1023.000000	0.000000	102.000000	76.000000	0.000000	0.000000
1.940000	26.550000	26.260000	1023.000000	0.000000	102.000000	76.000000	0.000000	0.000000
1.950000	26.550000	26.260000	1023.000000	0.000000	102.000000	76.000000	0.000000	0.000000
1.960000	26.550000	26.260000	1023.000000	0.000000	102.000000	76.000000	0.000000	0.000000
1.970000	26.550000	26.260000	1023.000000	0.000000	102.000000	76.000000	0.000000	0.000000
1.980000	26.550000	26.260000	1023.000000	0.000000	102.000000	76.000000	0.000000	0.000000
1.990000	26.550000	26.260000	1023.000000	0.000000	102.000000	76.000000	0.000000	0.000000
2.000000	26.550000	26.260000	1023.000000	0.000000	102.000000	76.000000	0.000000	0.000000
2.010000	26.550000	26.260000	1023.000000	0.000000	102.000000	76.000000	0.000000	0.000000
2.020000	26.550000	26.260000	1023.000000	0.000000	102.000000	76.000000	0.000000	0.000000
2.030000	26.550000	26.260000	1023.000000	0.000000	102.000000	76.000000	0.000000	0.000000
2.040000	26.550000	26.260000	1023.000000	0.000000	102.000000	76.000000	0.000000	0.000000
2.050000	26.550000	26.260000	1023.000000	0.000000	102.000000	76.000000	0.000000	0.000000
2.060000	26.550000	26.260000	1023.000000	0.000000	102.000000	76.000000	0.000000	0.000000
2.070000	26.550000	26.260000	1023.000000	0.000000	102.000000	76.000000	0.000000	0.000000
2.080000	26.550000	26.260000	1023.000000	0.000000	102.000000	76.000000	0.000000	0.000000
2.090000	26.550000	26.260000	1023.000000	0.000000	102.000000	76.000000	0.000000	0.000000
2.100000	26.550000	26.260000	1023.000000	0.000000	102.000000	76.000000	0.000000	0.000000
2.110000	26.550000	26.260000	1023.000000	0.000000	102.000000	76.000000	0.000000	0.000000
2.120000	26.550000	26.260000	1023.000000	0.000000	102.000000	76.000000	0.000000	0.000000
2.130000	26.550000	26.260000	1023.000000	0.000000	102.000000	76.000000	0.000000	0.000000
2.140000	26.550000	26.260000	1023.000000	0.000000	102.000000	76.000000	0.000000	0.000000
2.150000	26.550000	26.260000	1023.000000	0.000000	102.000000	76.000000	0.000000	0.000000
2.160000	26.550000	26.260000	1023.000000	0.000000	102.000000	76.000000	0.000000	0.000000
2.170000	26.550000	26.260000	1023.000000	0.000000	102.000000	76.000000	0.000000	0.000000
2.180000	26.550000	26.260000	1023.000000	0.000000	106.000000	75.000000	0.000000	0.000000
2.190000	26.550000	26.260000	1023.000000	0.000000	106.000000	75.000000	0.000000	0.000000
2.200000	26.550000	26.260000	1023.000000	0.000000	102.000000	76.000000	0.000000	0.000000
