t	x	y	pressure	penup	azimuth	inclination	v_x	v_y
0.000000	55.620000	86.390000	828.000000	1.000000	133.000000	73.000000	0.000000	0.000000
0.010000	56.310000	88.220000	902.000000	0.000000	135.000000	72.000000	69.000000	183.000000
0.020000	56.310000	88.350000	982.000000	0.000000	137.000000	71.000000	0.000000	13.000000
0.030000	56.310000	88.140000	1023.000000	0.000000	142.000000	71.000000	0.000000	-21.000000
0.040000	56.240000	87.120000	1023.000000	0.000000	142.000000	71.000000	-7.000000	-102.000000
0.050000	56.360000	85.570000	1023.000000	0.000000	142.000000	71.000000	12.000000	-155.000000
0.060000	56.590000	83.270000	1023.000000	0.000000	142.000000	71.000000	23.000000	-230.000000
0.070000	56.830000	80.890000	1023.000000	0.000000	142.000000	71.000000	24.000000	-238.000000
0.080000	57.310000	78.460000	1023.000000	0.000000	140.000000	72.000000	48.000000	-243.000000
0.090000	57.790000	76.740000	1023.000000	0.000000	140.000000	72.000000	48.000000	-172.000000
0.100000	58.290000	75.490000	1023.000000	0.000000	140.000000	72.000000	50.000000	-125.000000
0.110000	58.570000	74.560000	1023.000000	0.000000	140.000000	72.000000	28.000000	-93.000000
0.120000	58.710000	74.120000	1023.000000	0.000000	140.000000	72.000000	14.000000	-44.000000
0.130000	58.710000	74.030000	1023.000000	0.000000	137.000000	73.000000	0.000000	-9.000000
0.140000	58.560000	74.180000	1023.000000	0.000000	137.000000	73.000000	-15.000000	15.000000
0.150000	58.310000	74.790000	1023.000000	0.000000	137.000000	73.000000	-25.000000	61.000000
0.160000	57.410000	75.470000	1023.000000	0.000000	137.000000	73.000000	-90.000000	68.000000
0.170000	55.870000	76.210000	1023.000000	0.000000	137.000000	73.000000	-154.000000	74.000000
0.180000	53.890000	76.900000	1023.000000	0.000000	137.000000	73.000000	-198.000000	69.000000
0.190000	51.150000	77.410000	1023.000000	0.000000	137.000000	73.000000	-274.000000	51.000000
0.200000	48.280000	77.790000	1023.000000	0.000000	137.000000	73.000000	-287.000000	38.000000
0.210000	45.330000	78.120000	1023.000000	0.000000	137.000000	73.000000	-295.000000	33.000000
0.220000	43.350000	78.400000	1023.000000	0.000000	135.000000	72.000000	-198.000000	28.000000
0.230000	42.520000	78.590000	1023.000000	0.000000	135.000000	71.000000	-83.000000	19.000000
0.240000	42.460000	78.780000	1023.000000	0.000000	133.000000	70.000000	-6.000000	19.000000
0.250000	43.150000	79.000000	1023.000000	0.000000	133.000000	70.000000	69.000000	22.000000
0.260000	44.980000	79.370000	1023.000000	0.000000	135.000000	69.000000	183.000000	37.000000
0.270000	47.570000	79.850000	1023.000000	0.000000	133.000000	69.000000	259.000000	48.000000
0.280000	50.900000	80.170000	1023.000000	0.000000	135.000000	69.000000	333.000000	32.000000
0.290000	55.170000	80.470000	1023.000000	0.000000	135.000000	69.000000	427.000000	30.000000
0.300000	60.070000	80.740000	1023.000000	0.000000	137.000000	70.000000	490.000000	27.000000
0.310000	65.170000	81.020000	1023.000000	0.000000	139.000000	71.000000	510.000000	28.000000
0.320000	70.320000	81.310000	1023.000000	0.000000	142.000000	71.000000	515.000000	29.000000
0.330000	74.780000	81.540000	1023.000000	0.000000	144.000000	72.000000	446.000000	23.000000
0.340000	78.770000	81.690000	1023.000000	0.000000	147.000000	72.000000	399.000000	15.000000
0.350000	81.810000	81.800000	1023.000000	0.000000	148.000000	74.000000	304.000000	11.000000
0.360000	83.930000	81.850000	1023.000000	0.000000	148.000000	74.000000	212.000000	5.000000
0.370000	85.430000	81.900000	1023.000000	0.000000	148.000000	74.000000	150.000000	5.000000
0.380000	86.000000	82.010000	1023.000000	0.000000	148.000000	74.000000	57.000000	11.000000
0.390000	86.000000	82.170000	899.000000	0.000000	148.000000	74.000000	0.000000	16.000000
0.400000	85.530000	82.490000	439.000000	0.000000	145.000000	73.000000	-47.000000	32.000000
0.410000	85.530000	82.490000	0.000000	1.000000	145.000000	73.000000	0.000000	0.000000
0.420000	83.390000	82.640000	0.000000	0.000000	145.000000	73.000000	-214.000000	15.000000
0.430000	81.730000	82.820000	0.000000	0.000000	145.000000	73.000000	-166.000000	18.000000
0.440000	79.660000	82.820000	0.000000	0.000000	145.000000	73.000000	-207.000000	0.000000
0.450000	77.190000	82.690000	0.000000	0.000000	145.000000	73.000000	-247.000000	-13.000000
0.460000	74.450000	82.690000	0.000000	0.000000	145.000000	73.000000	-274.000000	0.000000
0.470000	71.630000	82.600000	0.000000	0.000000	145.000000	73.000000	-282.000000	-9.000000
0.480000	69.010000	82.550000	0.000000	0.000000	145.000000	73.000000	-262.000000	-5.000000
0.490000	66.520000	82.550000	0.000000	0.000000	142.000000	72.000000	-249.000000	0.000000
0.500000	64.510000	82.480000	0.000000	0.000000	140.000000	72.000000	-201.000000	-7.000000
0.510000	62.540000	82.380000	0.000000	0.000000	140.000000	72.000000	-197.000000	-10.000000
0.520000	60.670000	82.260000	0.000000	0.000000	135.000000	72.000000	-187.000000	-12.000000
0.530000	59.150000	82.080000	0.000000	0.000000	133.000000	71.000000	-152.000000	-18.000000
0.540000	57.850000	81.920000	0.000000	0.000000	133.000000	71.000000	-130.000000	-16.000000
0.550000	56.940000	81.780000	0.000000	0.000000	133.000000	71.000000	-91.000000	-14.000000
0.560000	56.440000	81.710000	0.000000	0.000000	133.000000	71.000000	-50.000000	-7.000000
0.570000	56.220000	81.710000	0.000000	0.000000	137.000000	71.000000	-22.000000	0.000000
0.580000	56.220000	81.850000	0.000000	0.000000	137.000000	71.000000	0.000000	14.000000
0.590000	56.130000	81.970000	0.000000	0.000000	137.000000	71.000000	-9.000000	12.000000
0.600000	55.960000	82.070000	0.000000	0.000000	140.000000	72.000000	-17.000000	10.000000
0.610000	55.730000	82.140000	0.000000	0.000000	140.000000	72.000000	-23.000000	7.000000
0.620000	55.730000	82.140000	586.000000	1.000000	142.000000	71.000000	0.000000	0.000000
0.630000	55.730000	82.140000	722.000000	0.000000	142.000000	71.000000	0.000000	0.000000
0.640000	55.730000	82.140000	876.000000	0.000000	142.000000	71.000000	0.000000	0.000000
0.650000	55.730000	82.140000	1012.000000	0.000000	142.000000	71.000000	0.000000	0.000000
0.660000	56.450000	82.190000	1023.000000	0.000000	142.000000	71.000000	72.000000	5.000000
0.670000	57.340000	82.270000	1023.000000	0.000000	139.000000	71.000000	89.000000	8.000000
0.680000	58.410000	82.360000	1023.000000	0.000000	143.000000	70.000000	107.000000	9.000000
0.690000	59.610000	82.510000	1023.000000	0.000000	143.000000	70.000000	120.000000	15.000000
0.700000	60.640000	82.690000	958.000000	0.000000	143.000000	70.000000	103.000000	18.000000
0.710000	61.430000	83.040000	830.000000	0.000000	143.000000	70.000000	79.000000	35.000000
0.720000	62.070000	83.640000	664.000000	0.000000	143.000000	70.000000	64.000000	60.000000
0.730000	62.180000	84.410000	474.000000	0.000000	143.000000	70.000000	11.000000	77.000000
0.740000	61.980000	85.410000	404.000000	0.000000	143.000000	70.000000	-20.000000	100.000000
0.750000	61.570000	86.370000	588.000000	0.000000	143.000000	70.000000	-41.000000	96.000000
0.760000	61.140000	86.940000	750.000000	0.000000	143.000000	70.000000	-43.000000	57.000000
0.770000	60.760000	87.270000	903.000000	0.000000	142.000000	71.000000	-38.000000	33.000000
0.780000	60.590000	87.210000	1023.000000	0.000000	142.000000	71.000000	-17.000000	-6.000000
0.790000	60.540000	86.470000	1023.000000	0.000000	142.000000	71.000000	-5.000000	-74.000000
0.800000	60.670000	85.280000	1023.000000	0.000000	142.000000	71.000000	13.000000	-119.000000
0.810000	60.840000	83.300000	1023.000000	0.000000	140.000000	72.000000	17.000000	-198.000000
0.820000	61.040000	81.270000	1023.000000	0.000000	140.000000	72.000000	20.000000	-203.000000
0.830000	61.420000	79.210000	1023.000000	0.000000	140.000000	72.000000	38.000000	-206.000000
0.840000	61.890000	77.480000	1023.000000	0.000000	140.000000	72.000000	47.000000	-173.000000
0.850000	62.410000	76.180000	1023.000000	0.000000	137.000000	73.000000	52.000000	-130.000000
0.860000	62.900000	75.180000	1023.000000	0.000000	137.000000	73.000000	49.000000	-100.000000
0.870000	63.240000	74.430000	1023.000000	0.000000	137.000000	73.000000	34.000000	-75.000000
0.880000	63.470000	73.980000	1023.000000	0.000000	137.000000	73.000000	23.000000	-45.000000
0.890000	63.520000	73.720000	915.000000	0.000000	137.000000	73.000000	5.000000	-26.000000
0.900000	63.440000	73.640000	611.000000	0.000000	135.000000	72.000000	-8.000000	-8.000000
0.910000	63.440000	73.640000	0.000000	1.000000	135.000000	72.000000	0.000000	0.000000
0.920000	62.940000	74.030000	0.000000	0.000000	135.000000	72.000000	-50.000000	39.000000
0.930000	62.490000	74.400000	0.000000	0.000000	137.000000	71.000000	-45.000000	37.000000
0.940000	61.950000	74.830000	0.000000	0.000000	137.000000	71.000000	-54.000000	43.000000
0.950000	61.260000	75.290000	0.000000	0.000000	137.000000	71.000000	-69.000000	46.000000
0.960000	60.570000	75.810000	0.000000	0.000000	139.000000	71.000000	-69.000000	52.000000
0.970000	59.880000	76.320000	0.000000	0.000000	139.000000	71.000000	-69.000000	51.000000
0.980000	59.240000	76.830000	0.000000	0.000000	141.000000	70.000000	-64.000000	51.000000
0.990000	58.630000	77.300000	0.000000	0.000000	139.000000	69.000000	-61.000000	47.000000
1.000000	58.090000	77.770000	0.000000	0.000000	141.000000	68.000000	-54.000000	47.000000
1.010000	57.710000	78.320000	0.000000	0.000000	141.000000	68.000000	-38.000000	55.000000
1.020000	57.430000	78.930000	0.000000	0.000000	142.000000	68.000000	-28.000000	61.000000
1.030000	57.430000	78.930000	452.000000	1.000000	142.000000	68.000000	0.000000	0.000000
1.040000	57.120000	80.160000	691.000000	0.000000	143.000000	69.000000	-31.000000	123.000000
1.050000	57.030000	80.370000	842.000000	0.000000	143.000000	69.000000	-9.000000	21.000000
1.060000	57.030000	80.370000	968.000000	0.000000	143.000000	69.000000	0.000000	0.000000
1.070000	57.100000	80.190000	1023.000000	0.000000	143.000000	70.000000	7.000000	-18.000000
1.080000	57.490000	79.710000	1023.000000	0.000000	142.000000	71.000000	39.000000	-48.000000
1.090000	58.080000	79.020000	1023.000000	0.000000	144.000000	72.000000	59.000000	-69.000000
1.100000	58.770000	78.190000	1023.000000	0.000000	144.000000	72.000000	69.000000	-83.000000
1.110000	59.400000	77.430000	1023.000000	0.000000	142.000000	71.000000	63.000000	-76.000000
1.120000	59.880000	76.940000	1023.000000	0.000000	142.000000	71.000000	48.000000	-49.000000
1.130000	60.270000	76.610000	1023.000000	0.000000	140.000000	72.000000	39.000000	-33.000000
1.140000	60.480000	76.510000	1023.000000	0.000000	140.000000	72.000000	21.000000	-10.000000
1.150000	60.610000	76.640000	1023.000000	0.000000	140.000000	72.000000	13.000000	13.000000
1.160000	60.690000	76.930000	1023.000000	0.000000	140.000000	72.000000	8.000000	29.000000
1.170000	60.900000	77.530000	1023.000000	0.000000	140.000000	72.000000	21.000000	60.000000
1.180000	61.120000	78.150000	1023.000000	0.000000	140.000000	72.000000	22.000000	62.000000
1.190000	61.290000	78.790000	1023.000000	0.000000	140.000000	72.000000	17.000000	64.000000
1.200000	61.420000	79.400000	1023.000000	0.000000	140.000000	72.000000	13.000000	61.000000
1.210000	61.530000	79.990000	1023.000000	0.000000	140.000000	72.000000	11.000000	59.000000
1.220000	61.660000	80.370000	1023.000000	0.000000	140.000000	72.000000	13.000000	38.000000
1.230000	61.830000	80.620000	905.000000	0.000000	140.000000	72.000000	17.000000	25.000000
1.240000	62.040000	80.950000	344.000000	0.000000	140.000000	72.000000	21.000000	33.000000
1.250000	62.040000	80.950000	0.000000	1.000000	140.000000	72.000000	0.000000	0.000000
1.260000	62.220000	81.080000	0.000000	0.000000	140.000000	72.000000	18.000000	13.000000
1.270000	62.220000	81.180000	0.000000	0.000000	137.000000	71.000000	0.000000	10.000000
1.280000	62.220000	81.320000	0.000000	0.000000	137.000000	71.000000	0.000000	14.000000
1.290000	62.220000	81.490000	0.000000	0.000000	137.000000	71.000000	0.000000	17.000000
1.300000	62.300000	81.700000	0.000000	0.000000	137.000000	71.000000	8.000000	21.000000
1.310000	62.390000	81.970000	0.000000	0.000000	135.000000	71.000000	9.000000	27.000000
1.320000	62.540000	82.280000	0.000000	0.000000	135.000000	71.000000	15.000000	31.000000
1.330000	62.730000	82.530000	0.000000	0.000000	135.000000	71.000000	19.000000	25.000000
1.340000	62.730000	82.530000	556.000000	1.000000	135.000000	71.000000	0.000000	0.000000
1.350000	63.070000	82.780000	743.000000	0.000000	135.000000	71.000000	34.000000	25.000000
1.360000	63.070000	82.780000	970.000000	0.000000	135.000000	71.000000	0.000000	0.000000
1.370000	63.140000	82.510000	1023.000000	0.000000	135.000000	71.000000	7.000000	-27.000000
1.380000	63.200000	82.170000	1023.000000	0.000000	137.000000	70.000000	6.000000	-34.000000
1.390000	63.250000	81.730000	1017.000000	0.000000	137.000000	70.000000	5.000000	-44.000000
1.400000	63.340000	81.290000	923.000000	0.000000	137.000000	70.000000	9.000000	-44.000000
1.410000	63.440000	80.890000	540.000000	0.000000	137.000000	70.000000	10.000000	-40.000000
1.420000	63.440000	80.890000	0.000000	1.000000	137.000000	70.000000	0.000000	0.000000
1.430000	63.600000	80.880000	0.000000	0.000000	137.000000	70.000000	16.000000	-1.000000
1.440000	63.530000	81.290000	0.000000	0.000000	137.000000	70.000000	-7.000000	41.000000
1.450000	63.390000	81.950000	0.000000	0.000000	137.000000	70.000000	-14.000000	66.000000
1.460000	63.390000	82.790000	0.000000	0.000000	137.000000	70.000000	0.000000	84.000000
1.470000	63.390000	83.780000	0.000000	0.000000	137.000000	70.000000	0.000000	99.000000
1.480000	63.440000	84.740000	0.000000	0.000000	137.000000	70.000000	5.000000	96.000000
1.490000	63.440000	84.740000	439.000000	1.000000	137.000000	70.000000	0.000000	0.000000
1.500000	63.450000	85.980000	790.000000	0.000000	137.000000	70.000000	1.000000	124.000000
1.510000	63.310000	86.090000	964.000000	0.000000	137.000000	70.000000	-14.000000	11.000000
1.520000	63.310000	86.090000	1023.000000	0.000000	137.000000	70.000000	0.000000	0.000000
1.530000	63.310000	85.980000	1023.000000	0.000000	139.000000	71.000000	0.000000	-11.000000
1.540000	63.380000	85.660000	1023.000000	0.000000	139.000000	71.000000	7.000000	-32.000000
1.550000	63.500000	85.200000	974.000000	0.000000	139.000000	71.000000	12.000000	-46.000000
1.560000	63.680000	84.580000	746.000000	0.000000	139.000000	71.000000	18.000000	-62.000000
1.570000	63.880000	84.070000	51.000000	0.000000	139.000000	71.000000	20.000000	-51.000000
1.580000	63.880000	84.070000	0.000000	1.000000	139.000000	71.000000	0.000000	0.000000
1.590000	64.290000	83.630000	0.000000	0.000000	139.000000	71.000000	41.000000	-44.000000
1.600000	64.360000	83.920000	0.000000	0.000000	139.000000	71.000000	7.000000	29.000000
1.610000	64.480000	84.400000	0.000000	0.000000	139.000000	71.000000	12.000000	48.000000
1.620000	64.580000	85.080000	0.000000	0.000000	139.000000	71.000000	10.000000	68.000000
1.630000	64.580000	85.080000	569.000000	1.000000	139.000000	71.000000	0.000000	0.000000
1.640000	64.710000	85.770000	750.000000	0.000000	137.000000	70.000000	13.000000	69.000000
1.650000	64.710000	85.770000	935.000000	0.000000	137.000000	70.000000	0.000000	0.000000
1.660000	64.710000	85.320000	1023.000000	0.000000	137.000000	70.000000	0.000000	-45.000000
1.670000	64.710000	84.650000	1023.000000	0.000000	137.000000	70.000000	0.000000	-67.000000
1.680000	64.760000	83.810000	1023.000000	0.000000	139.000000	71.000000	5.000000	-84.000000
1.690000	64.890000	83.060000	1023.000000	0.000000	139.000000	71.000000	13.000000	-75.000000
1.700000	65.050000	82.360000	1023.000000	0.000000	139.000000	71.000000	16.000000	-70.000000
1.710000	65.230000	81.750000	988.000000	0.000000	139.000000	71.000000	18.000000	-61.000000
1.720000	65.430000	81.320000	614.000000	0.000000	139.000000	71.000000	20.000000	-43.000000
1.730000	65.430000	81.320000	0.000000	1.000000	139.000000	71.000000	0.000000	0.000000
1.740000	65.790000	80.930000	0.000000	0.000000	139.000000	71.000000	36.000000	-39.000000
1.750000	65.850000	80.930000	0.000000	0.000000	139.000000	71.000000	6.000000	0.000000
1.760000	66.110000	81.070000	0.000000	0.000000	139.000000	71.000000	26.000000	14.000000
1.770000	66.420000	81.400000	0.000000	0.000000	139.000000	71.000000	31.000000	33.000000
1.780000	66.780000	81.720000	0.000000	0.000000	139.000000	71.000000	36.000000	32.000000
1.790000	66.780000	81.720000	297.000000	1.000000	142.000000	71.000000	0.000000	0.000000
1.800000	67.080000	82.540000	647.000000	0.000000	142.000000	71.000000	30.000000	82.000000
1.810000	66.910000	82.890000	823.000000	0.000000	142.000000	71.000000	-17.000000	35.000000
1.820000	66.630000	83.200000	959.000000	0.000000	142.000000	71.000000	-28.000000	31.000000
1.830000	66.280000	83.440000	1023.000000	0.000000	142.000000	71.000000	-35.000000	24.000000
1.840000	65.860000	83.440000	1023.000000	0.000000	142.000000	71.000000	-42.000000	0.000000
1.850000	65.550000	83.390000	1023.000000	0.000000	142.000000	71.000000	-31.000000	-5.000000
1.860000	65.490000	83.250000	1023.000000	0.000000	142.000000	71.000000	-6.000000	-14.000000
1.870000	65.560000	82.960000	1023.000000	0.000000	142.000000	71.000000	7.000000	-29.000000
1.880000	65.810000	82.570000	1023.000000	0.000000	143.000000	70.000000	25.000000	-39.000000
1.890000	66.090000	82.280000	1023.000000	0.000000	139.000000	71.000000	28.000000	-29.000000
1.900000	66.440000	82.140000	1023.000000	0.000000	139.000000	71.000000	35.000000	-14.000000
1.910000	66.790000	82.090000	1023.000000	0.000000	139.000000	71.000000	35.000000	-5.000000
1.920000	67.110000	82.290000	1023.000000	0.000000	139.000000	71.000000	32.000000	20.000000
1.930000	67.370000	82.520000	1023.000000	0.000000	139.000000	71.000000	26.000000	23.000000
1.940000	67.590000	82.780000	1023.000000	0.000000	142.000000	71.000000	22.000000	26.000000
1.950000	67.680000	82.910000	1023.000000	0.000000	142.000000	71.000000	9.000000	13.000000
1.960000	67.740000	82.910000	1023.000000	0.000000	142.000000	71.000000	6.000000	0.000000
1.970000	67.740000	82.810000	1023.000000	0.000000	144.000000	72.000000	0.000000	-10.000000
1.980000	67.920000	82.640000	1023.000000	0.000000	144.000000	72.000000	18.000000	-17.000000
1.990000	68.060000	82.460000	1023.000000	0.000000	146.000000	71.000000	14.000000	-18.000000
2.000000	68.230000	82.280000	777.000000	0.000000	146.000000	71.000000	17.000000	-18.000000
2.010000	68.350000	82.170000	53.000000	0.000000	146.000000	71.000000	12.000000	-11.000000
2.020000	68.350000	82.170000	0.000000	1.000000	146.000000	71.000000	0.000000	0.000000
2.030000	68.360000	82.220000	0.000000	0.000000	146.000000	71.000000	1.000000	5.000000
2.040000	68.290000	82.360000	0.000000	0.000000	146.000000	71.000000	-7.000000	14.000000
2.050000	68.430000	82.540000	0.000000	0.000000	146.000000	71.000000	14.000000	18.000000
2.060000	68.690000	82.650000	0.000000	0.000000	146.000000	71.000000	26.000000	11.000000
2.070000	68.690000	82.650000	369.000000	1.000000	146.000000	71.000000	0.000000	0.000000
2.080000	68.690000	82.650000	690.000000	0.000000	146.000000	71.000000	0.000000	0.000000
2.090000	68.690000	82.650000	827.000000	0.000000	146.000000	71.000000	0.000000	0.000000
2.100000	68.990000	82.450000	949.000000	0.000000	146.000000	71.000000	30.000000	-20.000000
2.110000	69.040000	82.310000	1023.000000	0.000000	146.000000	71.000000	5.000000	-14.000000
2.120000	69.040000	82.170000	1023.000000	0.000000	146.000000	71.000000	0.000000	-14.000000
2.130000	69.120000	82.170000	1023.000000	0.000000	148.000000	71.000000	8.000000	0.000000
2.140000	69.120000	82.170000	1023.000000	0.000000	148.000000	71.000000	0.000000	0.000000
2.150000	69.120000	82.230000	1023.000000	0.000000	148.000000	71.000000	0.000000	6.000000
2.160000	69.060000	82.510000	1023.000000	0.000000	148.000000	71.000000	-6.000000	28.000000
2.170000	69.060000	82.910000	1023.000000	0.000000	148.000000	71.000000	0.000000	40.000000
2.180000	69.110000	83.240000	1023.000000	0.000000	148.000000	71.000000	5.000000	33.000000
2.190000	69.240000	83.570000	1023.000000	0.000000	148.000000	71.000000	13.000000	33.000000
2.200000	69.470000	83.830000	1023.000000	0.000000	148.000000	71.000000	23.000000	26.000000
