t	x	y	pressure	penup	azimuth	inclination	v_x	v_y
0.000000	56.000000	19.210000	143.000000	1.000000	310.000000	53.000000	0.000000	0.000000
0.010000	56.380000	19.760000	182.000000	0.000000	309.000000	53.000000	38.000000	55.000000
0.020000	56.380000	19.640000	173.000000	0.000000	309.000000	53.000000	0.000000	-12.000000
0.030000	56.180000	19.350000	203.000000	0.000000	309.000000	53.000000	-20.000000	-29.000000
0.040000	55.540000	18.510000	239.000000	0.000000	309.000000	53.000000	-64.000000	-84.000000
0.050000	54.360000	17.130000	270.000000	0.000000	309.000000	53.000000	-118.000000	-138.000000
0.060000	52.820000	15.390000	307.000000	0.000000	310.000000	53.000000	-154.000000	-174.000000
0.070000	51.410000	13.650000	334.000000	0.000000	311.000000	52.000000	-141.000000	-174.000000
0.080000	50.190000	12.150000	415.000000	0.000000	314.000000	52.000000	-122.000000	-150.000000
0.090000	49.090000	10.820000	430.000000	0.000000	316.000000	51.000000	-110.000000	-133.000000
0.100000	48.170000	9.550000	448.000000	0.000000	317.000000	51.000000	-92.000000	-127.000000
0.110000	47.570000	8.640000	452.000000	0.000000	320.000000	51.000000	-60.000000	-91.000000
0.120000	47.170000	7.970000	466.000000	0.000000	322.000000	50.000000	-40.000000	-67.000000
0.130000	46.900000	7.590000	469.000000	0.000000	323.000000	51.000000	-27.000000	-38.000000
0.140000	46.700000	7.270000	464.000000	0.000000	325.000000	51.000000	-20.000000	-32.000000
0.150000	46.550000	7.050000	472.000000	0.000000	326.000000	52.000000	-15.000000	-22.000000
0.160000	46.470000	6.940000	472.000000	0.000000	326.000000	52.000000	-8.000000	-11.000000
0.170000	46.420000	6.940000	472.000000	0.000000	327.000000	52.000000	-5.000000	0.000000
0.180000	46.420000	6.940000	473.000000	0.000000	327.000000	52.000000	0.000000	0.000000
0.190000	46.360000	6.940000	472.000000	0.000000	328.000000	53.000000	-6.000000	0.000000
0.200000	46.360000	6.940000	475.000000	0.000000	329.000000	52.000000	0.000000	0.000000
0.210000	46.360000	6.940000	481.000000	0.000000	330.000000	52.000000	0.000000	0.000000
0.220000	46.360000	6.940000	488.000000	0.000000	330.000000	52.000000	0.000000	0.000000
0.230000	46.360000	6.940000	495.000000	0.000000	331.000000	51.000000	0.000000	0.000000
0.240000	46.360000	6.940000	491.000000	0.000000	331.000000	51.000000	0.000000	0.000000
0.250000	46.360000	6.890000	494.000000	0.000000	331.000000	51.000000	0.000000	-5.000000
0.260000	46.360000	6.890000	492.000000	0.000000	331.000000	51.000000	0.000000	0.000000
0.270000	46.360000	6.890000	496.000000	0.000000	331.000000	51.000000	0.000000	0.000000
0.280000	46.360000	6.940000	499.000000	0.000000	331.000000	51.000000	0.000000	5.000000
0.290000	46.360000	6.940000	502.000000	0.000000	331.000000	51.000000	0.000000	0.000000
0.300000	46.360000	6.880000	502.000000	0.000000	331.000000	51.000000	0.000000	-6.000000
0.310000	46.360000	6.930000	507.000000	0.000000	331.000000	51.000000	0.000000	5.000000
0.320000	46.360000	6.930000	514.000000	0.000000	331.000000	51.000000	0.000000	0.000000
0.330000	46.360000	6.930000	522.000000	0.000000	331.000000	51.000000	0.000000	0.000000
0.340000	46.360000	6.930000	516.000000	0.000000	331.000000	51.000000	0.000000	0.000000
0.350000	46.360000	6.930000	526.000000	0.000000	331.000000	51.000000	0.000000	0.000000
0.360000	46.360000	6.930000	527.000000	0.000000	331.000000	51.000000	0.000000	0.000000
0.370000	46.360000	6.930000	529.000000	0.000000	331.000000	51.000000	0.000000	0.000000
0.380000	46.360000	6.930000	530.000000	0.000000	331.000000	51.000000	0.000000	0.000000
0.390000	46.360000	6.930000	530.000000	0.000000	331.000000	51.000000	0.000000	0.000000
0.400000	46.360000	6.930000	532.000000	0.000000	331.000000	51.000000	0.000000	0.000000
0.410000	46.360000	6.930000	532.000000	0.000000	331.000000	51.000000	0.000000	0.000000
0.420000	46.360000	6.930000	532.000000	0.000000	331.000000	51.000000	0.000000	0.000000
0.430000	46.410000	6.930000	532.000000	0.000000	331.000000	51.000000	5.000000	0.000000
0.440000	46.410000	6.930000	530.000000	0.000000	331.000000	51.000000	0.000000	0.000000
0.450000	46.410000	6.930000	535.000000	0.000000	331.000000	51.000000	0.000000	0.000000
0.460000	46.410000	6.930000	535.000000	0.000000	331.000000	51.000000	0.000000	0.000000
0.470000	46.410000	6.930000	533.000000	0.000000	331.000000	51.000000	0.000000	0.000000
0.480000	46.410000	6.980000	535.000000	0.000000	331.000000	51.000000	0.000000	5.000000
0.490000	46.410000	6.980000	535.000000	0.000000	331.000000	51.000000	0.000000	0.000000
0.500000	46.410000	6.980000	537.000000	0.000000	331.000000	51.000000	0.000000	0.000000
0.510000	46.410000	6.980000	537.000000	0.000000	331.000000	51.000000	0.000000	0.000000
0.520000	46.410000	6.980000	537.000000	0.000000	331.000000	51.000000	0.000000	0.000000
0.530000	46.410000	6.980000	537.000000	0.000000	331.000000	51.000000	0.000000	0.000000
0.540000	46.410000	6.980000	537.000000	0.000000	331.000000	51.000000	0.000000	0.000000
0.550000	46.410000	6.980000	538.000000	0.000000	331.000000	51.000000	0.000000	0.000000
0.560000	46.410000	6.980000	540.000000	0.000000	331.000000	51.000000	0.000000	0.000000
0.570000	46.410000	6.980000	537.000000	0.000000	331.000000	51.000000	0.000000	0.000000
0.580000	46.410000	6.980000	538.000000	0.000000	331.000000	51.000000	0.000000	0.000000
0.590000	46.410000	6.980000	537.000000	0.000000	331.000000	51.000000	0.000000	0.000000
0.600000	46.410000	6.980000	537.000000	0.000000	331.000000	51.000000	0.000000	0.000000
0.610000	46.410000	6.980000	538.000000	0.000000	331.000000	51.000000	0.000000	0.000000
0.620000	46.410000	6.980000	537.000000	0.000000	331.000000	51.000000	0.000000	0.000000
0.630000	46.410000	6.980000	538.000000	0.000000	331.000000	51.000000	0.000000	0.000000
0.640000	46.410000	6.980000	537.000000	0.000000	331.000000	51.000000	0.000000	0.000000
0.650000	46.410000	6.980000	537.000000	0.000000	331.000000	51.000000	0.000000	0.000000
0.660000	46.410000	6.980000	538.000000	0.000000	331.000000	51.000000	0.000000	0.000000
0.670000	46.410000	6.980000	537.000000	0.000000	331.000000	51.000000	0.000000	0.000000
0.680000	46.410000	6.980000	538.000000	0.000000	331.000000	51.000000	0.000000	0.000000
0.690000	46.410000	6.980000	537.000000	0.000000	331.000000	51.000000	0.000000	0.000000
0.700000	46.410000	6.980000	538.000000	0.000000	331.000000	51.000000	0.000000	0.000000
0.710000	46.410000	6.980000	537.000000	0.000000	331.000000	51.000000	0.000000	0.000000
0.720000	46.410000	6.980000	533.000000	0.000000	331.000000	51.000000	0.000000	0.000000
0.730000	46.410000	6.980000	535.000000	0.000000	331.000000	51.000000	0.000000	0.000000
0.740000	46.410000	6.980000	530.000000	0.000000	331.000000	51.000000	0.000000	0.000000
0.750000	46.410000	6.980000	530.000000	0.000000	331.000000	51.000000	0.000000	0.000000
0.760000	46.410000	6.980000	532.000000	0.000000	330.000000	52.000000	0.000000	0.000000
0.770000	46.410000	6.980000	530.000000	0.000000	330.000000	52.000000	0.000000	0.000000
0.780000	46.410000	6.980000	533.000000	0.000000	330.000000	52.000000	0.000000	0.000000
0.790000	46.410000	6.980000	532.000000	0.000000	330.000000	52.000000	0.000000	0.000000
0.800000	46.410000	6.980000	530.000000	0.000000	331.000000	51.000000	0.000000	0.000000
0.810000	46.410000	6.980000	527.000000	0.000000	331.000000	51.000000	0.000000	0.000000
0.820000	46.410000	6.980000	526.000000	0.000000	331.000000	51.000000	0.000000	0.000000
0.830000	46.410000	6.980000	526.000000	0.000000	331.000000	51.000000	0.000000	0.000000
0.840000	46.410000	6.980000	526.000000	0.000000	331.000000	51.000000	0.000000	0.000000
0.850000	46.410000	6.980000	526.000000	0.000000	331.000000	51.000000	0.000000	0.000000
0.860000	46.410000	6.980000	526.000000	0.000000	331.000000	51.000000	0.000000	0.000000
0.870000	46.410000	6.980000	524.000000	0.000000	331.000000	51.000000	0.000000	0.000000
0.880000	46.410000	6.980000	521.000000	0.000000	331.000000	51.000000	0.000000	0.000000
0.890000	46.410000	6.980000	519.000000	0.000000	331.000000	51.000000	0.000000	0.000000
0.900000	46.410000	6.980000	519.000000	0.000000	331.000000	51.000000	0.000000	0.000000
0.910000	46.410000	6.980000	518.000000	0.000000	331.000000	51.000000	0.000000	0.000000
0.920000	46.410000	6.980000	519.000000	0.000000	331.000000	51.000000	0.000000	0.000000
0.930000	46.410000	6.980000	519.000000	0.000000	331.000000	51.000000	0.000000	0.000000
0.940000	46.410000	6.980000	518.000000	0.000000	331.000000	51.000000	0.000000	0.000000
0.950000	46.410000	6.980000	515.000000	0.000000	331.000000	51.000000	0.000000	0.000000
0.960000	46.410000	6.980000	516.000000	0.000000	331.000000	51.000000	0.000000	0.000000
0.970000	46.410000	6.980000	512.000000	0.000000	331.000000	51.000000	0.000000	0.000000
0.980000	46.410000	6.980000	515.000000	0.000000	331.000000	51.000000	0.000000	0.000000
0.990000	46.410000	6.980000	516.000000	0.000000	331.000000	51.000000	0.000000	0.000000
1.000000	46.410000	6.980000	515.000000	0.000000	331.000000	51.000000	0.000000	0.000000
1.010000	46.410000	6.980000	518.000000	0.000000	331.000000	51.000000	0.000000	0.000000
1.020000	46.410000	6.980000	516.000000	0.000000	331.000000	51.000000	0.000000	0.000000
1.030000	46.410000	6.980000	516.000000	0.000000	331.000000	51.000000	0.000000	0.000000
1.040000	46.410000	6.980000	512.000000	0.000000	331.000000	51.000000	0.000000	0.000000
1.050000	46.410000	6.920000	512.000000	0.000000	331.000000	51.000000	0.000000	-6.000000
1.060000	46.410000	6.920000	520.000000	0.000000	331.000000	51.000000	0.000000	0.000000
1.070000	46.410000	6.920000	520.000000	0.000000	331.000000	51.000000	0.000000	0.000000
1.080000	46.410000	6.920000	520.000000	0.000000	331.000000	51.000000	0.000000	0.000000
1.090000	46.410000	6.920000	522.000000	0.000000	331.000000	51.000000	0.000000	0.000000
1.100000	46.410000	6.920000	520.000000	0.000000	331.000000	51.000000	0.000000	0.000000
1.110000	46.410000	6.920000	522.000000	0.000000	331.000000	51.000000	0.000000	0.000000
1.120000	46.410000	6.920000	519.000000	0.000000	331.000000	51.000000	0.000000	0.000000
1.130000	46.410000	6.920000	517.000000	0.000000	331.000000	51.000000	0.000000	0.000000
1.140000	46.410000	6.920000	515.000000	0.000000	331.000000	51.000000	0.000000	0.000000
1.150000	46.410000	6.920000	514.000000	0.000000	331.000000	51.000000	0.000000	0.000000
1.160000	46.410000	6.920000	512.000000	0.000000	331.000000	51.000000	0.000000	0.000000
1.170000	46.410000	6.920000	512.000000	0.000000	331.000000	51.000000	0.000000	0.000000
1.180000	46.410000	6.920000	510.000000	0.000000	331.000000	51.000000	0.000000	0.000000
1.190000	46.360000	6.920000	512.000000	0.000000	331.000000	51.000000	-5.000000	0.000000
1.200000	46.360000	6.920000	510.000000	0.000000	331.000000	51.000000	0.000000	0.000000
1.210000	46.360000	6.920000	509.000000	0.000000	331.000000	51.000000	0.000000	0.000000
1.220000	46.360000	6.920000	509.000000	0.000000	331.000000	51.000000	0.000000	0.000000
1.230000	46.360000	6.920000	507.000000	0.000000	331.000000	51.000000	0.000000	0.000000
1.240000	46.360000	6.920000	504.000000	0.000000	331.000000	51.000000	0.000000	0.000000
1.250000	46.360000	6.920000	504.000000	0.000000	331.000000	51.000000	0.000000	0.000000
1.260000	46.360000	6.920000	502.000000	0.000000	330.000000	52.000000	0.000000	0.000000
1.270000	46.360000	6.920000	502.000000	0.000000	330.000000	52.000000	0.000000	0.000000
1.280000	46.360000	6.920000	499.000000	0.000000	330.000000	52.000000	0.000000	0.000000
1.290000	46.360000	6.920000	501.000000	0.000000	330.000000	52.000000	0.000000	0.000000
1.300000	46.360000	6.920000	499.000000	0.000000	330.000000	52.000000	0.000000	0.000000
1.310000	46.360000	6.920000	497.000000	0.000000	330.000000	52.000000	0.000000	0.000000
1.320000	46.360000	6.920000	497.000000	0.000000	330.000000	52.000000	0.000000	0.000000
1.330000	46.360000	6.920000	499.000000	0.000000	330.000000	52.000000	0.000000	0.000000
1.340000	46.360000	6.920000	497.000000	0.000000	330.000000	52.000000	0.000000	0.000000
1.350000	46.360000	6.920000	494.000000	0.000000	330.000000	52.000000	0.000000	0.000000
1.360000	46.360000	6.920000	496.000000	0.000000	330.000000	52.000000	0.000000	0.000000
1.370000	46.360000	6.920000	496.000000	0.000000	330.000000	52.000000	0.000000	0.000000
1.380000	46.360000	6.920000	494.000000	0.000000	330.000000	52.000000	0.000000	0.000000
1.390000	46.360000	6.920000	496.000000	0.000000	330.000000	52.000000	0.000000	0.000000
1.400000	46.360000	6.920000	501.000000	0.000000	330.000000	52.000000	0.000000	0.000000
1.410000	46.360000	6.920000	499.000000	0.000000	330.000000	52.000000	0.000000	0.000000
1.420000	46.360000	6.920000	499.000000	0.000000	330.000000	52.000000	0.000000	0.000000
1.430000	46.360000	6.920000	499.000000	0.000000	330.000000	52.000000	0.000000	0.000000
1.440000	46.360000	6.920000	499.000000	0.000000	330.000000	52.000000	0.000000	0.000000
1.450000	46.360000	6.920000	499.000000	0.000000	330.000000	52.000000	0.000000	0.000000
1.460000	46.360000	6.920000	502.000000	0.000000	330.000000	52.000000	0.000000	0.000000
1.470000	46.360000	6.920000	502.000000	0.000000	330.000000	52.000000	0.000000	0.000000
1.480000	46.360000	6.920000	507.000000	0.000000	330.000000	52.000000	0.000000	0.000000
1.490000	46.360000	6.920000	510.000000	0.000000	330.000000	52.000000	0.000000	0.000000
1.500000	46.360000	6.920000	514.000000	0.000000	330.000000	52.000000	0.000000	0.000000
1.510000	46.360000	6.920000	514.000000	0.000000	330.000000	52.000000	0.000000	0.000000
1.520000	46.360000	6.920000	515.000000	0.000000	330.000000	52.000000	0.000000	0.000000
1.530000	46.360000	6.920000	514.000000	0.000000	330.000000	52.000000	0.000000	0.000000
1.540000	46.360000	6.920000	517.000000	0.000000	330.000000	52.000000	0.000000	0.000000
1.550000	46.360000	6.920000	520.000000	0.000000	330.000000	52.000000	0.000000	0.000000
1.560000	46.360000	6.920000	512.000000	0.000000	330.000000	52.000000	0.000000	0.000000
1.570000	46.360000	6.920000	512.000000	0.000000	330.000000	52.000000	0.000000	0.000000
1.580000	46.360000	6.920000	516.000000	0.000000	331.000000	51.000000	0.000000	0.000000
1.590000	46.360000	6.920000	516.000000	0.000000	330.000000	52.000000	0.000000	0.000000
1.600000	46.360000	6.920000	516.000000	0.000000	330.000000	52.000000	0.000000	0.000000
1.610000	46.360000	6.920000	516.000000	0.000000	330.000000	52.000000	0.000000	0.000000
1.620000	46.360000	6.920000	519.000000	0.000000	330.000000	52.000000	0.000000	0.000000
1.630000	46.360000	6.920000	524.000000	0.000000	330.000000	52.000000	0.000000	0.000000
1.640000	46.360000	6.920000	527.000000	0.000000	330.000000	52.000000	0.000000	0.000000
1.650000	46.360000	6.920000	530.000000	0.000000	330.000000	52.000000	0.000000	0.000000
1.660000	46.360000	6.920000	533.000000	0.000000	330.000000	52.000000	0.000000	0.000000
1.670000	46.360000	6.920000	535.000000	0.000000	330.000000	52.000000	0.000000	0.000000
1.680000	46.360000	6.920000	533.000000	0.000000	330.000000	52.000000	0.000000	0.000000
1.690000	46.360000	6.920000	533.000000	0.000000	330.000000	52.000000	0.000000	0.000000
1.700000	46.360000	6.920000	532.000000	0.000000	330.000000	52.000000	0.000000	0.000000
1.710000	46.360000	6.920000	526.000000	0.000000	330.000000	52.000000	0.000000	0.000000
1.720000	46.360000	6.920000	526.000000	0.000000	330.000000	52.000000	0.000000	0.000000
1.730000	46.360000	7.020000	530.000000	0.000000	330.000000	52.000000	0.000000	10.000000
1.740000	46.360000	7.130000	535.000000	0.000000	330.000000	52.000000	0.000000	11.000000
1.750000	46.440000	7.270000	544.000000	0.000000	329.000000	53.000000	8.000000	14.000000
1.760000	46.500000	7.680000	540.000000	0.000000	329.000000	53.000000	6.000000	41.000000
1.770000	46.500000	8.270000	548.000000	0.000000	329.000000	53.000000	0.000000	59.000000
1.780000	46.550000	9.300000	550.000000	0.000000	329.000000	53.000000	5.000000	103.000000
1.790000	46.440000	10.540000	551.000000	0.000000	328.000000	53.000000	-11.000000	124.000000
1.800000	46.260000	11.910000	554.000000	0.000000	328.000000	53.000000	-18.000000	137.000000
1.810000	45.980000	12.840000	548.000000	0.000000	327.000000	52.000000	-28.000000	93.000000
1.820000	45.730000	13.610000	546.000000	0.000000	326.000000	52.000000	-25.000000	77.000000
1.830000	45.510000	14.280000	545.000000	0.000000	325.000000	51.000000	-22.000000	67.000000
1.840000	45.330000	14.730000	546.000000	0.000000	324.000000	50.000000	-18.000000	45.000000
1.850000	45.200000	15.010000	550.000000	0.000000	323.000000	50.000000	-13.000000	28.000000
1.860000	45.100000	15.190000	562.000000	0.000000	324.000000	49.000000	-10.000000	18.000000
1.870000	45.020000	15.290000	564.000000	0.000000	323.000000	50.000000	-8.000000	10.000000
1.880000	44.960000	15.360000	568.000000	0.000000	322.000000	49.000000	-6.000000	7.000000
1.890000	44.960000	15.410000	575.000000	0.000000	322.000000	49.000000	0.000000	5.000000
1.900000	44.890000	15.410000	586.000000	0.000000	322.000000	49.000000	-7.000000	0.000000
1.910000	44.840000	15.410000	620.000000	0.000000	321.000000	50.000000	-5.000000	0.000000
1.920000	44.770000	15.410000	642.000000	0.000000	321.000000	50.000000	-7.000000	0.000000
1.930000	44.770000	15.330000	668.000000	0.000000	321.000000	50.000000	0.000000	-8.000000
1.940000	44.770000	15.150000	681.000000	0.000000	321.000000	50.000000	0.000000	-18.000000
1.950000	44.770000	14.920000	714.000000	0.000000	321.000000	50.000000	0.000000	-23.000000
1.960000	44.910000	14.510000	736.000000	0.000000	321.000000	50.000000	14.000000	-41.000000
1.970000	45.340000	14.050000	773.000000	0.000000	322.000000	49.000000	43.000000	-46.000000
1.980000	45.950000	13.570000	791.000000	0.000000	322.000000	49.000000	61.000000	-48.000000
1.990000	46.690000	13.110000	780.000000	0.000000	322.000000	49.000000	74.000000	-46.000000
2.000000	47.830000	12.680000	782.000000	0.000000	323.000000	49.000000	114.000000	-43.000000
2.010000	49.230000	12.300000	788.000000	0.000000	323.000000	49.000000	140.000000	-38.000000
2.020000	50.810000	12.060000	788.000000	0.000000	324.000000	48.000000	158.000000	-24.000000
2.030000	52.380000	11.920000	773.000000	0.000000	324.000000	48.000000	157.000000	-14.000000
2.040000	53.920000	11.980000	774.000000	0.000000	323.000000	48.000000	154.000000	6.000000
2.050000	55.090000	12.100000	773.000000	0.000000	324.000000	47.000000	117.000000	12.000000
2.060000	56.030000	12.330000	768.000000	0.000000	324.000000	47.000000	94.000000	23.000000
2.070000	56.940000	12.670000	754.000000	0.000000	324.000000	47.000000	91.000000	34.000000
2.080000	58.180000	13.290000	742.000000	0.000000	323.000000	46.000000	124.000000	62.000000
2.090000	59.630000	14.100000	700.000000	0.000000	323.000000	46.000000	145.000000	81.000000
2.100000	61.580000	15.030000	676.000000	0.000000	320.000000	47.000000	195.000000	93.000000
2.110000	63.990000	16.030000	643.000000	0.000000	320.000000	47.000000	241.000000	100.000000
2.120000	66.710000	17.130000	564.000000	0.000000	317.000000	47.000000	272.000000	110.000000
2.130000	69.570000	18.280000	461.000000	0.000000	315.000000	47.000000	286.000000	115.000000
2.140000	72.330000	19.430000	386.000000	0.000000	312.000000	48.000000	276.000000	115.000000
2.150000	75.020000	20.120000	254.000000	0.000000	308.000000	48.000000	269.000000	69.000000
2.160000	75.020000	20.120000	0.000000	1.000000	304.000000	49.000000	0.000000	0.000000
2.170000	75.930000	20.350000	0.000000	0.000000	301.000000	49.000000	91.000000	23.000000
2.180000	75.190000	19.920000	0.000000	0.000000	299.000000	48.000000	-74.000000	-43.000000
2.190000	74.730000	19.300000	0.000000	0.000000	295.000000	48.000000	-46.000000	-62.000000
2.200000	74.240000	18.710000	0.000000	0.000000	295.000000	47.000000	-49.000000	-59.000000
2.210000	73.340000	18.380000	0.000000	0.000000	294.000000	46.000000	-90.000000	-33.000000
2.220000	72.180000	18.230000	0.000000	0.000000	294.000000	46.000000	-116.000000	-15.000000
2.230000	71.690000	18.070000	0.000000	0.000000	293.000000	46.000000	-49.000000	-16.000000
2.240000	71.270000	18.070000	0.000000	0.000000	294.000000	45.000000	-42.000000	0.000000
2.250000	70.900000	18.290000	0.000000	0.000000	294.000000	45.000000	-37.000000	22.000000
