t	x	y	pressure	penup	azimuth	inclination	v_x	v_y
0.000000	52.570000	49.930000	244.000000	1.000000	161.000000	52.000000	0.000000	0.000000
0.010000	52.050000	50.500000	249.000000	0.000000	162.000000	52.000000	-52.000000	57.000000
0.020000	51.960000	50.630000	250.000000	0.000000	162.000000	52.000000	-9.000000	13.000000
0.030000	51.870000	50.710000	257.000000	0.000000	162.000000	52.000000	-9.000000	8.000000
0.040000	51.690000	50.420000	287.000000	0.000000	162.000000	51.000000	-18.000000	-29.000000
0.050000	51.450000	49.910000	314.000000	0.000000	162.000000	51.000000	-24.000000	-51.000000
0.060000	51.300000	48.920000	339.000000	0.000000	162.000000	51.000000	-15.000000	-99.000000
0.070000	51.200000	47.540000	361.000000	0.000000	162.000000	51.000000	-10.000000	-138.000000
0.080000	51.270000	45.900000	381.000000	0.000000	161.000000	50.000000	7.000000	-164.000000
0.090000	51.450000	44.360000	388.000000	0.000000	160.000000	51.000000	18.000000	-154.000000
0.100000	51.710000	42.820000	413.000000	0.000000	160.000000	51.000000	26.000000	-154.000000
0.110000	51.850000	41.660000	417.000000	0.000000	160.000000	52.000000	14.000000	-116.000000
0.120000	51.900000	40.770000	439.000000	0.000000	161.000000	52.000000	5.000000	-89.000000
0.130000	51.570000	40.140000	491.000000	0.000000	160.000000	53.000000	-33.000000	-63.000000
0.140000	51.120000	40.000000	489.000000	0.000000	160.000000	53.000000	-45.000000	-14.000000
0.150000	50.600000	40.180000	495.000000	0.000000	160.000000	53.000000	-52.000000	18.000000
0.160000	49.680000	40.790000	449.000000	0.000000	160.000000	53.000000	-92.000000	61.000000
0.170000	48.370000	41.460000	393.000000	0.000000	160.000000	53.000000	-131.000000	67.000000
0.180000	46.800000	42.160000	381.000000	0.000000	159.000000	53.000000	-157.000000	70.000000
0.190000	45.000000	42.840000	371.000000	0.000000	158.000000	54.000000	-180.000000	68.000000
0.200000	43.670000	43.730000	391.000000	0.000000	157.000000	54.000000	-133.000000	89.000000
0.210000	42.650000	44.760000	398.000000	0.000000	156.000000	53.000000	-102.000000	103.000000
0.220000	42.120000	45.460000	461.000000	0.000000	153.000000	54.000000	-53.000000	70.000000
0.230000	42.000000	45.860000	474.000000	0.000000	153.000000	54.000000	-12.000000	40.000000
0.240000	42.140000	46.060000	477.000000	0.000000	152.000000	54.000000	14.000000	20.000000
0.250000	42.860000	46.060000	512.000000	0.000000	152.000000	54.000000	72.000000	0.000000
0.260000	44.280000	45.970000	567.000000	0.000000	150.000000	54.000000	142.000000	-9.000000
0.270000	46.160000	45.780000	616.000000	0.000000	150.000000	54.000000	188.000000	-19.000000
0.280000	49.020000	45.640000	669.000000	0.000000	151.000000	54.000000	286.000000	-14.000000
0.290000	52.270000	45.480000	699.000000	0.000000	151.000000	54.000000	325.000000	-16.000000
0.300000	55.780000	45.310000	714.000000	0.000000	153.000000	55.000000	351.000000	-17.000000
0.310000	59.130000	45.140000	730.000000	0.000000	155.000000	54.000000	335.000000	-17.000000
0.320000	62.430000	44.940000	720.000000	0.000000	156.000000	55.000000	330.000000	-20.000000
0.330000	65.700000	44.730000	697.000000	0.000000	159.000000	55.000000	327.000000	-21.000000
0.340000	68.710000	44.730000	665.000000	0.000000	160.000000	55.000000	301.000000	0.000000
0.350000	70.930000	44.730000	560.000000	0.000000	163.000000	55.000000	222.000000	0.000000
0.360000	72.630000	44.640000	319.000000	0.000000	165.000000	55.000000	170.000000	-9.000000
0.370000	72.630000	44.640000	0.000000	1.000000	167.000000	55.000000	0.000000	0.000000
0.380000	73.500000	44.330000	0.000000	0.000000	167.000000	54.000000	87.000000	-31.000000
0.390000	72.820000	44.330000	0.000000	0.000000	169.000000	54.000000	-68.000000	0.000000
0.400000	71.840000	44.330000	0.000000	0.000000	170.000000	54.000000	-98.000000	0.000000
0.410000	70.890000	44.540000	0.000000	0.000000	170.000000	54.000000	-95.000000	21.000000
0.420000	70.000000	44.910000	0.000000	0.000000	171.000000	53.000000	-89.000000	37.000000
0.430000	68.900000	45.400000	0.000000	0.000000	171.000000	52.000000	-110.000000	49.000000
0.440000	67.650000	45.490000	0.000000	0.000000	171.000000	51.000000	-125.000000	9.000000
0.450000	66.600000	46.010000	0.000000	0.000000	172.000000	50.000000	-105.000000	52.000000
0.460000	65.780000	46.810000	0.000000	0.000000	172.000000	48.000000	-82.000000	80.000000
0.470000	65.110000	47.630000	0.000000	0.000000	173.000000	45.000000	-67.000000	82.000000
0.480000	64.730000	48.220000	0.000000	0.000000	174.000000	41.000000	-38.000000	59.000000
0.490000	64.440000	48.670000	0.000000	0.000000	175.000000	38.000000	-29.000000	45.000000
0.500000	64.220000	49.010000	0.000000	0.000000	175.000000	35.000000	-22.000000	34.000000
0.510000	63.960000	49.180000	0.000000	0.000000	175.000000	34.000000	-26.000000	17.000000
0.520000	63.610000	49.250000	0.000000	0.000000	175.000000	35.000000	-35.000000	7.000000
0.530000	63.190000	49.250000	0.000000	0.000000	175.000000	36.000000	-42.000000	0.000000
0.540000	62.670000	49.200000	0.000000	0.000000	174.000000	39.000000	-52.000000	-5.000000
0.550000	62.180000	49.090000	0.000000	0.000000	173.000000	41.000000	-49.000000	-11.000000
0.560000	61.570000	48.910000	0.000000	0.000000	171.000000	45.000000	-61.000000	-18.000000
0.570000	60.860000	48.640000	0.000000	0.000000	169.000000	48.000000	-71.000000	-27.000000
0.580000	60.130000	48.230000	0.000000	0.000000	166.000000	51.000000	-73.000000	-41.000000
0.590000	59.470000	47.740000	0.000000	0.000000	163.000000	54.000000	-66.000000	-49.000000
0.600000	59.200000	47.490000	0.000000	0.000000	163.000000	54.000000	-27.000000	-25.000000
0.610000	59.150000	47.440000	0.000000	0.000000	164.000000	53.000000	-5.000000	-5.000000
0.620000	59.070000	47.520000	0.000000	0.000000	164.000000	52.000000	-8.000000	8.000000
0.630000	58.960000	47.680000	0.000000	0.000000	165.000000	50.000000	-11.000000	16.000000
0.640000	58.830000	47.870000	0.000000	0.000000	167.000000	49.000000	-13.000000	19.000000
0.650000	58.690000	48.090000	0.000000	0.000000	167.000000	49.000000	-14.000000	22.000000
0.660000	58.360000	48.150000	0.000000	0.000000	167.000000	49.000000	-33.000000	6.000000
0.670000	57.910000	48.150000	0.000000	0.000000	167.000000	50.000000	-45.000000	0.000000
0.680000	57.380000	48.150000	0.000000	0.000000	167.000000	50.000000	-53.000000	0.000000
0.690000	56.790000	48.070000	0.000000	0.000000	167.000000	50.000000	-59.000000	-8.000000
0.700000	56.170000	48.070000	0.000000	0.000000	167.000000	50.000000	-62.000000	0.000000
0.710000	55.240000	47.950000	0.000000	0.000000	166.000000	51.000000	-93.000000	-12.000000
0.720000	54.330000	47.870000	0.000000	0.000000	166.000000	51.000000	-91.000000	-8.000000
0.730000	53.490000	47.780000	0.000000	0.000000	166.000000	51.000000	-84.000000	-9.000000
0.740000	52.700000	47.650000	0.000000	0.000000	164.000000	52.000000	-79.000000	-13.000000
0.750000	51.880000	47.470000	0.000000	0.000000	164.000000	52.000000	-82.000000	-18.000000
0.760000	51.050000	47.260000	0.000000	0.000000	163.000000	52.000000	-83.000000	-21.000000
0.770000	50.460000	47.010000	0.000000	0.000000	162.000000	53.000000	-59.000000	-25.000000
0.780000	50.160000	46.760000	0.000000	0.000000	161.000000	52.000000	-30.000000	-25.000000
0.790000	50.060000	46.510000	0.000000	0.000000	161.000000	52.000000	-10.000000	-25.000000
0.800000	50.060000	46.560000	0.000000	0.000000	160.000000	53.000000	0.000000	5.000000
0.810000	50.060000	46.610000	0.000000	0.000000	160.000000	53.000000	0.000000	5.000000
0.820000	50.110000	46.610000	0.000000	0.000000	162.000000	54.000000	5.000000	0.000000
0.830000	50.280000	46.740000	0.000000	0.000000	161.000000	55.000000	17.000000	13.000000
0.840000	50.540000	46.830000	0.000000	0.000000	161.000000	55.000000	26.000000	9.000000
0.850000	50.820000	46.900000	0.000000	0.000000	161.000000	55.000000	28.000000	7.000000
0.860000	51.080000	46.960000	0.000000	0.000000	161.000000	55.000000	26.000000	6.000000
0.870000	51.150000	46.960000	0.000000	0.000000	161.000000	55.000000	7.000000	0.000000
0.880000	51.090000	47.050000	0.000000	0.000000	161.000000	55.000000	-6.000000	9.000000
0.890000	50.900000	47.130000	0.000000	0.000000	162.000000	54.000000	-19.000000	8.000000
0.900000	50.600000	47.240000	0.000000	0.000000	162.000000	54.000000	-30.000000	11.000000
0.910000	50.230000	47.370000	0.000000	0.000000	162.000000	54.000000	-37.000000	13.000000
0.920000	49.760000	47.500000	0.000000	0.000000	162.000000	54.000000	-47.000000	13.000000
0.930000	49.300000	47.610000	0.000000	0.000000	160.000000	53.000000	-46.000000	11.000000
0.940000	49.300000	47.610000	91.000000	1.000000	160.000000	53.000000	0.000000	0.000000
0.950000	48.620000	47.760000	205.000000	0.000000	160.000000	52.000000	-68.000000	15.000000
0.960000	48.400000	47.760000	223.000000	0.000000	160.000000	52.000000	-22.000000	0.000000
0.970000	48.560000	47.760000	287.000000	0.000000	158.000000	52.000000	16.000000	0.000000
0.980000	49.100000	47.630000	339.000000	0.000000	157.000000	52.000000	54.000000	-13.000000
0.990000	49.890000	47.480000	420.000000	0.000000	157.000000	52.000000	79.000000	-15.000000
1.000000	51.170000	47.320000	494.000000	0.000000	157.000000	52.000000	128.000000	-16.000000
1.010000	52.720000	47.220000	546.000000	0.000000	157.000000	52.000000	155.000000	-10.000000
1.020000	54.460000	47.170000	581.000000	0.000000	158.000000	52.000000	174.000000	-5.000000
1.030000	55.910000	47.230000	603.000000	0.000000	158.000000	52.000000	145.000000	6.000000
1.040000	57.090000	47.440000	619.000000	0.000000	160.000000	52.000000	118.000000	21.000000
1.050000	58.080000	47.760000	628.000000	0.000000	161.000000	52.000000	99.000000	32.000000
1.060000	58.720000	48.240000	652.000000	0.000000	161.000000	52.000000	64.000000	48.000000
1.070000	59.070000	48.750000	663.000000	0.000000	163.000000	52.000000	35.000000	51.000000
1.080000	59.230000	49.280000	667.000000	0.000000	163.000000	52.000000	16.000000	53.000000
1.090000	59.120000	49.810000	659.000000	0.000000	163.000000	52.000000	-11.000000	53.000000
1.100000	58.770000	50.290000	636.000000	0.000000	163.000000	52.000000	-35.000000	48.000000
1.110000	58.260000	50.540000	630.000000	0.000000	163.000000	52.000000	-51.000000	25.000000
1.120000	57.660000	50.660000	599.000000	0.000000	163.000000	52.000000	-60.000000	12.000000
1.130000	57.070000	50.500000	572.000000	0.000000	164.000000	51.000000	-59.000000	-16.000000
1.140000	56.760000	50.140000	550.000000	0.000000	164.000000	51.000000	-31.000000	-36.000000
1.150000	56.640000	49.660000	529.000000	0.000000	164.000000	51.000000	-12.000000	-48.000000
1.160000	56.450000	48.610000	529.000000	0.000000	164.000000	51.000000	-19.000000	-105.000000
1.170000	56.500000	47.390000	530.000000	0.000000	163.000000	52.000000	5.000000	-122.000000
1.180000	56.700000	46.050000	538.000000	0.000000	164.000000	52.000000	20.000000	-134.000000
1.190000	57.020000	44.240000	542.000000	0.000000	164.000000	52.000000	32.000000	-181.000000
1.200000	57.250000	42.930000	560.000000	0.000000	164.000000	53.000000	23.000000	-131.000000
1.210000	57.430000	41.950000	586.000000	0.000000	164.000000	53.000000	18.000000	-98.000000
1.220000	57.670000	41.070000	588.000000	0.000000	164.000000	53.000000	24.000000	-88.000000
1.230000	57.890000	40.560000	572.000000	0.000000	164.000000	53.000000	22.000000	-51.000000
1.240000	57.890000	40.290000	548.000000	0.000000	164.000000	53.000000	0.000000	-27.000000
1.250000	57.780000	40.290000	281.000000	0.000000	165.000000	53.000000	-11.000000	0.000000
1.260000	57.780000	40.290000	0.000000	1.000000	165.000000	53.000000	0.000000	0.000000
1.270000	57.390000	40.860000	0.000000	0.000000	165.000000	53.000000	-39.000000	57.000000
1.280000	57.030000	41.390000	0.000000	0.000000	165.000000	53.000000	-36.000000	53.000000
1.290000	56.680000	41.930000	0.000000	0.000000	165.000000	53.000000	-35.000000	54.000000
1.300000	56.400000	42.480000	0.000000	0.000000	165.000000	53.000000	-28.000000	55.000000
1.310000	56.160000	42.850000	0.000000	0.000000	165.000000	53.000000	-24.000000	37.000000
1.320000	55.920000	43.010000	0.000000	0.000000	165.000000	53.000000	-24.000000	16.000000
1.330000	55.750000	43.010000	0.000000	0.000000	166.000000	52.000000	-17.000000	0.000000
1.340000	55.570000	42.940000	0.000000	0.000000	166.000000	52.000000	-18.000000	-7.000000
1.350000	55.300000	42.860000	0.000000	0.000000	164.000000	52.000000	-27.000000	-8.000000
1.360000	54.970000	42.860000	0.000000	0.000000	165.000000	51.000000	-33.000000	0.000000
1.370000	54.560000	42.860000	0.000000	0.000000	164.000000	51.000000	-41.000000	0.000000
1.380000	54.100000	42.860000	0.000000	0.000000	164.000000	51.000000	-46.000000	0.000000
1.390000	53.600000	42.910000	0.000000	0.000000	163.000000	50.000000	-50.000000	5.000000
1.400000	53.250000	43.020000	0.000000	0.000000	162.000000	51.000000	-35.000000	11.000000
1.410000	52.800000	43.070000	0.000000	0.000000	161.000000	50.000000	-45.000000	5.000000
1.420000	52.290000	43.070000	0.000000	0.000000	161.000000	50.000000	-51.000000	0.000000
1.430000	51.800000	43.070000	0.000000	0.000000	161.000000	50.000000	-49.000000	0.000000
1.440000	51.490000	43.070000	0.000000	0.000000	159.000000	51.000000	-31.000000	0.000000
1.450000	51.310000	43.070000	0.000000	0.000000	159.000000	51.000000	-18.000000	0.000000
1.460000	51.310000	43.170000	0.000000	0.000000	159.000000	51.000000	0.000000	10.000000
1.470000	51.310000	43.170000	182.000000	1.000000	158.000000	52.000000	0.000000	0.000000
1.480000	51.170000	43.700000	247.000000	0.000000	158.000000	52.000000	-14.000000	53.000000
1.490000	51.170000	43.880000	340.000000	0.000000	158.000000	52.000000	0.000000	18.000000
1.500000	51.340000	43.930000	404.000000	0.000000	158.000000	53.000000	17.000000	5.000000
1.510000	51.420000	43.930000	452.000000	0.000000	158.000000	53.000000	8.000000	0.000000
1.520000	51.520000	43.800000	491.000000	0.000000	158.000000	53.000000	10.000000	-13.000000
1.530000	51.660000	43.550000	517.000000	0.000000	158.000000	53.000000	14.000000	-25.000000
1.540000	51.810000	43.140000	537.000000	0.000000	158.000000	53.000000	15.000000	-41.000000
1.550000	52.180000	42.730000	561.000000	0.000000	158.000000	53.000000	37.000000	-41.000000
1.560000	52.710000	42.380000	610.000000	0.000000	158.000000	53.000000	53.000000	-35.000000
1.570000	53.200000	42.060000	636.000000	0.000000	159.000000	53.000000	49.000000	-32.000000
1.580000	53.740000	41.950000	656.000000	0.000000	159.000000	53.000000	54.000000	-11.000000
1.590000	54.370000	42.030000	662.000000	0.000000	159.000000	53.000000	63.000000	8.000000
1.600000	54.980000	42.230000	662.000000	0.000000	161.000000	52.000000	61.000000	20.000000
1.610000	55.550000	42.610000	645.000000	0.000000	161.000000	52.000000	57.000000	38.000000
1.620000	56.120000	43.020000	589.000000	0.000000	162.000000	53.000000	57.000000	41.000000
1.630000	56.510000	43.450000	376.000000	0.000000	162.000000	53.000000	39.000000	43.000000
1.640000	56.510000	43.450000	0.000000	1.000000	162.000000	53.000000	0.000000	0.000000
1.650000	57.070000	44.000000	0.000000	0.000000	164.000000	53.000000	56.000000	55.000000
1.660000	57.020000	44.160000	0.000000	0.000000	164.000000	53.000000	-5.000000	16.000000
1.670000	56.750000	44.260000	0.000000	0.000000	164.000000	53.000000	-27.000000	10.000000
1.680000	56.750000	44.400000	0.000000	0.000000	164.000000	53.000000	0.000000	14.000000
1.690000	57.320000	44.630000	0.000000	0.000000	164.000000	53.000000	57.000000	23.000000
1.700000	58.170000	44.900000	0.000000	0.000000	164.000000	52.000000	85.000000	27.000000
1.710000	59.250000	45.240000	0.000000	0.000000	165.000000	51.000000	108.000000	34.000000
1.720000	60.440000	45.490000	0.000000	0.000000	164.000000	50.000000	119.000000	25.000000
1.730000	61.710000	45.670000	0.000000	0.000000	165.000000	49.000000	127.000000	18.000000
1.740000	62.850000	45.790000	0.000000	0.000000	166.000000	47.000000	114.000000	12.000000
1.750000	63.650000	45.880000	0.000000	0.000000	165.000000	46.000000	80.000000	9.000000
1.760000	64.210000	45.930000	0.000000	0.000000	166.000000	45.000000	56.000000	5.000000
1.770000	64.310000	45.930000	0.000000	0.000000	166.000000	44.000000	10.000000	0.000000
1.780000	64.100000	45.930000	0.000000	0.000000	167.000000	44.000000	-21.000000	0.000000
1.790000	63.680000	45.880000	0.000000	0.000000	167.000000	44.000000	-42.000000	-5.000000
1.800000	63.090000	45.880000	0.000000	0.000000	167.000000	44.000000	-59.000000	0.000000
1.810000	62.510000	45.820000	0.000000	0.000000	168.000000	45.000000	-58.000000	-6.000000
1.820000	61.940000	45.820000	0.000000	0.000000	167.000000	46.000000	-57.000000	0.000000
1.830000	61.500000	45.820000	0.000000	0.000000	167.000000	47.000000	-44.000000	0.000000
1.840000	61.120000	45.890000	0.000000	0.000000	166.000000	49.000000	-38.000000	7.000000
1.850000	60.900000	45.980000	0.000000	0.000000	167.000000	50.000000	-22.000000	9.000000
1.860000	60.770000	46.160000	0.000000	0.000000	166.000000	51.000000	-13.000000	18.000000
1.870000	60.710000	46.370000	0.000000	0.000000	166.000000	52.000000	-6.000000	21.000000
1.880000	60.710000	46.600000	0.000000	0.000000	167.000000	52.000000	0.000000	23.000000
1.890000	60.710000	46.770000	0.000000	0.000000	166.000000	53.000000	0.000000	17.000000
1.900000	60.710000	46.920000	0.000000	0.000000	168.000000	53.000000	0.000000	15.000000
1.910000	60.780000	47.040000	0.000000	0.000000	167.000000	54.000000	7.000000	12.000000
1.920000	60.780000	47.120000	0.000000	0.000000	167.000000	54.000000	0.000000	8.000000
1.930000	60.840000	47.120000	0.000000	0.000000	167.000000	54.000000	6.000000	0.000000
1.940000	60.840000	47.120000	180.000000	1.000000	167.000000	54.000000	0.000000	0.000000
1.950000	60.840000	47.120000	287.000000	0.000000	167.000000	54.000000	0.000000	0.000000
1.960000	60.840000	47.120000	292.000000	0.000000	166.000000	53.000000	0.000000	0.000000
1.970000	60.840000	47.120000	335.000000	0.000000	166.000000	53.000000	0.000000	0.000000
1.980000	60.530000	46.940000	394.000000	0.000000	165.000000	53.000000	-31.000000	-18.000000
1.990000	60.360000	46.600000	447.000000	0.000000	164.000000	54.000000	-17.000000	-34.000000
2.000000	60.150000	46.110000	473.000000	0.000000	163.000000	54.000000	-21.000000	-49.000000
2.010000	60.150000	45.490000	493.000000	0.000000	163.000000	54.000000	0.000000	-62.000000
2.020000	60.270000	45.230000	488.000000	0.000000	163.000000	54.000000	12.000000	-26.000000
2.030000	60.330000	45.230000	398.000000	0.000000	163.000000	54.000000	6.000000	0.000000
2.040000	60.400000	45.140000	51.000000	0.000000	163.000000	55.000000	7.000000	-9.000000
2.050000	60.400000	45.140000	0.000000	1.000000	163.000000	55.000000	0.000000	0.000000
2.060000	60.550000	45.560000	0.000000	0.000000	163.000000	55.000000	15.000000	42.000000
2.070000	60.630000	46.150000	0.000000	0.000000	164.000000	55.000000	8.000000	59.000000
2.080000	60.700000	46.800000	0.000000	0.000000	164.000000	55.000000	7.000000	65.000000
2.090000	60.770000	47.500000	0.000000	0.000000	164.000000	55.000000	7.000000	70.000000
2.100000	60.920000	48.280000	0.000000	0.000000	164.000000	54.000000	15.000000	78.000000
2.110000	61.060000	49.010000	0.000000	0.000000	164.000000	54.000000	14.000000	73.000000
2.120000	61.210000	49.550000	0.000000	0.000000	165.000000	53.000000	15.000000	54.000000
2.130000	61.390000	49.980000	0.000000	0.000000	165.000000	53.000000	18.000000	43.000000
2.140000	61.560000	50.250000	0.000000	0.000000	166.000000	52.000000	17.000000	27.000000
2.150000	61.560000	50.250000	315.000000	1.000000	166.000000	52.000000	0.000000	0.000000
2.160000	61.790000	50.640000	314.000000	0.000000	166.000000	52.000000	23.000000	39.000000
2.170000	61.790000	50.640000	294.000000	0.000000	166.000000	51.000000	0.000000	0.000000
2.180000	61.790000	50.490000	309.000000	0.000000	165.000000	51.000000	0.000000	-15.000000
2.190000	61.790000	50.210000	309.000000	0.000000	165.000000	51.000000	0.000000	-28.000000
2.200000	61.790000	49.800000	322.000000	0.000000	165.000000	50.000000	0.000000	-41.000000
2.210000	61.790000	49.190000	330.000000	0.000000	165.000000	50.000000	0.000000	-61.000000
2.220000	61.850000	48.460000	334.000000	0.000000	165.000000	50.000000	6.000000	-73.000000
