t	x	y	pressure	penup	azimuth	inclination	v_x	v_y
0.000000	17.990000	70.440000	170.000000	1.000000	141.000000	60.000000	0.000000	0.000000
0.010000	18.380000	71.300000	346.000000	0.000000	144.000000	60.000000	39.000000	86.000000
0.020000	18.380000	71.300000	336.000000	0.000000	145.000000	60.000000	0.000000	0.000000
0.030000	18.380000	71.140000	363.000000	0.000000	145.000000	60.000000	0.000000	-16.000000
0.040000	18.380000	70.500000	425.000000	0.000000	148.000000	60.000000	0.000000	-64.000000
0.050000	18.380000	69.530000	465.000000	0.000000	148.000000	60.000000	0.000000	-97.000000
0.060000	18.330000	68.110000	522.000000	0.000000	150.000000	60.000000	-5.000000	-142.000000
0.070000	18.200000	66.390000	536.000000	0.000000	148.000000	61.000000	-13.000000	-172.000000
0.080000	18.090000	64.470000	578.000000	0.000000	148.000000	61.000000	-11.000000	-192.000000
0.090000	18.000000	62.610000	622.000000	0.000000	147.000000	62.000000	-9.000000	-186.000000
0.100000	17.910000	61.230000	653.000000	0.000000	146.000000	63.000000	-9.000000	-138.000000
0.110000	17.910000	60.160000	676.000000	0.000000	143.000000	63.000000	0.000000	-107.000000
0.120000	17.840000	59.420000	699.000000	0.000000	140.000000	63.000000	-7.000000	-74.000000
0.130000	17.680000	59.050000	711.000000	0.000000	138.000000	64.000000	-16.000000	-37.000000
0.140000	17.420000	58.920000	691.000000	0.000000	137.000000	63.000000	-26.000000	-13.000000
0.150000	16.960000	58.920000	693.000000	0.000000	135.000000	64.000000	-46.000000	0.000000
0.160000	16.240000	59.260000	685.000000	0.000000	133.000000	63.000000	-72.000000	34.000000
0.170000	15.340000	59.810000	694.000000	0.000000	133.000000	63.000000	-90.000000	55.000000
0.180000	14.330000	60.370000	693.000000	0.000000	133.000000	63.000000	-101.000000	56.000000
0.190000	13.360000	60.920000	693.000000	0.000000	133.000000	63.000000	-97.000000	55.000000
0.200000	12.420000	61.440000	700.000000	0.000000	133.000000	63.000000	-94.000000	52.000000
0.210000	11.780000	61.960000	727.000000	0.000000	133.000000	62.000000	-64.000000	52.000000
0.220000	11.780000	62.890000	748.000000	0.000000	135.000000	62.000000	0.000000	93.000000
0.230000	12.110000	63.780000	750.000000	0.000000	135.000000	62.000000	33.000000	89.000000
0.240000	13.360000	64.910000	794.000000	0.000000	134.000000	61.000000	125.000000	113.000000
0.250000	15.640000	66.220000	826.000000	0.000000	135.000000	60.000000	228.000000	131.000000
0.260000	18.600000	67.410000	836.000000	0.000000	136.000000	61.000000	296.000000	119.000000
0.270000	22.300000	68.560000	860.000000	0.000000	136.000000	61.000000	370.000000	115.000000
0.280000	26.030000	69.660000	854.000000	0.000000	138.000000	61.000000	373.000000	110.000000
0.290000	29.950000	70.510000	826.000000	0.000000	140.000000	62.000000	392.000000	85.000000
0.300000	33.970000	71.190000	757.000000	0.000000	143.000000	62.000000	402.000000	68.000000
0.310000	37.610000	71.800000	638.000000	0.000000	146.000000	63.000000	364.000000	61.000000
0.320000	40.540000	72.210000	439.000000	0.000000	149.000000	63.000000	293.000000	41.000000
0.330000	40.540000	72.210000	0.000000	1.000000	151.000000	61.000000	0.000000	0.000000
0.340000	44.730000	72.650000	0.000000	0.000000	154.000000	60.000000	419.000000	44.000000
0.350000	45.470000	72.820000	0.000000	0.000000	155.000000	60.000000	74.000000	17.000000
0.360000	45.560000	73.000000	0.000000	0.000000	156.000000	59.000000	9.000000	18.000000
0.370000	44.910000	72.890000	0.000000	0.000000	156.000000	59.000000	-65.000000	-11.000000
0.380000	43.780000	72.770000	0.000000	0.000000	157.000000	58.000000	-113.000000	-12.000000
0.390000	42.340000	72.630000	0.000000	0.000000	155.000000	58.000000	-144.000000	-14.000000
0.400000	40.440000	72.390000	0.000000	0.000000	155.000000	58.000000	-190.000000	-24.000000
0.410000	38.480000	72.090000	0.000000	0.000000	156.000000	57.000000	-196.000000	-30.000000
0.420000	36.490000	72.010000	0.000000	0.000000	154.000000	56.000000	-199.000000	-8.000000
0.430000	34.630000	71.920000	0.000000	0.000000	154.000000	57.000000	-186.000000	-9.000000
0.440000	33.070000	71.810000	0.000000	0.000000	154.000000	57.000000	-156.000000	-11.000000
0.450000	31.720000	71.690000	0.000000	0.000000	153.000000	58.000000	-135.000000	-12.000000
0.460000	30.490000	71.550000	0.000000	0.000000	150.000000	58.000000	-123.000000	-14.000000
0.470000	29.320000	71.380000	0.000000	0.000000	145.000000	59.000000	-117.000000	-17.000000
0.480000	28.180000	71.180000	0.000000	0.000000	139.000000	60.000000	-114.000000	-20.000000
0.490000	27.050000	70.840000	0.000000	0.000000	135.000000	59.000000	-113.000000	-34.000000
0.500000	26.170000	70.420000	0.000000	0.000000	131.000000	60.000000	-88.000000	-42.000000
0.510000	25.530000	70.030000	0.000000	0.000000	126.000000	60.000000	-64.000000	-39.000000
0.520000	25.060000	69.640000	0.000000	0.000000	125.000000	60.000000	-47.000000	-39.000000
0.530000	24.730000	69.300000	0.000000	0.000000	125.000000	60.000000	-33.000000	-34.000000
0.540000	24.400000	69.000000	0.000000	0.000000	126.000000	62.000000	-33.000000	-30.000000
0.550000	24.050000	68.740000	0.000000	0.000000	130.000000	65.000000	-35.000000	-26.000000
0.560000	23.800000	68.580000	0.000000	0.000000	135.000000	67.000000	-25.000000	-16.000000
0.570000	23.640000	68.480000	0.000000	0.000000	142.000000	68.000000	-16.000000	-10.000000
0.580000	23.210000	68.480000	0.000000	0.000000	150.000000	67.000000	-43.000000	0.000000
0.590000	22.790000	68.480000	0.000000	0.000000	152.000000	65.000000	-42.000000	0.000000
0.600000	22.520000	68.420000	0.000000	0.000000	153.000000	63.000000	-27.000000	-6.000000
0.610000	22.340000	68.330000	0.000000	0.000000	150.000000	62.000000	-18.000000	-9.000000
0.620000	22.260000	68.190000	0.000000	0.000000	151.000000	60.000000	-8.000000	-14.000000
0.630000	22.180000	68.020000	0.000000	0.000000	149.000000	59.000000	-8.000000	-17.000000
0.640000	22.110000	67.850000	0.000000	0.000000	147.000000	59.000000	-7.000000	-17.000000
0.650000	21.990000	67.750000	0.000000	0.000000	147.000000	59.000000	-12.000000	-10.000000
0.660000	21.830000	67.680000	0.000000	0.000000	146.000000	60.000000	-16.000000	-7.000000
0.670000	21.670000	67.680000	0.000000	0.000000	144.000000	60.000000	-16.000000	0.000000
0.680000	21.550000	67.630000	0.000000	0.000000	144.000000	60.000000	-12.000000	-5.000000
0.690000	21.480000	67.630000	0.000000	0.000000	142.000000	61.000000	-7.000000	0.000000
0.700000	21.480000	67.690000	0.000000	0.000000	141.000000	60.000000	0.000000	6.000000
0.710000	21.480000	67.750000	0.000000	0.000000	139.000000	61.000000	0.000000	6.000000
0.720000	21.480000	67.800000	0.000000	0.000000	139.000000	61.000000	0.000000	5.000000
0.730000	21.530000	67.850000	0.000000	0.000000	139.000000	61.000000	5.000000	5.000000
0.740000	21.600000	67.930000	0.000000	0.000000	139.000000	61.000000	7.000000	8.000000
0.750000	21.690000	68.040000	0.000000	0.000000	139.000000	61.000000	9.000000	11.000000
0.760000	21.810000	68.180000	0.000000	0.000000	139.000000	61.000000	12.000000	14.000000
0.770000	21.910000	68.390000	0.000000	0.000000	139.000000	61.000000	10.000000	21.000000
0.780000	21.990000	68.660000	0.000000	0.000000	139.000000	61.000000	8.000000	27.000000
0.790000	22.130000	68.980000	0.000000	0.000000	139.000000	61.000000	14.000000	32.000000
0.800000	22.270000	69.290000	0.000000	0.000000	139.000000	61.000000	14.000000	31.000000
0.810000	22.410000	69.580000	0.000000	0.000000	139.000000	61.000000	14.000000	29.000000
0.820000	22.560000	69.910000	0.000000	0.000000	139.000000	61.000000	15.000000	33.000000
0.830000	22.670000	70.270000	0.000000	0.000000	139.000000	61.000000	11.000000	36.000000
0.840000	22.780000	70.560000	0.000000	0.000000	139.000000	61.000000	11.000000	29.000000
0.850000	22.890000	70.810000	0.000000	0.000000	139.000000	61.000000	11.000000	25.000000
0.860000	22.950000	71.000000	0.000000	0.000000	139.000000	61.000000	6.000000	19.000000
0.870000	22.950000	71.190000	0.000000	0.000000	139.000000	61.000000	0.000000	19.000000
0.880000	23.010000	71.360000	0.000000	0.000000	141.000000	60.000000	6.000000	17.000000
0.890000	23.010000	71.520000	0.000000	0.000000	141.000000	60.000000	0.000000	16.000000
0.900000	23.010000	71.680000	0.000000	0.000000	142.000000	59.000000	0.000000	16.000000
0.910000	23.010000	71.880000	0.000000	0.000000	142.000000	59.000000	0.000000	20.000000
0.920000	23.100000	72.110000	0.000000	0.000000	143.000000	59.000000	9.000000	23.000000
0.930000	23.170000	72.400000	0.000000	0.000000	143.000000	59.000000	7.000000	29.000000
0.940000	23.260000	72.690000	0.000000	0.000000	144.000000	58.000000	9.000000	29.000000
0.950000	23.260000	72.690000	139.000000	1.000000	144.000000	58.000000	0.000000	0.000000
0.960000	23.440000	73.270000	211.000000	0.000000	144.000000	58.000000	18.000000	58.000000
0.970000	23.440000	73.320000	291.000000	0.000000	146.000000	57.000000	0.000000	5.000000
0.980000	23.440000	73.320000	333.000000	0.000000	146.000000	57.000000	0.000000	0.000000
0.990000	23.440000	73.240000	431.000000	0.000000	146.000000	57.000000	0.000000	-8.000000
1.000000	23.440000	73.020000	495.000000	0.000000	148.000000	57.000000	0.000000	-22.000000
1.010000	23.440000	72.690000	519.000000	0.000000	148.000000	57.000000	0.000000	-33.000000
1.020000	23.440000	72.390000	537.000000	0.000000	148.000000	57.000000	0.000000	-30.000000
1.030000	23.360000	72.100000	556.000000	0.000000	148.000000	57.000000	-8.000000	-29.000000
1.040000	23.360000	71.930000	564.000000	0.000000	150.000000	57.000000	0.000000	-17.000000
1.050000	23.360000	71.850000	564.000000	0.000000	150.000000	57.000000	0.000000	-8.000000
1.060000	23.360000	71.850000	559.000000	0.000000	150.000000	57.000000	0.000000	0.000000
1.070000	23.360000	71.900000	543.000000	0.000000	150.000000	57.000000	0.000000	5.000000
1.080000	23.360000	71.960000	529.000000	0.000000	150.000000	57.000000	0.000000	6.000000
1.090000	23.360000	72.020000	493.000000	0.000000	150.000000	57.000000	0.000000	6.000000
1.100000	23.360000	72.090000	439.000000	0.000000	149.000000	58.000000	0.000000	7.000000
1.110000	23.280000	72.180000	425.000000	0.000000	149.000000	58.000000	-8.000000	9.000000
1.120000	23.200000	72.180000	420.000000	0.000000	149.000000	58.000000	-8.000000	0.000000
1.130000	23.080000	72.180000	420.000000	0.000000	149.000000	58.000000	-12.000000	0.000000
1.140000	23.080000	72.180000	420.000000	0.000000	149.000000	58.000000	0.000000	0.000000
1.150000	23.080000	72.180000	433.000000	0.000000	149.000000	58.000000	0.000000	0.000000
1.160000	23.140000	72.180000	447.000000	0.000000	149.000000	58.000000	6.000000	0.000000
1.170000	23.140000	72.180000	472.000000	0.000000	149.000000	58.000000	0.000000	0.000000
1.180000	23.140000	72.180000	497.000000	0.000000	149.000000	58.000000	0.000000	0.000000
1.190000	23.140000	72.180000	516.000000	0.000000	149.000000	58.000000	0.000000	0.000000
1.200000	23.140000	72.180000	537.000000	0.000000	149.000000	58.000000	0.000000	0.000000
1.210000	23.140000	72.180000	542.000000	0.000000	149.000000	58.000000	0.000000	0.000000
1.220000	23.140000	72.180000	556.000000	0.000000	149.000000	58.000000	0.000000	0.000000
1.230000	23.140000	72.180000	559.000000	0.000000	150.000000	57.000000	0.000000	0.000000
1.240000	23.140000	72.180000	562.000000	0.000000	150.000000	57.000000	0.000000	0.000000
1.250000	23.140000	72.180000	568.000000	0.000000	150.000000	57.000000	0.000000	0.000000
1.260000	23.140000	72.180000	561.000000	0.000000	150.000000	57.000000	0.000000	0.000000
1.270000	23.140000	72.180000	567.000000	0.000000	149.000000	58.000000	0.000000	0.000000
1.280000	23.140000	72.180000	569.000000	0.000000	149.000000	58.000000	0.000000	0.000000
1.290000	23.140000	72.180000	577.000000	0.000000	149.000000	58.000000	0.000000	0.000000
1.300000	23.140000	72.180000	589.000000	0.000000	149.000000	58.000000	0.000000	0.000000
1.310000	23.140000	72.180000	589.000000	0.000000	149.000000	58.000000	0.000000	0.000000
1.320000	23.140000	72.180000	608.000000	0.000000	149.000000	58.000000	0.000000	0.000000
1.330000	23.140000	72.180000	620.000000	0.000000	149.000000	58.000000	0.000000	0.000000
1.340000	23.140000	72.180000	617.000000	0.000000	149.000000	58.000000	0.000000	0.000000
1.350000	23.140000	72.180000	636.000000	0.000000	149.000000	58.000000	0.000000	0.000000
1.360000	23.140000	72.180000	668.000000	0.000000	149.000000	58.000000	0.000000	0.000000
1.370000	23.360000	71.690000	699.000000	0.000000	149.000000	58.000000	22.000000	-49.000000
1.380000	23.420000	71.060000	754.000000	0.000000	149.000000	58.000000	6.000000	-63.000000
1.390000	23.420000	70.060000	797.000000	0.000000	149.000000	58.000000	0.000000	-100.000000
1.400000	23.500000	68.680000	826.000000	0.000000	147.000000	59.000000	8.000000	-138.000000
1.410000	23.550000	67.060000	842.000000	0.000000	147.000000	59.000000	5.000000	-162.000000
1.420000	23.610000	65.330000	860.000000	0.000000	146.000000	60.000000	6.000000	-173.000000
1.430000	23.690000	63.580000	867.000000	0.000000	145.000000	60.000000	8.000000	-175.000000
1.440000	23.870000	62.170000	853.000000	0.000000	144.000000	61.000000	18.000000	-141.000000
1.450000	24.150000	60.990000	864.000000	0.000000	143.000000	62.000000	28.000000	-118.000000
1.460000	24.490000	60.090000	842.000000	0.000000	140.000000	63.000000	34.000000	-90.000000
1.470000	24.780000	59.450000	794.000000	0.000000	138.000000	64.000000	29.000000	-64.000000
1.480000	25.000000	58.980000	688.000000	0.000000	137.000000	65.000000	22.000000	-47.000000
1.490000	25.160000	58.700000	407.000000	0.000000	135.000000	64.000000	16.000000	-28.000000
1.500000	25.160000	58.700000	0.000000	1.000000	133.000000	65.000000	0.000000	0.000000
1.510000	25.270000	58.890000	0.000000	0.000000	133.000000	65.000000	11.000000	19.000000
1.520000	25.270000	59.480000	0.000000	0.000000	132.000000	65.000000	0.000000	59.000000
1.530000	25.190000	60.350000	0.000000	0.000000	132.000000	65.000000	-8.000000	87.000000
1.540000	25.090000	61.410000	0.000000	0.000000	132.000000	65.000000	-10.000000	106.000000
1.550000	25.010000	62.830000	0.000000	0.000000	133.000000	66.000000	-8.000000	142.000000
1.560000	24.880000	64.100000	0.000000	0.000000	133.000000	66.000000	-13.000000	127.000000
1.570000	24.880000	65.270000	0.000000	0.000000	137.000000	66.000000	0.000000	117.000000
1.580000	25.020000	66.430000	0.000000	0.000000	142.000000	65.000000	14.000000	116.000000
1.590000	25.020000	67.060000	0.000000	0.000000	146.000000	64.000000	0.000000	63.000000
1.600000	24.890000	67.350000	0.000000	0.000000	151.000000	63.000000	-13.000000	29.000000
1.610000	24.680000	67.600000	0.000000	0.000000	155.000000	62.000000	-21.000000	25.000000
1.620000	24.320000	67.790000	0.000000	0.000000	159.000000	59.000000	-36.000000	19.000000
1.630000	23.910000	67.980000	0.000000	0.000000	160.000000	58.000000	-41.000000	19.000000
1.640000	23.460000	68.190000	0.000000	0.000000	161.000000	57.000000	-45.000000	21.000000
1.650000	23.000000	68.380000	0.000000	0.000000	160.000000	56.000000	-46.000000	19.000000
1.660000	22.560000	68.550000	0.000000	0.000000	158.000000	56.000000	-44.000000	17.000000
1.670000	22.170000	68.660000	0.000000	0.000000	156.000000	57.000000	-39.000000	11.000000
1.680000	21.810000	68.710000	0.000000	0.000000	152.000000	57.000000	-36.000000	5.000000
1.690000	21.520000	68.710000	0.000000	0.000000	150.000000	57.000000	-29.000000	0.000000
1.700000	21.380000	68.710000	0.000000	0.000000	147.000000	58.000000	-14.000000	0.000000
1.710000	21.330000	68.710000	0.000000	0.000000	146.000000	58.000000	-5.000000	0.000000
1.720000	21.330000	68.710000	0.000000	0.000000	145.000000	59.000000	0.000000	0.000000
1.730000	21.330000	68.710000	0.000000	0.000000	142.000000	59.000000	0.000000	0.000000
1.740000	21.330000	68.860000	0.000000	0.000000	142.000000	59.000000	0.000000	15.000000
1.750000	21.420000	68.950000	0.000000	0.000000	141.000000	60.000000	9.000000	9.000000
1.760000	21.470000	69.040000	0.000000	0.000000	139.000000	61.000000	5.000000	9.000000
1.770000	21.520000	69.110000	0.000000	0.000000	139.000000	61.000000	5.000000	7.000000
1.780000	21.520000	69.160000	0.000000	0.000000	136.000000	61.000000	0.000000	5.000000
1.790000	21.520000	69.160000	0.000000	0.000000	136.000000	61.000000	0.000000	0.000000
1.800000	21.520000	69.160000	0.000000	0.000000	136.000000	61.000000	0.000000	0.000000
1.810000	21.520000	69.160000	0.000000	0.000000	135.000000	62.000000	0.000000	0.000000
1.820000	21.410000	69.160000	0.000000	0.000000	135.000000	62.000000	-11.000000	0.000000
1.830000	21.410000	69.160000	0.000000	0.000000	135.000000	62.000000	0.000000	0.000000
1.840000	21.410000	69.160000	0.000000	0.000000	134.000000	61.000000	0.000000	0.000000
1.850000	21.410000	69.160000	0.000000	0.000000	134.000000	61.000000	0.000000	0.000000
1.860000	21.130000	69.250000	0.000000	0.000000	135.000000	62.000000	-28.000000	9.000000
1.870000	21.130000	69.250000	0.000000	0.000000	135.000000	62.000000	0.000000	0.000000
1.880000	20.960000	69.250000	0.000000	0.000000	135.000000	62.000000	-17.000000	0.000000
1.890000	20.770000	69.250000	0.000000	0.000000	135.000000	62.000000	-19.000000	0.000000
1.900000	20.650000	69.250000	0.000000	0.000000	135.000000	62.000000	-12.000000	0.000000
1.910000	20.540000	69.250000	0.000000	0.000000	136.000000	61.000000	-11.000000	0.000000
1.920000	20.450000	69.250000	0.000000	0.000000	135.000000	62.000000	-9.000000	0.000000
1.930000	20.350000	69.250000	0.000000	0.000000	135.000000	62.000000	-10.000000	0.000000
1.940000	20.230000	69.180000	0.000000	0.000000	135.000000	62.000000	-12.000000	-7.000000
1.950000	20.060000	69.180000	0.000000	0.000000	135.000000	62.000000	-17.000000	0.000000
1.960000	19.870000	69.120000	0.000000	0.000000	135.000000	62.000000	-19.000000	-6.000000
1.970000	19.650000	69.120000	0.000000	0.000000	135.000000	62.000000	-22.000000	0.000000
1.980000	19.400000	69.120000	0.000000	0.000000	135.000000	62.000000	-25.000000	0.000000
1.990000	19.130000	69.120000	0.000000	0.000000	135.000000	62.000000	-27.000000	0.000000
2.000000	18.900000	69.120000	0.000000	0.000000	135.000000	62.000000	-23.000000	0.000000
2.010000	18.670000	69.120000	0.000000	0.000000	135.000000	62.000000	-23.000000	0.000000
2.020000	18.470000	69.050000	0.000000	0.000000	135.000000	62.000000	-20.000000	-7.000000
2.030000	18.280000	68.990000	0.000000	0.000000	135.000000	62.000000	-19.000000	-6.000000
2.040000	18.020000	68.860000	0.000000	0.000000	137.000000	62.000000	-26.000000	-13.000000
2.050000	17.710000	68.680000	0.000000	0.000000	137.000000	62.000000	-31.000000	-18.000000
2.060000	17.710000	68.680000	282.000000	1.000000	137.000000	62.000000	0.000000	0.000000
2.070000	16.980000	68.410000	339.000000	0.000000	138.000000	61.000000	-73.000000	-27.000000
2.080000	16.870000	68.460000	415.000000	0.000000	140.000000	62.000000	-11.000000	5.000000
2.090000	16.920000	68.580000	515.000000	0.000000	140.000000	62.000000	5.000000	12.000000
2.100000	17.210000	68.860000	609.000000	0.000000	140.000000	62.000000	29.000000	28.000000
2.110000	18.080000	69.250000	662.000000	0.000000	140.000000	62.000000	87.000000	39.000000
2.120000	19.330000	69.950000	690.000000	0.000000	141.000000	61.000000	125.000000	70.000000
2.130000	21.170000	70.680000	699.000000	0.000000	141.000000	61.000000	184.000000	73.000000
2.140000	23.050000	71.440000	697.000000	0.000000	142.000000	61.000000	188.000000	76.000000
2.150000	24.650000	72.010000	641.000000	0.000000	142.000000	61.000000	160.000000	57.000000
2.160000	26.040000	72.410000	493.000000	0.000000	144.000000	60.000000	139.000000	40.000000
2.170000	27.160000	72.700000	44.000000	0.000000	145.000000	60.000000	112.000000	29.000000
2.180000	27.160000	72.700000	0.000000	1.000000	146.000000	60.000000	0.000000	0.000000
2.190000	28.020000	73.020000	0.000000	0.000000	147.000000	59.000000	86.000000	32.000000
2.200000	27.700000	73.100000	0.000000	0.000000	149.000000	59.000000	-32.000000	8.000000
2.210000	27.150000	73.100000	0.000000	0.000000	150.000000	58.000000	-55.000000	0.000000
2.220000	26.450000	73.030000	0.000000	0.000000	150.000000	58.000000	-70.000000	-7.000000
2.230000	25.920000	72.940000	0.000000	0.000000	152.000000	59.000000	-53.000000	-9.000000
