t	x	y	pressure	penup	azimuth	inclination	v_x	v_y
0.000000	92.410000	21.240000	381.000000	1.000000	119.000000	58.000000	0.000000	0.000000
0.010000	92.190000	22.030000	445.000000	0.000000	120.000000	57.000000	-22.000000	79.000000
0.020000	92.010000	22.100000	449.000000	0.000000	122.000000	57.000000	-18.000000	7.000000
0.030000	92.010000	21.980000	469.000000	0.000000	122.000000	57.000000	0.000000	-12.000000
0.040000	92.330000	20.990000	522.000000	0.000000	123.000000	56.000000	32.000000	-99.000000
0.050000	92.850000	19.430000	543.000000	0.000000	123.000000	56.000000	52.000000	-156.000000
0.060000	93.290000	16.340000	570.000000	0.000000	123.000000	58.000000	44.000000	-309.000000
0.070000	93.580000	13.010000	605.000000	0.000000	123.000000	58.000000	29.000000	-333.000000
0.080000	93.770000	9.510000	658.000000	0.000000	121.000000	59.000000	19.000000	-350.000000
0.090000	93.770000	7.050000	691.000000	0.000000	118.000000	60.000000	0.000000	-246.000000
0.100000	93.620000	5.250000	700.000000	0.000000	117.000000	61.000000	-15.000000	-180.000000
0.110000	93.460000	3.890000	713.000000	0.000000	112.000000	62.000000	-16.000000	-136.000000
0.120000	93.340000	3.370000	714.000000	0.000000	109.000000	64.000000	-12.000000	-52.000000
0.130000	93.200000	3.370000	664.000000	0.000000	105.000000	65.000000	-14.000000	0.000000
0.140000	92.570000	3.720000	673.000000	0.000000	101.000000	66.000000	-63.000000	35.000000
0.150000	91.620000	5.310000	672.000000	0.000000	99.000000	66.000000	-95.000000	159.000000
0.160000	90.010000	7.060000	673.000000	0.000000	97.000000	66.000000	-161.000000	175.000000
0.170000	88.110000	8.930000	688.000000	0.000000	97.000000	66.000000	-190.000000	187.000000
0.180000	86.020000	10.310000	716.000000	0.000000	97.000000	66.000000	-209.000000	138.000000
0.190000	84.510000	11.250000	752.000000	0.000000	96.000000	65.000000	-151.000000	94.000000
0.200000	83.440000	11.890000	796.000000	0.000000	96.000000	64.000000	-107.000000	64.000000
0.210000	82.650000	12.080000	799.000000	0.000000	98.000000	63.000000	-79.000000	19.000000
0.220000	82.420000	12.210000	796.000000	0.000000	97.000000	62.000000	-23.000000	13.000000
0.230000	82.850000	12.210000	802.000000	0.000000	97.000000	61.000000	43.000000	0.000000
0.240000	83.710000	12.210000	826.000000	0.000000	95.000000	60.000000	86.000000	0.000000
0.250000	85.960000	12.480000	836.000000	0.000000	95.000000	60.000000	225.000000	27.000000
0.260000	89.270000	12.880000	855.000000	0.000000	95.000000	60.000000	331.000000	40.000000
0.270000	93.290000	13.060000	863.000000	0.000000	95.000000	60.000000	402.000000	18.000000
0.280000	97.780000	13.600000	855.000000	0.000000	97.000000	60.000000	449.000000	54.000000
0.290000	102.300000	14.380000	855.000000	0.000000	101.000000	61.000000	452.000000	78.000000
0.300000	106.840000	15.100000	858.000000	0.000000	105.000000	61.000000	454.000000	72.000000
0.310000	111.060000	15.800000	826.000000	0.000000	110.000000	60.000000	422.000000	70.000000
0.320000	114.650000	16.470000	731.000000	0.000000	113.000000	60.000000	359.000000	67.000000
0.330000	117.820000	17.120000	491.000000	0.000000	116.000000	58.000000	317.000000	65.000000
0.340000	117.820000	17.120000	0.000000	1.000000	117.000000	58.000000	0.000000	0.000000
0.350000	122.050000	18.220000	0.000000	0.000000	116.000000	57.000000	423.000000	110.000000
0.360000	123.230000	18.660000	0.000000	0.000000	116.000000	57.000000	118.000000	44.000000
0.370000	122.910000	18.760000	0.000000	0.000000	114.000000	57.000000	-32.000000	10.000000
0.380000	121.830000	18.630000	0.000000	0.000000	113.000000	56.000000	-108.000000	-13.000000
0.390000	120.230000	18.550000	0.000000	0.000000	111.000000	55.000000	-160.000000	-8.000000
0.400000	118.420000	18.470000	0.000000	0.000000	110.000000	54.000000	-181.000000	-8.000000
0.410000	116.630000	18.380000	0.000000	0.000000	110.000000	54.000000	-179.000000	-9.000000
0.420000	114.850000	18.280000	0.000000	0.000000	110.000000	54.000000	-178.000000	-10.000000
0.430000	112.630000	18.140000	0.000000	0.000000	105.000000	53.000000	-222.000000	-14.000000
0.440000	110.120000	18.000000	0.000000	0.000000	99.000000	52.000000	-251.000000	-14.000000
0.450000	107.920000	17.620000	0.000000	0.000000	96.000000	51.000000	-220.000000	-38.000000
0.460000	106.040000	17.110000	0.000000	0.000000	96.000000	49.000000	-188.000000	-51.000000
0.470000	104.380000	16.450000	0.000000	0.000000	100.000000	50.000000	-166.000000	-66.000000
0.480000	102.390000	15.680000	0.000000	0.000000	106.000000	48.000000	-199.000000	-77.000000
0.490000	100.480000	14.850000	0.000000	0.000000	113.000000	47.000000	-191.000000	-83.000000
0.500000	98.620000	14.050000	0.000000	0.000000	118.000000	44.000000	-186.000000	-80.000000
0.510000	97.390000	13.200000	0.000000	0.000000	125.000000	42.000000	-123.000000	-85.000000
0.520000	96.480000	12.280000	0.000000	0.000000	131.000000	40.000000	-91.000000	-92.000000
0.530000	95.770000	11.330000	0.000000	0.000000	134.000000	38.000000	-71.000000	-95.000000
0.540000	94.850000	10.520000	0.000000	0.000000	135.000000	37.000000	-92.000000	-81.000000
0.550000	94.530000	9.820000	0.000000	0.000000	133.000000	39.000000	-32.000000	-70.000000
0.560000	94.610000	9.080000	0.000000	0.000000	130.000000	41.000000	8.000000	-74.000000
0.570000	94.770000	8.320000	0.000000	0.000000	127.000000	45.000000	16.000000	-76.000000
0.580000	95.040000	7.650000	0.000000	0.000000	124.000000	49.000000	27.000000	-67.000000
0.590000	95.380000	7.060000	0.000000	0.000000	122.000000	53.000000	34.000000	-59.000000
0.600000	95.560000	6.600000	0.000000	0.000000	118.000000	56.000000	18.000000	-46.000000
0.610000	95.680000	6.500000	0.000000	0.000000	116.000000	58.000000	12.000000	-10.000000
0.620000	95.750000	6.640000	0.000000	0.000000	114.000000	61.000000	7.000000	14.000000
0.630000	95.830000	7.340000	0.000000	0.000000	113.000000	61.000000	8.000000	70.000000
0.640000	95.930000	8.270000	0.000000	0.000000	114.000000	62.000000	10.000000	93.000000
0.650000	96.050000	9.350000	0.000000	0.000000	114.000000	62.000000	12.000000	108.000000
0.660000	96.230000	10.910000	0.000000	0.000000	112.000000	62.000000	18.000000	156.000000
0.670000	96.420000	13.070000	0.000000	0.000000	112.000000	62.000000	19.000000	216.000000
0.680000	96.820000	15.620000	0.000000	0.000000	112.000000	62.000000	40.000000	255.000000
0.690000	97.340000	18.340000	0.000000	0.000000	115.000000	63.000000	52.000000	272.000000
0.700000	97.890000	20.420000	0.000000	0.000000	115.000000	63.000000	55.000000	208.000000
0.710000	97.890000	20.420000	103.000000	1.000000	116.000000	63.000000	0.000000	0.000000
0.720000	98.900000	23.570000	394.000000	0.000000	117.000000	63.000000	101.000000	315.000000
0.730000	98.900000	23.900000	441.000000	0.000000	119.000000	63.000000	0.000000	33.000000
0.740000	98.740000	23.440000	561.000000	0.000000	121.000000	63.000000	-16.000000	-46.000000
0.750000	98.450000	22.040000	634.000000	0.000000	121.000000	63.000000	-29.000000	-140.000000
0.760000	98.120000	19.430000	685.000000	0.000000	121.000000	63.000000	-33.000000	-261.000000
0.770000	97.800000	16.010000	707.000000	0.000000	121.000000	63.000000	-32.000000	-342.000000
0.780000	97.500000	12.260000	707.000000	0.000000	119.000000	63.000000	-30.000000	-375.000000
0.790000	97.410000	9.070000	717.000000	0.000000	117.000000	63.000000	-9.000000	-319.000000
0.800000	97.470000	6.260000	710.000000	0.000000	116.000000	64.000000	6.000000	-281.000000
0.810000	97.770000	4.330000	664.000000	0.000000	114.000000	64.000000	30.000000	-193.000000
0.820000	98.080000	3.020000	546.000000	0.000000	110.000000	66.000000	31.000000	-131.000000
0.830000	98.390000	2.130000	212.000000	0.000000	106.000000	66.000000	31.000000	-89.000000
0.840000	98.390000	2.130000	0.000000	1.000000	102.000000	67.000000	0.000000	0.000000
0.850000	98.730000	2.540000	0.000000	0.000000	97.000000	68.000000	34.000000	41.000000
0.860000	98.620000	3.730000	0.000000	0.000000	95.000000	68.000000	-11.000000	119.000000
0.870000	98.290000	5.400000	0.000000	0.000000	95.000000	68.000000	-33.000000	167.000000
0.880000	97.960000	7.030000	0.000000	0.000000	98.000000	69.000000	-33.000000	163.000000
0.890000	97.620000	8.400000	0.000000	0.000000	100.000000	69.000000	-34.000000	137.000000
0.900000	97.360000	9.610000	0.000000	0.000000	105.000000	68.000000	-26.000000	121.000000
0.910000	97.200000	10.460000	0.000000	0.000000	110.000000	68.000000	-16.000000	85.000000
0.920000	97.100000	11.290000	0.000000	0.000000	115.000000	67.000000	-10.000000	83.000000
0.930000	97.010000	12.230000	0.000000	0.000000	118.000000	65.000000	-9.000000	94.000000
0.940000	96.800000	13.270000	0.000000	0.000000	124.000000	64.000000	-21.000000	104.000000
0.950000	96.510000	14.080000	0.000000	0.000000	124.000000	63.000000	-29.000000	81.000000
0.960000	96.310000	14.380000	0.000000	0.000000	127.000000	62.000000	-20.000000	30.000000
0.970000	96.130000	14.330000	0.000000	0.000000	128.000000	61.000000	-18.000000	-5.000000
0.980000	96.000000	13.850000	0.000000	0.000000	128.000000	61.000000	-13.000000	-48.000000
0.990000	95.910000	13.260000	0.000000	0.000000	126.000000	60.000000	-9.000000	-59.000000
1.000000	95.910000	12.610000	0.000000	0.000000	126.000000	60.000000	0.000000	-65.000000
1.010000	95.910000	12.180000	0.000000	0.000000	125.000000	60.000000	0.000000	-43.000000
1.020000	95.980000	11.770000	0.000000	0.000000	122.000000	60.000000	7.000000	-41.000000
1.030000	96.060000	11.370000	0.000000	0.000000	119.000000	61.000000	8.000000	-40.000000
1.040000	96.180000	11.080000	0.000000	0.000000	117.000000	61.000000	12.000000	-29.000000
1.050000	96.340000	10.900000	0.000000	0.000000	114.000000	62.000000	16.000000	-18.000000
1.060000	96.510000	10.790000	0.000000	0.000000	113.000000	63.000000	17.000000	-11.000000
1.070000	96.620000	10.690000	0.000000	0.000000	111.000000	64.000000	11.000000	-10.000000
1.080000	96.700000	10.690000	0.000000	0.000000	111.000000	64.000000	8.000000	0.000000
1.090000	96.750000	10.850000	0.000000	0.000000	111.000000	64.000000	5.000000	16.000000
1.100000	96.750000	11.160000	0.000000	0.000000	111.000000	64.000000	0.000000	31.000000
1.110000	96.670000	11.740000	0.000000	0.000000	111.000000	64.000000	-8.000000	58.000000
1.120000	96.550000	12.490000	0.000000	0.000000	113.000000	63.000000	-12.000000	75.000000
1.130000	96.340000	13.300000	0.000000	0.000000	113.000000	63.000000	-21.000000	81.000000
1.140000	96.060000	14.090000	0.000000	0.000000	115.000000	63.000000	-28.000000	79.000000
1.150000	95.660000	14.880000	0.000000	0.000000	118.000000	62.000000	-40.000000	79.000000
1.160000	95.290000	15.530000	0.000000	0.000000	120.000000	62.000000	-37.000000	65.000000
1.170000	94.960000	15.950000	0.000000	0.000000	122.000000	60.000000	-33.000000	42.000000
1.180000	94.630000	16.230000	0.000000	0.000000	125.000000	59.000000	-33.000000	28.000000
1.190000	94.300000	16.320000	0.000000	0.000000	126.000000	58.000000	-33.000000	9.000000
1.200000	93.890000	16.380000	0.000000	0.000000	127.000000	57.000000	-41.000000	6.000000
1.210000	93.480000	16.380000	0.000000	0.000000	127.000000	56.000000	-41.000000	0.000000
1.220000	93.110000	16.430000	0.000000	0.000000	127.000000	56.000000	-37.000000	5.000000
1.230000	92.770000	16.480000	0.000000	0.000000	129.000000	56.000000	-34.000000	5.000000
1.240000	92.560000	16.390000	0.000000	0.000000	129.000000	56.000000	-21.000000	-9.000000
1.250000	92.310000	16.140000	0.000000	0.000000	127.000000	56.000000	-25.000000	-25.000000
1.260000	92.040000	15.790000	0.000000	0.000000	128.000000	57.000000	-27.000000	-35.000000
1.270000	91.760000	15.480000	0.000000	0.000000	128.000000	57.000000	-28.000000	-31.000000
1.280000	91.580000	15.260000	0.000000	0.000000	127.000000	57.000000	-18.000000	-22.000000
1.290000	91.440000	15.110000	0.000000	0.000000	126.000000	58.000000	-14.000000	-15.000000
1.300000	91.440000	15.110000	270.000000	1.000000	124.000000	58.000000	0.000000	0.000000
1.310000	91.440000	15.110000	501.000000	0.000000	121.000000	59.000000	0.000000	0.000000
1.320000	91.440000	15.110000	510.000000	0.000000	120.000000	60.000000	0.000000	0.000000
1.330000	91.730000	15.210000	577.000000	0.000000	117.000000	61.000000	29.000000	10.000000
1.340000	92.410000	15.370000	643.000000	0.000000	115.000000	62.000000	68.000000	16.000000
1.350000	93.460000	15.670000	671.000000	0.000000	114.000000	62.000000	105.000000	30.000000
1.360000	94.950000	16.070000	678.000000	0.000000	113.000000	63.000000	149.000000	40.000000
1.370000	96.640000	16.690000	649.000000	0.000000	111.000000	64.000000	169.000000	62.000000
1.380000	98.460000	17.440000	538.000000	0.000000	111.000000	64.000000	182.000000	75.000000
1.390000	100.370000	18.280000	139.000000	0.000000	111.000000	64.000000	191.000000	84.000000
1.400000	100.370000	18.280000	0.000000	1.000000	114.000000	64.000000	0.000000	0.000000
1.410000	103.280000	19.030000	0.000000	0.000000	116.000000	64.000000	291.000000	75.000000
1.420000	103.880000	18.920000	0.000000	0.000000	116.000000	64.000000	60.000000	-11.000000
1.430000	104.070000	18.560000	0.000000	0.000000	117.000000	65.000000	19.000000	-36.000000
1.440000	103.980000	18.180000	0.000000	0.000000	117.000000	65.000000	-9.000000	-38.000000
1.450000	103.680000	17.760000	0.000000	0.000000	115.000000	65.000000	-30.000000	-42.000000
1.460000	103.350000	17.310000	0.000000	0.000000	115.000000	65.000000	-33.000000	-45.000000
1.470000	103.000000	16.790000	0.000000	0.000000	114.000000	64.000000	-35.000000	-52.000000
1.480000	102.780000	16.390000	0.000000	0.000000	115.000000	63.000000	-22.000000	-40.000000
1.490000	102.560000	16.100000	0.000000	0.000000	117.000000	61.000000	-22.000000	-29.000000
1.500000	102.320000	15.870000	0.000000	0.000000	119.000000	60.000000	-24.000000	-23.000000
1.510000	102.050000	15.690000	0.000000	0.000000	123.000000	58.000000	-27.000000	-18.000000
1.520000	101.750000	15.550000	0.000000	0.000000	125.000000	56.000000	-30.000000	-14.000000
1.530000	101.450000	15.320000	0.000000	0.000000	128.000000	54.000000	-30.000000	-23.000000
1.540000	101.140000	15.040000	0.000000	0.000000	131.000000	52.000000	-31.000000	-28.000000
1.550000	100.830000	14.670000	0.000000	0.000000	134.000000	51.000000	-31.000000	-37.000000
1.560000	100.540000	14.270000	0.000000	0.000000	134.000000	51.000000	-29.000000	-40.000000
1.570000	100.260000	13.840000	0.000000	0.000000	134.000000	51.000000	-28.000000	-43.000000
1.580000	100.070000	13.500000	0.000000	0.000000	134.000000	52.000000	-19.000000	-34.000000
1.590000	99.890000	13.210000	0.000000	0.000000	131.000000	54.000000	-18.000000	-29.000000
1.600000	99.760000	13.020000	0.000000	0.000000	130.000000	55.000000	-13.000000	-19.000000
1.610000	99.710000	12.900000	0.000000	0.000000	130.000000	56.000000	-5.000000	-12.000000
1.620000	99.710000	12.840000	0.000000	0.000000	126.000000	58.000000	0.000000	-6.000000
1.630000	99.710000	12.890000	0.000000	0.000000	124.000000	60.000000	0.000000	5.000000
1.640000	99.710000	13.000000	0.000000	0.000000	122.000000	60.000000	0.000000	11.000000
1.650000	99.710000	13.150000	0.000000	0.000000	120.000000	62.000000	0.000000	15.000000
1.660000	99.710000	13.410000	0.000000	0.000000	118.000000	62.000000	0.000000	26.000000
1.670000	99.640000	13.750000	0.000000	0.000000	118.000000	62.000000	-7.000000	34.000000
1.680000	99.640000	14.140000	0.000000	0.000000	118.000000	62.000000	0.000000	39.000000
1.690000	99.700000	14.580000	0.000000	0.000000	120.000000	62.000000	6.000000	44.000000
1.700000	99.770000	15.120000	0.000000	0.000000	122.000000	61.000000	7.000000	54.000000
1.710000	99.910000	15.720000	0.000000	0.000000	125.000000	60.000000	14.000000	60.000000
1.720000	100.040000	16.330000	0.000000	0.000000	126.000000	60.000000	13.000000	61.000000
1.730000	100.180000	16.930000	0.000000	0.000000	128.000000	59.000000	14.000000	60.000000
1.740000	100.350000	17.500000	0.000000	0.000000	129.000000	60.000000	17.000000	57.000000
1.750000	100.350000	17.500000	50.000000	1.000000	129.000000	60.000000	0.000000	0.000000
1.760000	100.750000	17.840000	292.000000	0.000000	128.000000	61.000000	40.000000	34.000000
1.770000	100.750000	17.790000	314.000000	0.000000	127.000000	62.000000	0.000000	-5.000000
1.780000	100.600000	17.540000	364.000000	0.000000	127.000000	63.000000	-15.000000	-25.000000
1.790000	100.460000	17.160000	414.000000	0.000000	125.000000	64.000000	-14.000000	-38.000000
1.800000	100.200000	16.420000	470.000000	0.000000	124.000000	64.000000	-26.000000	-74.000000
1.810000	99.850000	15.660000	490.000000	0.000000	122.000000	65.000000	-35.000000	-76.000000
1.820000	99.480000	14.890000	493.000000	0.000000	122.000000	65.000000	-37.000000	-77.000000
1.830000	99.240000	14.330000	458.000000	0.000000	122.000000	65.000000	-24.000000	-56.000000
1.840000	99.240000	13.890000	371.000000	0.000000	122.000000	65.000000	0.000000	-44.000000
1.850000	99.340000	13.800000	270.000000	0.000000	122.000000	65.000000	10.000000	-9.000000
1.860000	99.590000	14.030000	48.000000	0.000000	120.000000	64.000000	25.000000	23.000000
1.870000	99.590000	14.030000	0.000000	1.000000	120.000000	64.000000	0.000000	0.000000
1.880000	100.230000	15.230000	0.000000	0.000000	120.000000	64.000000	64.000000	120.000000
1.890000	100.470000	16.050000	0.000000	0.000000	120.000000	64.000000	24.000000	82.000000
1.900000	100.650000	16.930000	0.000000	0.000000	120.000000	64.000000	18.000000	88.000000
1.910000	100.720000	17.760000	0.000000	0.000000	122.000000	63.000000	7.000000	83.000000
1.920000	100.720000	18.530000	0.000000	0.000000	122.000000	63.000000	0.000000	77.000000
1.930000	100.570000	19.080000	0.000000	0.000000	122.000000	63.000000	-15.000000	55.000000
1.940000	100.480000	19.500000	0.000000	0.000000	124.000000	64.000000	-9.000000	42.000000
1.950000	100.370000	19.650000	0.000000	0.000000	125.000000	64.000000	-11.000000	15.000000
1.960000	100.370000	19.650000	344.000000	1.000000	124.000000	64.000000	0.000000	0.000000
1.970000	100.010000	19.240000	358.000000	0.000000	124.000000	64.000000	-36.000000	-41.000000
1.980000	99.700000	19.030000	391.000000	0.000000	124.000000	64.000000	-31.000000	-21.000000
1.990000	99.600000	18.810000	440.000000	0.000000	124.000000	64.000000	-10.000000	-22.000000
2.000000	99.540000	18.570000	448.000000	0.000000	124.000000	64.000000	-6.000000	-24.000000
2.010000	99.590000	18.350000	396.000000	0.000000	124.000000	63.000000	5.000000	-22.000000
2.020000	99.720000	18.240000	361.000000	0.000000	124.000000	63.000000	13.000000	-11.000000
2.030000	99.960000	18.240000	279.000000	0.000000	124.000000	63.000000	24.000000	0.000000
2.040000	100.260000	18.310000	93.000000	0.000000	124.000000	63.000000	30.000000	7.000000
2.050000	100.260000	18.310000	0.000000	1.000000	125.000000	64.000000	0.000000	0.000000
2.060000	101.030000	18.960000	0.000000	0.000000	125.000000	64.000000	77.000000	65.000000
2.070000	101.360000	19.340000	0.000000	0.000000	125.000000	64.000000	33.000000	38.000000
2.080000	101.640000	19.840000	0.000000	0.000000	127.000000	64.000000	28.000000	50.000000
2.090000	102.060000	20.430000	0.000000	0.000000	127.000000	64.000000	42.000000	59.000000
2.100000	102.500000	20.990000	0.000000	0.000000	127.000000	64.000000	44.000000	56.000000
2.110000	102.940000	21.530000	0.000000	0.000000	127.000000	64.000000	44.000000	54.000000
2.120000	103.260000	21.810000	0.000000	0.000000	127.000000	64.000000	32.000000	28.000000
2.130000	103.500000	21.940000	0.000000	0.000000	129.000000	64.000000	24.000000	13.000000
2.140000	103.500000	21.940000	339.000000	1.000000	129.000000	64.000000	0.000000	0.000000
2.150000	103.270000	21.490000	353.000000	0.000000	127.000000	63.000000	-23.000000	-45.000000
2.160000	102.840000	21.180000	415.000000	0.000000	127.000000	63.000000	-43.000000	-31.000000
2.170000	102.490000	20.760000	520.000000	0.000000	127.000000	63.000000	-35.000000	-42.000000
2.180000	102.150000	20.280000	594.000000	0.000000	127.000000	63.000000	-34.000000	-48.000000
2.190000	101.830000	19.540000	616.000000	0.000000	125.000000	64.000000	-32.000000	-74.000000
2.200000	101.490000	18.640000	636.000000	0.000000	125.000000	64.000000	-34.000000	-90.000000
2.210000	101.140000	17.560000	667.000000	0.000000	124.000000	63.000000	-35.000000	-108.000000
