t	x	y	pressure	penup	azimuth	inclination	v_x	v_y
0.000000	56.050000	35.890000	240.000000	1.000000	315.000000	53.000000	0.000000	0.000000
0.010000	56.200000	37.390000	337.000000	0.000000	315.000000	54.000000	15.000000	150.000000
0.020000	56.440000	37.390000	311.000000	0.000000	315.000000	54.000000	24.000000	0.000000
0.030000	56.310000	36.840000	312.000000	0.000000	314.000000	55.000000	-13.000000	-55.000000
0.040000	55.950000	35.800000	338.000000	0.000000	314.000000	55.000000	-36.000000	-104.000000
0.050000	55.300000	34.410000	387.000000	0.000000	314.000000	55.000000	-65.000000	-139.000000
0.060000	54.390000	32.900000	418.000000	0.000000	314.000000	55.000000	-91.000000	-151.000000
0.070000	53.300000	31.280000	475.000000	0.000000	314.000000	55.000000	-109.000000	-162.000000
0.080000	52.150000	29.580000	537.000000	0.000000	314.000000	55.000000	-115.000000	-170.000000
0.090000	51.200000	28.280000	537.000000	0.000000	314.000000	55.000000	-95.000000	-130.000000
0.100000	50.380000	27.260000	546.000000	0.000000	315.000000	54.000000	-82.000000	-102.000000
0.110000	49.680000	26.420000	565.000000	0.000000	316.000000	55.000000	-70.000000	-84.000000
0.120000	49.210000	25.630000	560.000000	0.000000	317.000000	54.000000	-47.000000	-79.000000
0.130000	48.900000	25.140000	560.000000	0.000000	320.000000	54.000000	-31.000000	-49.000000
0.140000	48.800000	24.840000	567.000000	0.000000	320.000000	54.000000	-10.000000	-30.000000
0.150000	48.800000	24.750000	566.000000	0.000000	322.000000	54.000000	0.000000	-9.000000
0.160000	48.800000	24.810000	563.000000	0.000000	322.000000	54.000000	0.000000	6.000000
0.170000	49.070000	24.980000	563.000000	0.000000	323.000000	53.000000	27.000000	17.000000
0.180000	49.480000	25.510000	563.000000	0.000000	323.000000	53.000000	41.000000	53.000000
0.190000	50.010000	26.440000	569.000000	0.000000	323.000000	53.000000	53.000000	93.000000
0.200000	50.410000	27.630000	570.000000	0.000000	323.000000	53.000000	40.000000	119.000000
0.210000	50.760000	28.920000	563.000000	0.000000	323.000000	53.000000	35.000000	129.000000
0.220000	51.010000	30.350000	572.000000	0.000000	322.000000	54.000000	25.000000	143.000000
0.230000	51.110000	31.880000	572.000000	0.000000	322.000000	54.000000	10.000000	153.000000
0.240000	51.110000	33.060000	567.000000	0.000000	321.000000	55.000000	0.000000	118.000000
0.250000	50.960000	33.810000	567.000000	0.000000	320.000000	54.000000	-15.000000	75.000000
0.260000	50.730000	34.280000	565.000000	0.000000	319.000000	55.000000	-23.000000	47.000000
0.270000	50.430000	34.420000	561.000000	0.000000	319.000000	55.000000	-30.000000	14.000000
0.280000	50.190000	34.420000	574.000000	0.000000	319.000000	55.000000	-24.000000	0.000000
0.290000	49.990000	34.350000	592.000000	0.000000	319.000000	55.000000	-20.000000	-7.000000
0.300000	49.820000	34.240000	602.000000	0.000000	319.000000	55.000000	-17.000000	-11.000000
0.310000	49.730000	34.150000	619.000000	0.000000	319.000000	55.000000	-9.000000	-9.000000
0.320000	49.640000	34.090000	641.000000	0.000000	320.000000	54.000000	-9.000000	-6.000000
0.330000	49.640000	34.040000	667.000000	0.000000	320.000000	54.000000	0.000000	-5.000000
0.340000	49.640000	34.040000	691.000000	0.000000	320.000000	54.000000	0.000000	0.000000
0.350000	49.640000	33.950000	740.000000	0.000000	320.000000	54.000000	0.000000	-9.000000
0.360000	49.710000	33.870000	767.000000	0.000000	320.000000	54.000000	7.000000	-8.000000
0.370000	49.870000	33.760000	785.000000	0.000000	321.000000	55.000000	16.000000	-11.000000
0.380000	50.290000	33.630000	796.000000	0.000000	321.000000	55.000000	42.000000	-13.000000
0.390000	50.980000	33.500000	818.000000	0.000000	321.000000	55.000000	69.000000	-13.000000
0.400000	51.850000	33.340000	827.000000	0.000000	321.000000	55.000000	87.000000	-16.000000
0.410000	53.010000	33.160000	848.000000	0.000000	319.000000	55.000000	116.000000	-18.000000
0.420000	54.660000	33.160000	851.000000	0.000000	319.000000	55.000000	165.000000	0.000000
0.430000	56.640000	33.240000	849.000000	0.000000	319.000000	55.000000	198.000000	8.000000
0.440000	58.810000	33.460000	848.000000	0.000000	317.000000	54.000000	217.000000	22.000000
0.450000	61.340000	33.810000	814.000000	0.000000	316.000000	55.000000	253.000000	35.000000
0.460000	64.120000	34.300000	785.000000	0.000000	315.000000	54.000000	278.000000	49.000000
0.470000	66.730000	34.890000	749.000000	0.000000	314.000000	54.000000	261.000000	59.000000
0.480000	69.010000	35.650000	682.000000	0.000000	311.000000	54.000000	228.000000	76.000000
0.490000	71.080000	36.450000	622.000000	0.000000	309.000000	53.000000	207.000000	80.000000
0.500000	72.550000	37.320000	546.000000	0.000000	305.000000	53.000000	147.000000	87.000000
0.510000	73.600000	37.740000	338.000000	0.000000	303.000000	52.000000	105.000000	42.000000
0.520000	73.600000	37.740000	0.000000	1.000000	301.000000	52.000000	0.000000	0.000000
0.530000	74.550000	37.940000	0.000000	0.000000	300.000000	51.000000	95.000000	20.000000
0.540000	74.450000	37.740000	0.000000	0.000000	298.000000	51.000000	-10.000000	-20.000000
0.550000	74.150000	37.360000	0.000000	0.000000	297.000000	50.000000	-30.000000	-38.000000
0.560000	73.600000	36.710000	0.000000	0.000000	297.000000	50.000000	-55.000000	-65.000000
0.570000	72.950000	36.070000	0.000000	0.000000	296.000000	49.000000	-65.000000	-64.000000
0.580000	72.220000	35.430000	0.000000	0.000000	296.000000	49.000000	-73.000000	-64.000000
0.590000	71.140000	34.870000	0.000000	0.000000	295.000000	48.000000	-108.000000	-56.000000
0.600000	70.460000	34.790000	0.000000	0.000000	295.000000	47.000000	-68.000000	-8.000000
0.610000	70.050000	35.040000	0.000000	0.000000	295.000000	47.000000	-41.000000	25.000000
0.620000	69.520000	35.160000	0.000000	0.000000	295.000000	47.000000	-53.000000	12.000000
0.630000	69.130000	35.430000	0.000000	0.000000	294.000000	46.000000	-39.000000	27.000000
0.640000	68.830000	35.790000	0.000000	0.000000	294.000000	46.000000	-30.000000	36.000000
0.650000	68.720000	36.340000	0.000000	0.000000	294.000000	46.000000	-11.000000	55.000000
0.660000	68.650000	36.750000	0.000000	0.000000	294.000000	46.000000	-7.000000	41.000000
0.670000	68.600000	37.080000	0.000000	0.000000	293.000000	45.000000	-5.000000	33.000000
0.680000	68.710000	37.080000	0.000000	0.000000	295.000000	43.000000	11.000000	0.000000
0.690000	68.810000	36.580000	0.000000	0.000000	295.000000	42.000000	10.000000	-50.000000
0.700000	68.910000	35.810000	0.000000	0.000000	295.000000	41.000000	10.000000	-77.000000
0.710000	68.910000	35.260000	0.000000	0.000000	295.000000	41.000000	0.000000	-55.000000
0.720000	68.360000	34.750000	0.000000	0.000000	295.000000	41.000000	-55.000000	-51.000000
0.730000	67.370000	34.540000	0.000000	0.000000	294.000000	40.000000	-99.000000	-21.000000
0.740000	66.650000	34.540000	0.000000	0.000000	295.000000	39.000000	-72.000000	0.000000
0.750000	65.730000	34.350000	0.000000	0.000000	294.000000	38.000000	-92.000000	-19.000000
0.760000	64.670000	34.140000	0.000000	0.000000	294.000000	37.000000	-106.000000	-21.000000
0.770000	63.490000	33.900000	0.000000	0.000000	293.000000	37.000000	-118.000000	-24.000000
0.780000	62.620000	33.710000	0.000000	0.000000	293.000000	37.000000	-87.000000	-19.000000
0.790000	61.950000	33.620000	0.000000	0.000000	293.000000	37.000000	-67.000000	-9.000000
0.800000	61.380000	33.620000	0.000000	0.000000	294.000000	37.000000	-57.000000	0.000000
0.810000	61.080000	33.490000	0.000000	0.000000	294.000000	40.000000	-30.000000	-13.000000
0.820000	60.970000	33.180000	0.000000	0.000000	293.000000	42.000000	-11.000000	-31.000000
0.830000	60.580000	32.740000	0.000000	0.000000	294.000000	44.000000	-39.000000	-44.000000
0.840000	60.160000	32.900000	0.000000	0.000000	296.000000	47.000000	-42.000000	16.000000
0.850000	59.720000	33.100000	0.000000	0.000000	299.000000	49.000000	-44.000000	20.000000
0.860000	59.290000	33.370000	0.000000	0.000000	303.000000	51.000000	-43.000000	27.000000
0.870000	58.860000	33.700000	0.000000	0.000000	307.000000	52.000000	-43.000000	33.000000
0.880000	58.690000	34.040000	0.000000	0.000000	311.000000	54.000000	-17.000000	34.000000
0.890000	58.640000	34.370000	0.000000	0.000000	313.000000	54.000000	-5.000000	33.000000
0.900000	58.640000	34.660000	0.000000	0.000000	315.000000	54.000000	0.000000	29.000000
0.910000	58.810000	34.960000	0.000000	0.000000	314.000000	55.000000	17.000000	30.000000
0.920000	58.930000	35.270000	0.000000	0.000000	314.000000	55.000000	12.000000	31.000000
0.930000	59.060000	35.540000	0.000000	0.000000	311.000000	55.000000	13.000000	27.000000
0.940000	59.060000	35.780000	0.000000	0.000000	312.000000	55.000000	0.000000	24.000000
0.950000	59.010000	35.780000	0.000000	0.000000	311.000000	56.000000	-5.000000	0.000000
0.960000	58.810000	35.780000	0.000000	0.000000	312.000000	57.000000	-20.000000	0.000000
0.970000	58.650000	35.630000	0.000000	0.000000	311.000000	57.000000	-16.000000	-15.000000
0.980000	58.510000	35.500000	0.000000	0.000000	311.000000	57.000000	-14.000000	-13.000000
0.990000	58.340000	35.380000	0.000000	0.000000	311.000000	57.000000	-17.000000	-12.000000
1.000000	58.160000	35.270000	0.000000	0.000000	311.000000	57.000000	-18.000000	-11.000000
1.010000	58.030000	35.180000	0.000000	0.000000	310.000000	56.000000	-13.000000	-9.000000
1.020000	57.930000	35.000000	0.000000	0.000000	309.000000	55.000000	-10.000000	-18.000000
1.030000	57.830000	34.760000	0.000000	0.000000	308.000000	54.000000	-10.000000	-24.000000
1.040000	57.690000	34.470000	0.000000	0.000000	307.000000	53.000000	-14.000000	-29.000000
1.050000	57.490000	34.170000	0.000000	0.000000	308.000000	53.000000	-20.000000	-30.000000
1.060000	57.250000	33.860000	0.000000	0.000000	308.000000	53.000000	-24.000000	-31.000000
1.070000	57.010000	33.600000	0.000000	0.000000	310.000000	53.000000	-24.000000	-26.000000
1.080000	56.770000	33.390000	0.000000	0.000000	311.000000	52.000000	-24.000000	-21.000000
1.090000	56.620000	33.270000	0.000000	0.000000	313.000000	53.000000	-15.000000	-12.000000
1.100000	56.530000	33.270000	0.000000	0.000000	314.000000	52.000000	-9.000000	0.000000
1.110000	56.530000	33.410000	0.000000	0.000000	314.000000	52.000000	0.000000	14.000000
1.120000	56.660000	33.590000	0.000000	0.000000	314.000000	52.000000	13.000000	18.000000
1.130000	56.800000	33.800000	0.000000	0.000000	316.000000	52.000000	14.000000	21.000000
1.140000	57.000000	34.030000	0.000000	0.000000	316.000000	52.000000	20.000000	23.000000
1.150000	57.170000	34.250000	0.000000	0.000000	316.000000	52.000000	17.000000	22.000000
1.160000	57.320000	34.340000	0.000000	0.000000	316.000000	52.000000	15.000000	9.000000
1.170000	57.320000	34.340000	0.000000	0.000000	315.000000	53.000000	0.000000	0.000000
1.180000	57.380000	34.340000	0.000000	0.000000	315.000000	53.000000	6.000000	0.000000
1.190000	57.380000	34.340000	0.000000	0.000000	316.000000	54.000000	0.000000	0.000000
1.200000	57.380000	34.340000	0.000000	0.000000	316.000000	54.000000	0.000000	0.000000
1.210000	57.380000	34.340000	0.000000	0.000000	316.000000	54.000000	0.000000	0.000000
1.220000	57.310000	34.340000	0.000000	0.000000	316.000000	54.000000	-7.000000	0.000000
1.230000	57.310000	34.340000	0.000000	0.000000	316.000000	54.000000	0.000000	0.000000
1.240000	57.230000	34.260000	0.000000	0.000000	317.000000	54.000000	-8.000000	-8.000000
1.250000	57.150000	34.130000	0.000000	0.000000	317.000000	54.000000	-8.000000	-13.000000
1.260000	57.070000	33.980000	0.000000	0.000000	317.000000	54.000000	-8.000000	-15.000000
1.270000	56.990000	33.820000	0.000000	0.000000	317.000000	54.000000	-8.000000	-16.000000
1.280000	56.990000	33.750000	0.000000	0.000000	317.000000	54.000000	0.000000	-7.000000
1.290000	56.990000	33.750000	0.000000	0.000000	320.000000	54.000000	0.000000	0.000000
1.300000	57.090000	33.840000	0.000000	0.000000	320.000000	54.000000	10.000000	9.000000
1.310000	57.270000	34.040000	0.000000	0.000000	320.000000	54.000000	18.000000	20.000000
1.320000	57.510000	34.310000	0.000000	0.000000	320.000000	54.000000	24.000000	27.000000
1.330000	57.730000	34.630000	0.000000	0.000000	319.000000	55.000000	22.000000	32.000000
1.340000	57.930000	34.930000	0.000000	0.000000	319.000000	55.000000	20.000000	30.000000
1.350000	58.110000	35.160000	0.000000	0.000000	319.000000	55.000000	18.000000	23.000000
1.360000	58.290000	35.350000	0.000000	0.000000	318.000000	55.000000	18.000000	19.000000
1.370000	58.440000	35.440000	0.000000	0.000000	316.000000	55.000000	15.000000	9.000000
1.380000	58.560000	35.490000	0.000000	0.000000	316.000000	55.000000	12.000000	5.000000
1.390000	58.640000	35.490000	0.000000	0.000000	315.000000	55.000000	8.000000	0.000000
1.400000	58.640000	35.490000	0.000000	0.000000	315.000000	55.000000	0.000000	0.000000
1.410000	58.690000	35.490000	0.000000	0.000000	315.000000	55.000000	5.000000	0.000000
1.420000	58.690000	35.490000	0.000000	0.000000	314.000000	55.000000	0.000000	0.000000
1.430000	58.690000	35.490000	0.000000	0.000000	314.000000	55.000000	0.000000	0.000000
1.440000	58.460000	35.190000	0.000000	0.000000	314.000000	55.000000	-23.000000	-30.000000
1.450000	58.310000	35.020000	0.000000	0.000000	314.000000	55.000000	-15.000000	-17.000000
1.460000	58.170000	34.820000	0.000000	0.000000	314.000000	55.000000	-14.000000	-20.000000
1.470000	58.120000	34.820000	0.000000	0.000000	315.000000	55.000000	-5.000000	0.000000
1.480000	58.120000	34.820000	0.000000	0.000000	315.000000	55.000000	0.000000	0.000000
1.490000	58.220000	34.820000	0.000000	0.000000	315.000000	55.000000	10.000000	0.000000
1.500000	58.360000	34.820000	0.000000	0.000000	315.000000	55.000000	14.000000	0.000000
1.510000	58.530000	34.950000	0.000000	0.000000	316.000000	55.000000	17.000000	13.000000
1.520000	58.660000	35.060000	0.000000	0.000000	316.000000	55.000000	13.000000	11.000000
1.530000	58.790000	35.170000	0.000000	0.000000	316.000000	55.000000	13.000000	11.000000
1.540000	58.920000	35.260000	0.000000	0.000000	316.000000	55.000000	13.000000	9.000000
1.550000	59.060000	35.350000	0.000000	0.000000	316.000000	56.000000	14.000000	9.000000
1.560000	59.210000	35.440000	0.000000	0.000000	316.000000	56.000000	15.000000	9.000000
1.570000	59.370000	35.530000	0.000000	0.000000	316.000000	56.000000	16.000000	9.000000
1.580000	59.520000	35.610000	0.000000	0.000000	318.000000	57.000000	15.000000	8.000000
1.590000	59.660000	35.690000	0.000000	0.000000	318.000000	57.000000	14.000000	8.000000
1.600000	59.800000	35.820000	0.000000	0.000000	318.000000	57.000000	14.000000	13.000000
1.610000	59.920000	35.930000	0.000000	0.000000	318.000000	57.000000	12.000000	11.000000
1.620000	60.000000	35.980000	0.000000	0.000000	318.000000	57.000000	8.000000	5.000000
1.630000	60.000000	35.980000	0.000000	0.000000	318.000000	57.000000	0.000000	0.000000
1.640000	60.000000	35.980000	0.000000	0.000000	316.000000	57.000000	0.000000	0.000000
1.650000	60.000000	35.890000	0.000000	0.000000	315.000000	57.000000	0.000000	-9.000000
1.660000	60.000000	35.810000	0.000000	0.000000	315.000000	57.000000	0.000000	-8.000000
1.670000	60.000000	35.760000	0.000000	0.000000	315.000000	57.000000	0.000000	-5.000000
1.680000	60.000000	35.760000	0.000000	0.000000	315.000000	57.000000	0.000000	0.000000
1.690000	60.000000	35.760000	0.000000	0.000000	315.000000	55.000000	0.000000	0.000000
1.700000	59.870000	35.760000	0.000000	0.000000	315.000000	55.000000	-13.000000	0.000000
1.710000	59.940000	35.760000	0.000000	0.000000	315.000000	55.000000	7.000000	0.000000
1.720000	59.940000	35.760000	0.000000	0.000000	315.000000	55.000000	0.000000	0.000000
1.730000	59.940000	35.760000	0.000000	0.000000	315.000000	55.000000	0.000000	0.000000
1.740000	59.940000	35.850000	0.000000	0.000000	315.000000	55.000000	0.000000	9.000000
1.750000	60.030000	35.930000	0.000000	0.000000	315.000000	55.000000	9.000000	8.000000
1.760000	60.090000	36.010000	0.000000	0.000000	315.000000	55.000000	6.000000	8.000000
1.770000	60.140000	36.090000	0.000000	0.000000	315.000000	55.000000	5.000000	8.000000
1.780000	60.140000	36.170000	0.000000	0.000000	315.000000	55.000000	0.000000	8.000000
1.790000	60.220000	36.220000	0.000000	0.000000	315.000000	55.000000	8.000000	5.000000
1.800000	60.220000	36.220000	0.000000	0.000000	315.000000	55.000000	0.000000	0.000000
1.810000	60.310000	36.300000	0.000000	0.000000	314.000000	56.000000	9.000000	8.000000
1.820000	60.310000	36.300000	0.000000	0.000000	314.000000	56.000000	0.000000	0.000000
1.830000	60.380000	36.300000	0.000000	0.000000	314.000000	56.000000	7.000000	0.000000
1.840000	60.380000	36.300000	0.000000	0.000000	314.000000	56.000000	0.000000	0.000000
1.850000	60.440000	36.300000	0.000000	0.000000	312.000000	55.000000	6.000000	0.000000
1.860000	60.440000	36.300000	0.000000	0.000000	312.000000	55.000000	0.000000	0.000000
1.870000	60.440000	36.300000	0.000000	0.000000	312.000000	55.000000	0.000000	0.000000
1.880000	60.440000	36.300000	0.000000	0.000000	312.000000	55.000000	0.000000	0.000000
1.890000	60.440000	36.300000	0.000000	0.000000	312.000000	55.000000	0.000000	0.000000
1.900000	60.440000	36.350000	0.000000	0.000000	312.000000	55.000000	0.000000	5.000000
1.910000	60.380000	36.350000	0.000000	0.000000	312.000000	55.000000	-6.000000	0.000000
1.920000	60.380000	36.350000	0.000000	0.000000	311.000000	56.000000	0.000000	0.000000
1.930000	60.440000	36.410000	0.000000	0.000000	311.000000	56.000000	6.000000	6.000000
1.940000	60.440000	36.410000	0.000000	0.000000	311.000000	56.000000	0.000000	0.000000
1.950000	60.490000	36.410000	0.000000	0.000000	311.000000	56.000000	5.000000	0.000000
1.960000	60.490000	36.410000	0.000000	0.000000	311.000000	56.000000	0.000000	0.000000
1.970000	60.490000	36.410000	0.000000	0.000000	311.000000	56.000000	0.000000	0.000000
1.980000	60.490000	36.410000	0.000000	0.000000	311.000000	56.000000	0.000000	0.000000
1.990000	60.490000	36.410000	0.000000	0.000000	311.000000	56.000000	0.000000	0.000000
2.000000	60.490000	36.410000	0.000000	0.000000	311.000000	56.000000	0.000000	0.000000
2.010000	60.440000	36.410000	0.000000	0.000000	311.000000	56.000000	-5.000000	0.000000
2.020000	60.440000	36.410000	0.000000	0.000000	311.000000	56.000000	0.000000	0.000000
2.030000	60.520000	36.410000	0.000000	0.000000	311.000000	56.000000	8.000000	0.000000
2.040000	60.520000	36.410000	0.000000	0.000000	312.000000	57.000000	0.000000	0.000000
2.050000	60.520000	36.410000	0.000000	0.000000	312.000000	57.000000	0.000000	0.000000
2.060000	60.520000	36.410000	0.000000	0.000000	312.000000	57.000000	0.000000	0.000000
2.070000	60.520000	36.340000	0.000000	0.000000	312.000000	57.000000	0.000000	-7.000000
2.080000	60.520000	36.340000	0.000000	0.000000	311.000000	56.000000	0.000000	0.000000
2.090000	60.520000	36.340000	0.000000	0.000000	311.000000	56.000000	0.000000	0.000000
2.100000	60.520000	36.340000	0.000000	0.000000	311.000000	56.000000	0.000000	0.000000
2.110000	60.520000	36.340000	0.000000	0.000000	311.000000	56.000000	0.000000	0.000000
2.120000	60.520000	36.340000	0.000000	0.000000	311.000000	56.000000	0.000000	0.000000
2.130000	60.570000	36.340000	0.000000	0.000000	311.000000	56.000000	5.000000	0.000000
2.140000	60.570000	36.390000	0.000000	0.000000	311.000000	56.000000	0.000000	5.000000
2.150000	60.570000	36.390000	0.000000	0.000000	311.000000	56.000000	0.000000	0.000000
2.160000	60.570000	36.390000	0.000000	0.000000	311.000000	56.000000	0.000000	0.000000
2.170000	60.570000	36.390000	0.000000	0.000000	311.000000	56.000000	0.000000	0.000000
2.180000	60.570000	36.390000	0.000000	0.000000	311.000000	56.000000	0.000000	0.000000
2.190000	60.520000	36.310000	0.000000	0.000000	311.000000	56.000000	-5.000000	-8.000000
2.200000	60.520000	36.310000	0.000000	0.000000	311.000000	56.000000	0.000000	0.000000
2.210000	60.520000	36.310000	0.000000	0.000000	311.000000	56.000000	0.000000	0.000000
2.220000	60.570000	36.310000	0.000000	0.000000	311.000000	56.000000	5.000000	0.000000
2.230000	60.570000	36.310000	0.000000	0.000000	311.000000	56.000000	0.000000	0.000000
2.240000	60.570000	36.310000	0.000000	0.000000	311.000000	56.000000	0.000000	0.000000
