t	x	y	pressure	penup	azimuth	inclination	v_x	v_y
0.000000	11.880000	46.920000	225.000000	1.000000	331.000000	63.000000	0.000000	0.000000
0.010000	11.880000	46.920000	274.000000	0.000000	329.000000	63.000000	0.000000	0.000000
0.020000	11.630000	46.520000	314.000000	0.000000	329.000000	63.000000	-25.000000	-40.000000
0.030000	11.580000	46.350000	394.000000	0.000000	327.000000	62.000000	-5.000000	-17.000000
0.040000	11.630000	46.350000	443.000000	0.000000	326.000000	62.000000	5.000000	0.000000
0.050000	11.720000	46.440000	445.000000	0.000000	324.000000	60.000000	9.000000	9.000000
0.060000	11.840000	46.600000	463.000000	0.000000	322.000000	59.000000	12.000000	16.000000
0.070000	12.230000	47.060000	472.000000	0.000000	321.000000	59.000000	39.000000	46.000000
0.080000	12.780000	47.720000	470.000000	0.000000	321.000000	59.000000	55.000000	66.000000
0.090000	13.440000	48.550000	467.000000	0.000000	321.000000	59.000000	66.000000	83.000000
0.100000	14.000000	49.380000	464.000000	0.000000	322.000000	59.000000	56.000000	83.000000
0.110000	14.560000	50.210000	465.000000	0.000000	321.000000	60.000000	56.000000	83.000000
0.120000	15.040000	50.950000	452.000000	0.000000	322.000000	61.000000	48.000000	74.000000
0.130000	15.460000	51.620000	450.000000	0.000000	322.000000	61.000000	42.000000	67.000000
0.140000	15.740000	52.230000	453.000000	0.000000	322.000000	61.000000	28.000000	61.000000
0.150000	15.970000	52.670000	452.000000	0.000000	322.000000	61.000000	23.000000	44.000000
0.160000	16.110000	52.990000	453.000000	0.000000	322.000000	61.000000	14.000000	32.000000
0.170000	16.190000	53.170000	464.000000	0.000000	322.000000	61.000000	8.000000	18.000000
0.180000	16.190000	53.170000	493.000000	0.000000	322.000000	61.000000	0.000000	0.000000
0.190000	16.190000	53.170000	505.000000	0.000000	321.000000	60.000000	0.000000	0.000000
0.200000	16.080000	52.930000	514.000000	0.000000	322.000000	59.000000	-11.000000	-24.000000
0.210000	15.870000	52.490000	519.000000	0.000000	321.000000	59.000000	-21.000000	-44.000000
0.220000	15.580000	51.880000	527.000000	0.000000	319.000000	58.000000	-29.000000	-61.000000
0.230000	15.280000	51.240000	543.000000	0.000000	319.000000	58.000000	-30.000000	-64.000000
0.240000	15.040000	50.700000	561.000000	0.000000	318.000000	58.000000	-24.000000	-54.000000
0.250000	14.940000	50.380000	567.000000	0.000000	316.000000	58.000000	-10.000000	-32.000000
0.260000	14.940000	50.180000	561.000000	0.000000	315.000000	58.000000	0.000000	-20.000000
0.270000	14.940000	50.060000	569.000000	0.000000	315.000000	58.000000	0.000000	-12.000000
0.280000	14.940000	49.990000	565.000000	0.000000	315.000000	58.000000	0.000000	-7.000000
0.290000	15.100000	49.990000	546.000000	0.000000	314.000000	57.000000	16.000000	0.000000
0.300000	15.470000	50.230000	546.000000	0.000000	314.000000	57.000000	37.000000	24.000000
0.310000	15.920000	50.560000	526.000000	0.000000	314.000000	57.000000	45.000000	33.000000
0.320000	16.430000	51.100000	491.000000	0.000000	314.000000	57.000000	51.000000	54.000000
0.330000	17.000000	51.770000	495.000000	0.000000	314.000000	57.000000	57.000000	67.000000
0.340000	17.460000	52.530000	493.000000	0.000000	312.000000	57.000000	46.000000	76.000000
0.350000	17.730000	53.120000	485.000000	0.000000	312.000000	57.000000	27.000000	59.000000
0.360000	17.930000	53.470000	480.000000	0.000000	312.000000	55.000000	20.000000	35.000000
0.370000	18.000000	53.670000	477.000000	0.000000	312.000000	55.000000	7.000000	20.000000
0.380000	18.000000	53.670000	490.000000	0.000000	311.000000	55.000000	0.000000	0.000000
0.390000	17.920000	53.550000	493.000000	0.000000	311.000000	55.000000	-8.000000	-12.000000
0.400000	17.830000	53.360000	491.000000	0.000000	313.000000	54.000000	-9.000000	-19.000000
0.410000	17.610000	53.010000	488.000000	0.000000	311.000000	54.000000	-22.000000	-35.000000
0.420000	17.320000	52.550000	489.000000	0.000000	311.000000	54.000000	-29.000000	-46.000000
0.430000	17.010000	52.010000	499.000000	0.000000	311.000000	54.000000	-31.000000	-54.000000
0.440000	16.710000	51.310000	517.000000	0.000000	313.000000	54.000000	-30.000000	-70.000000
0.450000	16.470000	50.650000	519.000000	0.000000	311.000000	55.000000	-24.000000	-66.000000
0.460000	16.270000	50.180000	519.000000	0.000000	311.000000	55.000000	-20.000000	-47.000000
0.470000	16.270000	49.840000	518.000000	0.000000	312.000000	55.000000	0.000000	-34.000000
0.480000	16.340000	49.670000	512.000000	0.000000	311.000000	56.000000	7.000000	-17.000000
0.490000	16.420000	49.670000	509.000000	0.000000	311.000000	56.000000	8.000000	0.000000
0.500000	16.580000	49.670000	488.000000	0.000000	311.000000	56.000000	16.000000	0.000000
0.510000	16.800000	49.860000	423.000000	0.000000	311.000000	56.000000	22.000000	19.000000
0.520000	17.060000	50.040000	269.000000	0.000000	310.000000	56.000000	26.000000	18.000000
0.530000	17.060000	50.040000	0.000000	1.000000	310.000000	56.000000	0.000000	0.000000
0.540000	17.320000	50.320000	0.000000	0.000000	310.000000	56.000000	26.000000	28.000000
0.550000	17.320000	50.270000	0.000000	0.000000	310.000000	56.000000	0.000000	-5.000000
0.560000	17.320000	50.080000	0.000000	0.000000	310.000000	56.000000	0.000000	-19.000000
0.570000	17.320000	49.830000	0.000000	0.000000	311.000000	56.000000	0.000000	-25.000000
0.580000	17.240000	49.530000	0.000000	0.000000	312.000000	57.000000	-8.000000	-30.000000
0.590000	17.180000	49.300000	0.000000	0.000000	314.000000	56.000000	-6.000000	-23.000000
0.600000	17.110000	49.200000	0.000000	0.000000	314.000000	56.000000	-7.000000	-10.000000
0.610000	17.040000	49.200000	0.000000	0.000000	316.000000	56.000000	-7.000000	0.000000
0.620000	16.900000	49.250000	0.000000	0.000000	319.000000	56.000000	-14.000000	5.000000
0.630000	16.770000	49.320000	0.000000	0.000000	319.000000	56.000000	-13.000000	7.000000
0.640000	16.640000	49.320000	0.000000	0.000000	320.000000	55.000000	-13.000000	0.000000
0.650000	16.580000	49.320000	0.000000	0.000000	320.000000	55.000000	-6.000000	0.000000
0.660000	16.580000	49.230000	0.000000	0.000000	320.000000	55.000000	0.000000	-9.000000
0.670000	16.580000	49.230000	0.000000	0.000000	320.000000	55.000000	0.000000	0.000000
0.680000	16.660000	49.230000	0.000000	0.000000	320.000000	55.000000	8.000000	0.000000
0.690000	16.730000	49.320000	0.000000	0.000000	320.000000	55.000000	7.000000	9.000000
0.700000	16.730000	49.390000	0.000000	0.000000	319.000000	55.000000	0.000000	7.000000
0.710000	16.730000	49.470000	0.000000	0.000000	319.000000	55.000000	0.000000	8.000000
0.720000	16.730000	49.560000	0.000000	0.000000	319.000000	55.000000	0.000000	9.000000
0.730000	16.730000	49.680000	0.000000	0.000000	319.000000	55.000000	0.000000	12.000000
0.740000	16.680000	49.830000	0.000000	0.000000	319.000000	55.000000	-5.000000	15.000000
0.750000	16.680000	49.970000	0.000000	0.000000	318.000000	55.000000	0.000000	14.000000
0.760000	16.680000	50.120000	0.000000	0.000000	318.000000	55.000000	0.000000	15.000000
0.770000	16.750000	50.190000	0.000000	0.000000	318.000000	55.000000	7.000000	7.000000
0.780000	16.750000	50.190000	0.000000	0.000000	318.000000	55.000000	0.000000	0.000000
0.790000	16.830000	50.190000	0.000000	0.000000	318.000000	55.000000	8.000000	0.000000
0.800000	16.830000	50.120000	0.000000	0.000000	316.000000	55.000000	0.000000	-7.000000
0.810000	16.910000	50.070000	0.000000	0.000000	315.000000	55.000000	8.000000	-5.000000
0.820000	16.910000	50.070000	0.000000	0.000000	315.000000	55.000000	0.000000	0.000000
0.830000	16.960000	50.020000	0.000000	0.000000	315.000000	55.000000	5.000000	-5.000000
0.840000	16.960000	50.020000	0.000000	0.000000	315.000000	55.000000	0.000000	0.000000
0.850000	16.960000	50.020000	0.000000	0.000000	315.000000	55.000000	0.000000	0.000000
0.860000	16.960000	49.970000	0.000000	0.000000	315.000000	55.000000	0.000000	-5.000000
0.870000	16.960000	49.910000	0.000000	0.000000	315.000000	55.000000	0.000000	-6.000000
0.880000	16.960000	49.840000	0.000000	0.000000	315.000000	55.000000	0.000000	-7.000000
0.890000	16.910000	49.770000	0.000000	0.000000	315.000000	55.000000	-5.000000	-7.000000
0.900000	16.910000	49.770000	0.000000	0.000000	315.000000	55.000000	0.000000	0.000000
0.910000	16.980000	49.820000	0.000000	0.000000	315.000000	55.000000	7.000000	5.000000
0.920000	16.980000	49.900000	0.000000	0.000000	315.000000	55.000000	0.000000	8.000000
0.930000	17.120000	49.990000	0.000000	0.000000	315.000000	55.000000	14.000000	9.000000
0.940000	17.270000	50.090000	0.000000	0.000000	315.000000	55.000000	15.000000	10.000000
0.950000	17.400000	50.200000	0.000000	0.000000	316.000000	56.000000	13.000000	11.000000
0.960000	17.510000	50.300000	0.000000	0.000000	316.000000	56.000000	11.000000	10.000000
0.970000	17.580000	50.390000	0.000000	0.000000	316.000000	56.000000	7.000000	9.000000
0.980000	17.650000	50.510000	0.000000	0.000000	316.000000	56.000000	7.000000	12.000000
0.990000	17.720000	50.590000	0.000000	0.000000	316.000000	56.000000	7.000000	8.000000
1.000000	17.780000	50.640000	0.000000	0.000000	316.000000	56.000000	6.000000	5.000000
1.010000	17.780000	50.640000	0.000000	0.000000	316.000000	56.000000	0.000000	0.000000
1.020000	17.780000	50.640000	0.000000	0.000000	315.000000	57.000000	0.000000	0.000000
1.030000	17.780000	50.640000	0.000000	0.000000	315.000000	57.000000	0.000000	0.000000
1.040000	17.780000	50.640000	0.000000	0.000000	315.000000	57.000000	0.000000	0.000000
1.050000	18.040000	50.900000	0.000000	0.000000	315.000000	57.000000	26.000000	26.000000
1.060000	18.040000	50.900000	0.000000	0.000000	315.000000	57.000000	0.000000	0.000000
1.070000	18.040000	50.960000	0.000000	0.000000	315.000000	57.000000	0.000000	6.000000
1.080000	18.040000	50.960000	0.000000	0.000000	315.000000	57.000000	0.000000	0.000000
1.090000	18.040000	51.020000	0.000000	0.000000	315.000000	57.000000	0.000000	6.000000
1.100000	18.040000	51.020000	0.000000	0.000000	315.000000	57.000000	0.000000	0.000000
1.110000	18.090000	51.100000	0.000000	0.000000	315.000000	57.000000	5.000000	8.000000
1.120000	18.090000	51.100000	0.000000	0.000000	314.000000	56.000000	0.000000	0.000000
1.130000	18.150000	51.170000	0.000000	0.000000	314.000000	56.000000	6.000000	7.000000
1.140000	18.150000	51.250000	0.000000	0.000000	314.000000	56.000000	0.000000	8.000000
1.150000	18.240000	51.310000	0.000000	0.000000	314.000000	56.000000	9.000000	6.000000
1.160000	18.300000	51.310000	0.000000	0.000000	312.000000	55.000000	6.000000	0.000000
1.170000	18.350000	51.390000	0.000000	0.000000	312.000000	55.000000	5.000000	8.000000
1.180000	18.350000	51.450000	0.000000	0.000000	312.000000	55.000000	0.000000	6.000000
1.190000	18.460000	51.530000	0.000000	0.000000	311.000000	55.000000	11.000000	8.000000
1.200000	18.460000	51.530000	32.000000	1.000000	311.000000	55.000000	0.000000	0.000000
1.210000	18.460000	51.530000	75.000000	0.000000	311.000000	55.000000	0.000000	0.000000
1.220000	18.460000	51.530000	117.000000	0.000000	310.000000	54.000000	0.000000	0.000000
1.230000	18.680000	51.850000	180.000000	0.000000	310.000000	54.000000	22.000000	32.000000
1.240000	18.740000	51.930000	246.000000	0.000000	310.000000	54.000000	6.000000	8.000000
1.250000	18.740000	51.930000	287.000000	0.000000	310.000000	54.000000	0.000000	0.000000
1.260000	18.740000	51.930000	329.000000	0.000000	310.000000	54.000000	0.000000	0.000000
1.270000	18.670000	51.850000	340.000000	0.000000	310.000000	54.000000	-7.000000	-8.000000
1.280000	18.520000	51.650000	341.000000	0.000000	310.000000	54.000000	-15.000000	-20.000000
1.290000	18.290000	51.380000	344.000000	0.000000	310.000000	54.000000	-23.000000	-27.000000
1.300000	18.010000	51.040000	349.000000	0.000000	310.000000	54.000000	-28.000000	-34.000000
1.310000	17.730000	50.740000	368.000000	0.000000	309.000000	55.000000	-28.000000	-30.000000
1.320000	17.510000	50.520000	389.000000	0.000000	309.000000	55.000000	-22.000000	-22.000000
1.330000	17.320000	50.340000	412.000000	0.000000	309.000000	55.000000	-19.000000	-18.000000
1.340000	17.210000	50.220000	414.000000	0.000000	309.000000	55.000000	-11.000000	-12.000000
1.350000	17.210000	50.220000	422.000000	0.000000	309.000000	55.000000	0.000000	0.000000
1.360000	17.210000	50.290000	415.000000	0.000000	309.000000	55.000000	0.000000	7.000000
1.370000	17.370000	50.450000	402.000000	0.000000	307.000000	55.000000	16.000000	16.000000
1.380000	17.630000	50.700000	396.000000	0.000000	307.000000	55.000000	26.000000	25.000000
1.390000	17.970000	51.100000	389.000000	0.000000	307.000000	55.000000	34.000000	40.000000
1.400000	18.210000	51.590000	389.000000	0.000000	307.000000	55.000000	24.000000	49.000000
1.410000	18.400000	52.060000	393.000000	0.000000	309.000000	55.000000	19.000000	47.000000
1.420000	18.510000	52.290000	394.000000	0.000000	309.000000	55.000000	11.000000	23.000000
1.430000	18.510000	52.290000	400.000000	0.000000	309.000000	55.000000	0.000000	0.000000
1.440000	18.510000	52.290000	412.000000	0.000000	309.000000	55.000000	0.000000	0.000000
1.450000	18.510000	52.290000	415.000000	0.000000	309.000000	55.000000	0.000000	0.000000
1.460000	18.510000	52.290000	418.000000	0.000000	309.000000	55.000000	0.000000	0.000000
1.470000	18.480000	51.850000	425.000000	0.000000	310.000000	54.000000	-3.000000	-44.000000
1.480000	18.480000	51.570000	425.000000	0.000000	310.000000	54.000000	0.000000	-28.000000
1.490000	18.480000	51.250000	425.000000	0.000000	310.000000	54.000000	0.000000	-32.000000
1.500000	18.480000	51.000000	415.000000	0.000000	309.000000	55.000000	0.000000	-25.000000
1.510000	18.540000	50.780000	407.000000	0.000000	309.000000	55.000000	6.000000	-22.000000
1.520000	18.630000	50.610000	407.000000	0.000000	309.000000	55.000000	9.000000	-17.000000
1.530000	18.740000	50.490000	394.000000	0.000000	309.000000	55.000000	11.000000	-12.000000
1.540000	18.740000	50.430000	387.000000	0.000000	309.000000	55.000000	0.000000	-6.000000
1.550000	18.740000	50.380000	379.000000	0.000000	309.000000	55.000000	0.000000	-5.000000
1.560000	18.690000	50.380000	376.000000	0.000000	307.000000	55.000000	-5.000000	0.000000
1.570000	18.470000	50.320000	369.000000	0.000000	306.000000	54.000000	-22.000000	-6.000000
1.580000	18.150000	50.320000	367.000000	0.000000	307.000000	55.000000	-32.000000	0.000000
1.590000	17.790000	50.320000	364.000000	0.000000	307.000000	55.000000	-36.000000	0.000000
1.600000	17.470000	50.320000	302.000000	0.000000	307.000000	55.000000	-32.000000	0.000000
1.610000	17.180000	50.320000	226.000000	0.000000	307.000000	55.000000	-29.000000	0.000000
1.620000	17.180000	50.320000	0.000000	1.000000	309.000000	56.000000	0.000000	0.000000
1.630000	16.920000	50.030000	0.000000	0.000000	309.000000	56.000000	-26.000000	-29.000000
1.640000	16.920000	49.850000	0.000000	0.000000	309.000000	56.000000	0.000000	-18.000000
1.650000	17.140000	49.650000	0.000000	0.000000	310.000000	56.000000	22.000000	-20.000000
1.660000	17.430000	49.480000	0.000000	0.000000	312.000000	57.000000	29.000000	-17.000000
1.670000	17.750000	49.330000	0.000000	0.000000	312.000000	57.000000	32.000000	-15.000000
1.680000	18.030000	49.230000	0.000000	0.000000	314.000000	57.000000	28.000000	-10.000000
1.690000	18.030000	49.230000	0.000000	0.000000	314.000000	57.000000	0.000000	0.000000
1.700000	18.320000	49.040000	0.000000	0.000000	316.000000	57.000000	29.000000	-19.000000
1.710000	18.320000	48.900000	0.000000	0.000000	316.000000	57.000000	0.000000	-14.000000
1.720000	18.200000	48.750000	0.000000	0.000000	318.000000	57.000000	-12.000000	-15.000000
1.730000	18.100000	48.580000	0.000000	0.000000	316.000000	56.000000	-10.000000	-17.000000
1.740000	17.990000	48.430000	0.000000	0.000000	316.000000	56.000000	-11.000000	-15.000000
1.750000	17.900000	48.320000	0.000000	0.000000	318.000000	55.000000	-9.000000	-11.000000
1.760000	17.800000	48.250000	0.000000	0.000000	316.000000	56.000000	-10.000000	-7.000000
1.770000	17.730000	48.250000	0.000000	0.000000	316.000000	56.000000	-7.000000	0.000000
1.780000	17.680000	48.160000	0.000000	0.000000	318.000000	57.000000	-5.000000	-9.000000
1.790000	17.620000	48.160000	0.000000	0.000000	318.000000	57.000000	-6.000000	0.000000
1.800000	17.560000	48.080000	0.000000	0.000000	318.000000	57.000000	-6.000000	-8.000000
1.810000	17.560000	48.080000	0.000000	0.000000	316.000000	57.000000	0.000000	0.000000
1.820000	17.490000	48.180000	0.000000	0.000000	316.000000	57.000000	-7.000000	10.000000
1.830000	17.490000	48.350000	0.000000	0.000000	315.000000	57.000000	0.000000	17.000000
1.840000	17.490000	48.350000	78.000000	1.000000	315.000000	57.000000	0.000000	0.000000
1.850000	17.640000	48.730000	91.000000	0.000000	314.000000	56.000000	15.000000	38.000000
1.860000	17.730000	48.810000	168.000000	0.000000	314.000000	56.000000	9.000000	8.000000
1.870000	17.780000	48.810000	256.000000	0.000000	312.000000	55.000000	5.000000	0.000000
1.880000	17.780000	48.760000	301.000000	0.000000	312.000000	55.000000	0.000000	-5.000000
1.890000	17.710000	48.670000	314.000000	0.000000	311.000000	55.000000	-7.000000	-9.000000
1.900000	17.600000	48.460000	335.000000	0.000000	311.000000	55.000000	-11.000000	-21.000000
1.910000	17.400000	48.180000	356.000000	0.000000	311.000000	55.000000	-20.000000	-28.000000
1.920000	17.220000	47.960000	367.000000	0.000000	311.000000	55.000000	-18.000000	-22.000000
1.930000	17.050000	47.780000	396.000000	0.000000	311.000000	55.000000	-17.000000	-18.000000
1.940000	16.880000	47.780000	387.000000	0.000000	311.000000	55.000000	-17.000000	0.000000
1.950000	16.830000	47.780000	387.000000	0.000000	314.000000	55.000000	-5.000000	0.000000
1.960000	16.830000	47.940000	387.000000	0.000000	315.000000	55.000000	0.000000	16.000000
1.970000	16.990000	48.160000	391.000000	0.000000	315.000000	55.000000	16.000000	22.000000
1.980000	17.260000	48.490000	387.000000	0.000000	315.000000	55.000000	27.000000	33.000000
1.990000	17.610000	48.780000	386.000000	0.000000	315.000000	55.000000	35.000000	29.000000
2.000000	17.990000	49.050000	389.000000	0.000000	315.000000	55.000000	38.000000	27.000000
2.010000	18.350000	49.210000	398.000000	0.000000	312.000000	55.000000	36.000000	16.000000
2.020000	18.730000	49.390000	399.000000	0.000000	312.000000	55.000000	38.000000	18.000000
2.030000	19.130000	49.390000	397.000000	0.000000	311.000000	55.000000	40.000000	0.000000
2.040000	19.300000	49.390000	405.000000	0.000000	310.000000	55.000000	17.000000	0.000000
2.050000	19.300000	49.190000	404.000000	0.000000	309.000000	55.000000	0.000000	-20.000000
2.060000	19.150000	48.950000	405.000000	0.000000	309.000000	55.000000	-15.000000	-24.000000
2.070000	18.840000	48.670000	404.000000	0.000000	309.000000	55.000000	-31.000000	-28.000000
2.080000	18.500000	48.360000	397.000000	0.000000	308.000000	54.000000	-34.000000	-31.000000
2.090000	18.150000	48.070000	388.000000	0.000000	308.000000	54.000000	-35.000000	-29.000000
2.100000	17.810000	47.800000	379.000000	0.000000	309.000000	53.000000	-34.000000	-27.000000
2.110000	17.590000	47.600000	317.000000	0.000000	309.000000	53.000000	-22.000000	-20.000000
2.120000	17.430000	47.440000	245.000000	0.000000	310.000000	53.000000	-16.000000	-16.000000
2.130000	17.430000	47.380000	163.000000	0.000000	311.000000	54.000000	0.000000	-6.000000
2.140000	17.490000	47.380000	89.000000	0.000000	311.000000	54.000000	6.000000	0.000000
2.150000	17.490000	47.380000	0.000000	1.000000	313.000000	53.000000	0.000000	0.000000
2.160000	18.020000	47.780000	0.000000	0.000000	313.000000	53.000000	53.000000	40.000000
2.170000	18.400000	48.100000	0.000000	0.000000	313.000000	53.000000	38.000000	32.000000
2.180000	18.810000	48.400000	0.000000	0.000000	313.000000	53.000000	41.000000	30.000000
2.190000	18.810000	48.400000	27.000000	1.000000	311.000000	54.000000	0.000000	0.000000
2.200000	19.340000	48.810000	105.000000	0.000000	311.000000	54.000000	53.000000	41.000000
2.210000	19.340000	48.870000	181.000000	0.000000	311.000000	54.000000	0.000000	6.000000
2.220000	19.340000	48.810000	244.000000	0.000000	311.000000	54.000000	0.000000	-6.000000
2.230000	19.250000	48.700000	277.000000	0.000000	309.000000	53.000000	-9.000000	-11.000000
