t	x	y	pressure	penup	azimuth	inclination	v_x	v_y
0.000000	13.240000	62.300000	146.000000	1.000000	103.000000	61.000000	0.000000	0.000000
0.010000	13.480000	61.850000	285.000000	0.000000	102.000000	60.000000	24.000000	-45.000000
0.020000	13.540000	61.780000	299.000000	0.000000	102.000000	60.000000	6.000000	-7.000000
0.030000	13.540000	61.840000	367.000000	0.000000	104.000000	59.000000	0.000000	6.000000
0.040000	13.540000	62.000000	465.000000	0.000000	103.000000	58.000000	0.000000	16.000000
0.050000	13.600000	62.340000	521.000000	0.000000	103.000000	57.000000	6.000000	34.000000
0.060000	13.600000	62.920000	561.000000	0.000000	103.000000	57.000000	0.000000	58.000000
0.070000	13.600000	63.670000	580.000000	0.000000	101.000000	57.000000	0.000000	75.000000
0.080000	13.550000	64.380000	589.000000	0.000000	101.000000	57.000000	-5.000000	71.000000
0.090000	13.420000	65.060000	583.000000	0.000000	99.000000	57.000000	-13.000000	68.000000
0.100000	13.230000	65.680000	569.000000	0.000000	97.000000	56.000000	-19.000000	62.000000
0.110000	12.970000	66.180000	562.000000	0.000000	97.000000	56.000000	-26.000000	50.000000
0.120000	12.650000	66.420000	559.000000	0.000000	96.000000	56.000000	-32.000000	24.000000
0.130000	12.360000	66.480000	537.000000	0.000000	94.000000	56.000000	-29.000000	6.000000
0.140000	12.080000	66.480000	529.000000	0.000000	93.000000	56.000000	-28.000000	0.000000
0.150000	11.960000	66.380000	515.000000	0.000000	91.000000	56.000000	-12.000000	-10.000000
0.160000	11.960000	66.300000	491.000000	0.000000	91.000000	56.000000	0.000000	-8.000000
0.170000	11.960000	66.300000	496.000000	0.000000	91.000000	55.000000	0.000000	0.000000
0.180000	12.190000	66.250000	491.000000	0.000000	91.000000	55.000000	23.000000	-5.000000
0.190000	12.540000	66.330000	499.000000	0.000000	91.000000	55.000000	35.000000	8.000000
0.200000	12.960000	66.590000	514.000000	0.000000	91.000000	54.000000	42.000000	26.000000
0.210000	13.380000	66.970000	518.000000	0.000000	91.000000	54.000000	42.000000	38.000000
0.220000	13.680000	67.370000	532.000000	0.000000	91.000000	55.000000	30.000000	40.000000
0.230000	13.890000	67.740000	546.000000	0.000000	93.000000	55.000000	21.000000	37.000000
0.240000	14.000000	68.030000	566.000000	0.000000	93.000000	55.000000	11.000000	29.000000
0.250000	14.000000	68.230000	570.000000	0.000000	93.000000	56.000000	0.000000	20.000000
0.260000	13.840000	68.480000	578.000000	0.000000	94.000000	56.000000	-16.000000	25.000000
0.270000	13.750000	68.760000	572.000000	0.000000	94.000000	56.000000	-9.000000	28.000000
0.280000	13.660000	68.910000	567.000000	0.000000	96.000000	56.000000	-9.000000	15.000000
0.290000	13.600000	68.910000	551.000000	0.000000	96.000000	56.000000	-6.000000	0.000000
0.300000	13.600000	68.750000	550.000000	0.000000	97.000000	56.000000	0.000000	-16.000000
0.310000	13.740000	68.240000	540.000000	0.000000	97.000000	56.000000	14.000000	-51.000000
0.320000	13.920000	67.490000	545.000000	0.000000	97.000000	56.000000	18.000000	-75.000000
0.330000	14.150000	66.580000	545.000000	0.000000	96.000000	56.000000	23.000000	-91.000000
0.340000	14.400000	65.860000	542.000000	0.000000	96.000000	57.000000	25.000000	-72.000000
0.350000	14.660000	65.300000	535.000000	0.000000	96.000000	57.000000	26.000000	-56.000000
0.360000	14.830000	64.850000	510.000000	0.000000	95.000000	57.000000	17.000000	-45.000000
0.370000	14.940000	64.750000	491.000000	0.000000	95.000000	57.000000	11.000000	-10.000000
0.380000	15.020000	64.960000	440.000000	0.000000	93.000000	57.000000	8.000000	21.000000
0.390000	15.020000	65.370000	314.000000	0.000000	93.000000	58.000000	0.000000	41.000000
0.400000	14.940000	66.060000	270.000000	0.000000	93.000000	58.000000	-8.000000	69.000000
0.410000	14.890000	66.760000	247.000000	0.000000	93.000000	58.000000	-5.000000	70.000000
0.420000	14.840000	67.480000	244.000000	0.000000	93.000000	58.000000	-5.000000	72.000000
0.430000	14.840000	68.120000	287.000000	0.000000	93.000000	58.000000	0.000000	64.000000
0.440000	14.840000	68.720000	341.000000	0.000000	93.000000	58.000000	0.000000	60.000000
0.450000	14.840000	69.010000	388.000000	0.000000	95.000000	58.000000	0.000000	29.000000
0.460000	14.840000	69.110000	440.000000	0.000000	95.000000	58.000000	0.000000	10.000000
0.470000	14.790000	69.110000	447.000000	0.000000	96.000000	58.000000	-5.000000	0.000000
0.480000	14.790000	69.110000	452.000000	0.000000	98.000000	58.000000	0.000000	0.000000
0.490000	14.870000	68.970000	440.000000	0.000000	98.000000	58.000000	8.000000	-14.000000
0.500000	14.990000	68.670000	443.000000	0.000000	100.000000	58.000000	12.000000	-30.000000
0.510000	15.110000	68.270000	436.000000	0.000000	100.000000	58.000000	12.000000	-40.000000
0.520000	15.210000	67.900000	440.000000	0.000000	100.000000	58.000000	10.000000	-37.000000
0.530000	15.290000	67.610000	441.000000	0.000000	98.000000	58.000000	8.000000	-29.000000
0.540000	15.290000	67.370000	446.000000	0.000000	98.000000	58.000000	0.000000	-24.000000
0.550000	15.290000	67.320000	445.000000	0.000000	96.000000	58.000000	0.000000	-5.000000
0.560000	15.290000	67.430000	460.000000	0.000000	96.000000	58.000000	0.000000	11.000000
0.570000	15.290000	67.640000	458.000000	0.000000	95.000000	58.000000	0.000000	21.000000
0.580000	15.210000	68.110000	474.000000	0.000000	95.000000	58.000000	-8.000000	47.000000
0.590000	15.140000	68.640000	483.000000	0.000000	95.000000	58.000000	-7.000000	53.000000
0.600000	15.140000	69.200000	519.000000	0.000000	95.000000	58.000000	0.000000	56.000000
0.610000	15.070000	69.670000	537.000000	0.000000	96.000000	58.000000	-7.000000	47.000000
0.620000	15.010000	69.990000	545.000000	0.000000	98.000000	58.000000	-6.000000	32.000000
0.630000	14.930000	70.200000	560.000000	0.000000	100.000000	58.000000	-8.000000	21.000000
0.640000	14.930000	70.270000	567.000000	0.000000	101.000000	58.000000	0.000000	7.000000
0.650000	14.930000	70.320000	567.000000	0.000000	103.000000	57.000000	0.000000	5.000000
0.660000	14.930000	70.320000	562.000000	0.000000	104.000000	57.000000	0.000000	0.000000
0.670000	14.990000	70.160000	564.000000	0.000000	104.000000	57.000000	6.000000	-16.000000
0.680000	15.110000	69.990000	560.000000	0.000000	104.000000	57.000000	12.000000	-17.000000
0.690000	15.250000	69.810000	561.000000	0.000000	106.000000	57.000000	14.000000	-18.000000
0.700000	15.450000	69.500000	561.000000	0.000000	106.000000	57.000000	20.000000	-31.000000
0.710000	15.640000	69.220000	568.000000	0.000000	106.000000	57.000000	19.000000	-28.000000
0.720000	15.820000	68.970000	522.000000	0.000000	104.000000	57.000000	18.000000	-25.000000
0.730000	15.980000	68.830000	438.000000	0.000000	104.000000	57.000000	16.000000	-14.000000
0.740000	15.980000	68.830000	98.000000	0.000000	103.000000	57.000000	0.000000	0.000000
0.750000	15.980000	68.830000	0.000000	1.000000	103.000000	57.000000	0.000000	0.000000
0.760000	15.870000	69.070000	0.000000	0.000000	102.000000	56.000000	-11.000000	24.000000
0.770000	15.570000	69.280000	0.000000	0.000000	101.000000	57.000000	-30.000000	21.000000
0.780000	15.150000	69.450000	0.000000	0.000000	101.000000	57.000000	-42.000000	17.000000
0.790000	14.850000	69.530000	0.000000	0.000000	101.000000	58.000000	-30.000000	8.000000
0.800000	14.720000	69.530000	0.000000	0.000000	101.000000	58.000000	-13.000000	0.000000
0.810000	14.720000	69.450000	0.000000	0.000000	102.000000	58.000000	0.000000	-8.000000
0.820000	14.720000	69.450000	349.000000	1.000000	102.000000	58.000000	0.000000	0.000000
0.830000	14.720000	69.450000	431.000000	0.000000	104.000000	59.000000	0.000000	0.000000
0.840000	14.720000	69.450000	456.000000	0.000000	104.000000	59.000000	0.000000	0.000000
0.850000	14.720000	69.450000	501.000000	0.000000	104.000000	59.000000	0.000000	0.000000
0.860000	15.120000	69.410000	519.000000	0.000000	104.000000	59.000000	40.000000	-4.000000
0.870000	15.350000	69.610000	415.000000	0.000000	105.000000	59.000000	23.000000	20.000000
0.880000	15.350000	69.610000	0.000000	1.000000	105.000000	59.000000	0.000000	0.000000
0.890000	16.070000	70.350000	0.000000	0.000000	105.000000	58.000000	72.000000	74.000000
0.900000	16.240000	70.660000	0.000000	0.000000	106.000000	57.000000	17.000000	31.000000
0.910000	16.290000	70.950000	0.000000	0.000000	105.000000	56.000000	5.000000	29.000000
0.920000	16.400000	71.240000	0.000000	0.000000	105.000000	56.000000	11.000000	29.000000
0.930000	16.550000	71.590000	0.000000	0.000000	103.000000	55.000000	15.000000	35.000000
0.940000	16.840000	71.980000	0.000000	0.000000	103.000000	54.000000	29.000000	39.000000
0.950000	17.190000	72.370000	0.000000	0.000000	102.000000	52.000000	35.000000	39.000000
0.960000	17.660000	72.730000	0.000000	0.000000	101.000000	50.000000	47.000000	36.000000
0.970000	18.130000	72.920000	0.000000	0.000000	100.000000	48.000000	47.000000	19.000000
0.980000	18.610000	73.020000	0.000000	0.000000	99.000000	46.000000	48.000000	10.000000
0.990000	19.060000	73.020000	0.000000	0.000000	99.000000	45.000000	45.000000	0.000000
1.000000	19.500000	72.970000	0.000000	0.000000	98.000000	43.000000	44.000000	-5.000000
1.010000	19.910000	72.810000	0.000000	0.000000	98.000000	43.000000	41.000000	-16.000000
1.020000	20.130000	72.450000	0.000000	0.000000	98.000000	42.000000	22.000000	-36.000000
1.030000	20.240000	71.980000	0.000000	0.000000	98.000000	43.000000	11.000000	-47.000000
1.040000	20.240000	71.340000	0.000000	0.000000	99.000000	44.000000	0.000000	-64.000000
1.050000	20.320000	70.690000	0.000000	0.000000	99.000000	45.000000	8.000000	-65.000000
1.060000	20.460000	70.040000	0.000000	0.000000	98.000000	46.000000	14.000000	-65.000000
1.070000	19.700000	69.600000	0.000000	0.000000	98.000000	47.000000	-76.000000	-44.000000
1.080000	19.320000	69.290000	0.000000	0.000000	97.000000	48.000000	-38.000000	-31.000000
1.090000	19.200000	69.080000	0.000000	0.000000	96.000000	49.000000	-12.000000	-21.000000
1.100000	18.970000	68.930000	0.000000	0.000000	95.000000	49.000000	-23.000000	-15.000000
1.110000	18.860000	68.810000	0.000000	0.000000	95.000000	50.000000	-11.000000	-12.000000
1.120000	18.860000	68.700000	0.000000	0.000000	95.000000	50.000000	0.000000	-11.000000
1.130000	18.760000	68.570000	0.000000	0.000000	95.000000	51.000000	-10.000000	-13.000000
1.140000	18.670000	68.390000	0.000000	0.000000	95.000000	51.000000	-9.000000	-18.000000
1.150000	18.580000	68.150000	0.000000	0.000000	96.000000	52.000000	-9.000000	-24.000000
1.160000	18.450000	67.890000	0.000000	0.000000	96.000000	52.000000	-13.000000	-26.000000
1.170000	18.320000	67.620000	0.000000	0.000000	98.000000	53.000000	-13.000000	-27.000000
1.180000	18.130000	67.330000	0.000000	0.000000	99.000000	53.000000	-19.000000	-29.000000
1.190000	17.910000	67.030000	0.000000	0.000000	101.000000	53.000000	-22.000000	-30.000000
1.200000	17.670000	66.680000	0.000000	0.000000	101.000000	53.000000	-24.000000	-35.000000
1.210000	17.460000	66.300000	0.000000	0.000000	101.000000	53.000000	-21.000000	-38.000000
1.220000	17.310000	66.140000	0.000000	0.000000	101.000000	54.000000	-15.000000	-16.000000
1.230000	17.310000	66.140000	0.000000	0.000000	101.000000	54.000000	0.000000	0.000000
1.240000	17.310000	66.250000	0.000000	0.000000	101.000000	54.000000	0.000000	11.000000
1.250000	17.440000	66.360000	0.000000	0.000000	100.000000	56.000000	13.000000	11.000000
1.260000	17.520000	66.440000	0.000000	0.000000	101.000000	57.000000	8.000000	8.000000
1.270000	17.590000	66.500000	0.000000	0.000000	101.000000	57.000000	7.000000	6.000000
1.280000	17.590000	66.500000	207.000000	1.000000	100.000000	58.000000	0.000000	0.000000
1.290000	17.590000	66.500000	251.000000	0.000000	100.000000	58.000000	0.000000	0.000000
1.300000	17.510000	66.020000	281.000000	0.000000	100.000000	58.000000	-8.000000	-48.000000
1.310000	17.510000	65.580000	349.000000	0.000000	98.000000	58.000000	0.000000	-44.000000
1.320000	17.510000	65.030000	399.000000	0.000000	98.000000	58.000000	0.000000	-55.000000
1.330000	17.630000	64.670000	405.000000	0.000000	98.000000	58.000000	12.000000	-36.000000
1.340000	17.760000	64.440000	404.000000	0.000000	98.000000	57.000000	13.000000	-23.000000
1.350000	17.850000	64.310000	364.000000	0.000000	98.000000	57.000000	9.000000	-13.000000
1.360000	17.910000	64.310000	250.000000	0.000000	98.000000	57.000000	6.000000	0.000000
1.370000	17.910000	64.310000	0.000000	1.000000	99.000000	56.000000	0.000000	0.000000
1.380000	17.790000	64.610000	0.000000	0.000000	99.000000	56.000000	-12.000000	30.000000
1.390000	17.580000	64.950000	0.000000	0.000000	99.000000	57.000000	-21.000000	34.000000
1.400000	17.230000	65.240000	0.000000	0.000000	99.000000	57.000000	-35.000000	29.000000
1.410000	16.880000	65.450000	0.000000	0.000000	99.000000	57.000000	-35.000000	21.000000
1.420000	16.530000	65.590000	0.000000	0.000000	99.000000	57.000000	-35.000000	14.000000
1.430000	16.310000	65.640000	0.000000	0.000000	99.000000	57.000000	-22.000000	5.000000
1.440000	16.250000	65.640000	0.000000	0.000000	99.000000	57.000000	-6.000000	0.000000
1.450000	16.250000	65.640000	93.000000	1.000000	99.000000	57.000000	0.000000	0.000000
1.460000	16.250000	65.640000	384.000000	0.000000	99.000000	57.000000	0.000000	0.000000
1.470000	16.250000	65.640000	399.000000	0.000000	99.000000	57.000000	0.000000	0.000000
1.480000	16.330000	65.960000	422.000000	0.000000	98.000000	57.000000	8.000000	32.000000
1.490000	16.540000	66.180000	465.000000	0.000000	97.000000	56.000000	21.000000	22.000000
1.500000	16.780000	66.440000	477.000000	0.000000	97.000000	56.000000	24.000000	26.000000
1.510000	17.090000	66.680000	480.000000	0.000000	97.000000	56.000000	31.000000	24.000000
1.520000	17.420000	66.920000	475.000000	0.000000	97.000000	56.000000	33.000000	24.000000
1.530000	17.750000	67.000000	468.000000	0.000000	97.000000	56.000000	33.000000	8.000000
1.540000	18.000000	67.000000	442.000000	0.000000	97.000000	56.000000	25.000000	0.000000
1.550000	18.210000	66.690000	436.000000	0.000000	97.000000	56.000000	21.000000	-31.000000
1.560000	18.590000	66.180000	428.000000	0.000000	97.000000	56.000000	38.000000	-51.000000
1.570000	18.540000	65.530000	418.000000	0.000000	97.000000	56.000000	-5.000000	-65.000000
1.580000	18.200000	64.970000	420.000000	0.000000	97.000000	56.000000	-34.000000	-56.000000
1.590000	18.040000	64.500000	422.000000	0.000000	99.000000	56.000000	-16.000000	-47.000000
1.600000	17.900000	64.090000	402.000000	0.000000	99.000000	56.000000	-14.000000	-41.000000
1.610000	17.790000	64.010000	291.000000	0.000000	99.000000	56.000000	-11.000000	-8.000000
1.620000	17.790000	64.140000	32.000000	0.000000	99.000000	56.000000	0.000000	13.000000
1.630000	17.790000	64.140000	0.000000	1.000000	99.000000	56.000000	0.000000	0.000000
1.640000	17.790000	64.940000	0.000000	0.000000	99.000000	56.000000	0.000000	80.000000
1.650000	17.930000	65.440000	0.000000	0.000000	99.000000	56.000000	14.000000	50.000000
1.660000	18.080000	65.920000	0.000000	0.000000	99.000000	57.000000	15.000000	48.000000
1.670000	18.260000	66.380000	0.000000	0.000000	99.000000	57.000000	18.000000	46.000000
1.680000	18.480000	66.710000	0.000000	0.000000	98.000000	57.000000	22.000000	33.000000
1.690000	18.480000	66.710000	252.000000	1.000000	98.000000	57.000000	0.000000	0.000000
1.700000	18.800000	67.090000	309.000000	0.000000	98.000000	57.000000	32.000000	38.000000
1.710000	18.710000	67.090000	348.000000	0.000000	98.000000	57.000000	-9.000000	0.000000
1.720000	18.710000	67.020000	398.000000	0.000000	98.000000	57.000000	0.000000	-7.000000
1.730000	18.630000	66.790000	431.000000	0.000000	98.000000	57.000000	-8.000000	-23.000000
1.740000	18.630000	66.540000	436.000000	0.000000	98.000000	57.000000	0.000000	-25.000000
1.750000	18.690000	66.270000	441.000000	0.000000	97.000000	56.000000	6.000000	-27.000000
1.760000	18.840000	66.020000	448.000000	0.000000	97.000000	56.000000	15.000000	-25.000000
1.770000	19.050000	65.870000	442.000000	0.000000	97.000000	56.000000	21.000000	-15.000000
1.780000	19.300000	65.800000	452.000000	0.000000	97.000000	55.000000	25.000000	-7.000000
1.790000	19.540000	65.800000	453.000000	0.000000	96.000000	55.000000	24.000000	0.000000
1.800000	19.780000	65.930000	455.000000	0.000000	96.000000	55.000000	24.000000	13.000000
1.810000	19.980000	66.180000	413.000000	0.000000	96.000000	55.000000	20.000000	25.000000
1.820000	20.180000	66.560000	171.000000	0.000000	96.000000	55.000000	20.000000	38.000000
1.830000	20.180000	66.560000	0.000000	1.000000	96.000000	55.000000	0.000000	0.000000
1.840000	20.230000	67.190000	0.000000	0.000000	96.000000	55.000000	5.000000	63.000000
1.850000	19.880000	67.120000	0.000000	0.000000	97.000000	55.000000	-35.000000	-7.000000
1.860000	19.430000	66.830000	0.000000	0.000000	97.000000	55.000000	-45.000000	-29.000000
1.870000	18.900000	66.590000	0.000000	0.000000	97.000000	55.000000	-53.000000	-24.000000
1.880000	18.590000	66.420000	0.000000	0.000000	97.000000	55.000000	-31.000000	-17.000000
1.890000	18.330000	66.310000	0.000000	0.000000	97.000000	55.000000	-26.000000	-11.000000
1.900000	18.220000	66.400000	0.000000	0.000000	97.000000	55.000000	-11.000000	9.000000
1.910000	18.220000	66.470000	0.000000	0.000000	98.000000	54.000000	0.000000	7.000000
1.920000	18.220000	66.540000	0.000000	0.000000	98.000000	54.000000	0.000000	7.000000
1.930000	18.220000	66.540000	0.000000	0.000000	97.000000	55.000000	0.000000	0.000000
1.940000	18.220000	66.540000	252.000000	1.000000	97.000000	55.000000	0.000000	0.000000
1.950000	18.220000	66.540000	279.000000	0.000000	97.000000	55.000000	0.000000	0.000000
1.960000	18.220000	66.540000	364.000000	0.000000	96.000000	55.000000	0.000000	0.000000
1.970000	18.220000	66.540000	466.000000	0.000000	96.000000	56.000000	0.000000	0.000000
1.980000	18.670000	66.900000	472.000000	0.000000	96.000000	56.000000	45.000000	36.000000
1.990000	19.010000	67.200000	455.000000	0.000000	96.000000	56.000000	34.000000	30.000000
2.000000	19.360000	67.570000	343.000000	0.000000	96.000000	56.000000	35.000000	37.000000
2.010000	19.680000	67.870000	170.000000	0.000000	96.000000	56.000000	32.000000	30.000000
2.020000	19.680000	67.870000	0.000000	1.000000	97.000000	56.000000	0.000000	0.000000
2.030000	19.880000	68.250000	0.000000	0.000000	97.000000	56.000000	20.000000	38.000000
2.040000	19.720000	68.250000	0.000000	0.000000	97.000000	55.000000	-16.000000	0.000000
2.050000	19.520000	68.070000	0.000000	0.000000	99.000000	56.000000	-20.000000	-18.000000
2.060000	19.290000	67.870000	0.000000	0.000000	99.000000	56.000000	-23.000000	-20.000000
2.070000	19.290000	67.870000	112.000000	1.000000	99.000000	56.000000	0.000000	0.000000
2.080000	18.890000	67.560000	233.000000	0.000000	99.000000	56.000000	-40.000000	-31.000000
2.090000	18.890000	67.560000	279.000000	0.000000	97.000000	56.000000	0.000000	0.000000
2.100000	18.890000	67.680000	349.000000	0.000000	97.000000	56.000000	0.000000	12.000000
2.110000	18.890000	67.870000	466.000000	0.000000	97.000000	56.000000	0.000000	19.000000
2.120000	19.080000	68.140000	517.000000	0.000000	97.000000	56.000000	19.000000	27.000000
2.130000	19.310000	68.370000	539.000000	0.000000	97.000000	56.000000	23.000000	23.000000
2.140000	19.590000	68.580000	589.000000	0.000000	99.000000	56.000000	28.000000	21.000000
2.150000	19.880000	68.730000	595.000000	0.000000	99.000000	56.000000	29.000000	15.000000
2.160000	20.150000	68.860000	585.000000	0.000000	100.000000	56.000000	27.000000	13.000000
2.170000	20.370000	68.910000	580.000000	0.000000	100.000000	56.000000	22.000000	5.000000
2.180000	20.570000	68.910000	578.000000	0.000000	100.000000	56.000000	20.000000	0.000000
2.190000	20.710000	68.770000	570.000000	0.000000	102.000000	55.000000	14.000000	-14.000000
2.200000	20.790000	68.600000	572.000000	0.000000	102.000000	55.000000	8.000000	-17.000000
2.210000	20.840000	68.360000	575.000000	0.000000	102.000000	55.000000	5.000000	-24.000000
2.220000	20.900000	68.030000	578.000000	0.000000	102.000000	55.000000	6.000000	-33.000000
2.230000	20.950000	67.660000	580.000000	0.000000	100.000000	56.000000	5.000000	-37.000000
2.240000	20.950000	67.240000	584.000000	0.000000	100.000000	56.000000	0.000000	-42.000000
