t	x	y	pressure	penup	azimuth	inclination	v_x	v_y
0.000000	52.910000	47.280000	29.000000	1.000000	90.000000	48.000000	0.000000	0.000000
0.010000	52.860000	46.750000	172.000000	0.000000	90.000000	48.000000	-5.000000	-53.000000
0.020000	52.720000	46.460000	219.000000	0.000000	90.000000	49.000000	-14.000000	-29.000000
0.030000	52.540000	46.190000	264.000000	0.000000	90.000000	49.000000	-18.000000	-27.000000
0.040000	52.480000	45.970000	329.000000	0.000000	90.000000	49.000000	-6.000000	-22.000000
0.050000	52.480000	45.890000	362.000000	0.000000	90.000000	49.000000	0.000000	-8.000000
0.060000	52.480000	45.890000	394.000000	0.000000	90.000000	49.000000	0.000000	0.000000
0.070000	52.480000	45.950000	417.000000	0.000000	90.000000	49.000000	0.000000	6.000000
0.080000	52.550000	46.080000	443.000000	0.000000	90.000000	49.000000	7.000000	13.000000
0.090000	52.610000	46.260000	474.000000	0.000000	90.000000	49.000000	6.000000	18.000000
0.100000	52.680000	46.660000	472.000000	0.000000	91.000000	49.000000	7.000000	40.000000
0.110000	52.740000	47.390000	471.000000	0.000000	91.000000	49.000000	6.000000	73.000000
0.120000	52.790000	48.340000	444.000000	0.000000	92.000000	50.000000	5.000000	95.000000
0.130000	52.790000	49.460000	409.000000	0.000000	92.000000	50.000000	0.000000	112.000000
0.140000	52.790000	50.700000	338.000000	0.000000	94.000000	50.000000	0.000000	124.000000
0.150000	52.690000	52.020000	245.000000	0.000000	94.000000	50.000000	-10.000000	132.000000
0.160000	52.490000	53.350000	235.000000	0.000000	95.000000	50.000000	-20.000000	133.000000
0.170000	52.250000	54.280000	232.000000	0.000000	95.000000	50.000000	-24.000000	93.000000
0.180000	51.990000	54.950000	256.000000	0.000000	95.000000	50.000000	-26.000000	67.000000
0.190000	51.720000	55.070000	242.000000	0.000000	95.000000	50.000000	-27.000000	12.000000
0.200000	51.460000	54.880000	257.000000	0.000000	95.000000	50.000000	-26.000000	-19.000000
0.210000	51.250000	54.490000	279.000000	0.000000	95.000000	50.000000	-21.000000	-39.000000
0.220000	51.140000	53.910000	314.000000	0.000000	96.000000	50.000000	-11.000000	-58.000000
0.230000	51.200000	53.180000	319.000000	0.000000	96.000000	49.000000	6.000000	-73.000000
0.240000	51.360000	52.350000	373.000000	0.000000	96.000000	49.000000	16.000000	-83.000000
0.250000	51.620000	51.470000	399.000000	0.000000	96.000000	49.000000	26.000000	-88.000000
0.260000	51.880000	50.570000	404.000000	0.000000	96.000000	49.000000	26.000000	-90.000000
0.270000	52.130000	49.650000	418.000000	0.000000	96.000000	49.000000	25.000000	-92.000000
0.280000	52.360000	48.760000	418.000000	0.000000	95.000000	49.000000	23.000000	-89.000000
0.290000	52.580000	48.150000	414.000000	0.000000	95.000000	49.000000	22.000000	-61.000000
0.300000	52.810000	47.740000	417.000000	0.000000	95.000000	49.000000	23.000000	-41.000000
0.310000	53.030000	47.670000	417.000000	0.000000	94.000000	50.000000	22.000000	-7.000000
0.320000	53.240000	47.820000	422.000000	0.000000	94.000000	50.000000	21.000000	15.000000
0.330000	53.440000	48.120000	422.000000	0.000000	92.000000	50.000000	20.000000	30.000000
0.340000	53.600000	48.810000	415.000000	0.000000	91.000000	50.000000	16.000000	69.000000
0.350000	53.720000	49.720000	396.000000	0.000000	91.000000	50.000000	12.000000	91.000000
0.360000	53.720000	50.790000	372.000000	0.000000	91.000000	50.000000	0.000000	107.000000
0.370000	53.670000	52.010000	346.000000	0.000000	92.000000	50.000000	-5.000000	122.000000
0.380000	53.520000	53.220000	335.000000	0.000000	92.000000	50.000000	-15.000000	121.000000
0.390000	53.280000	54.430000	319.000000	0.000000	94.000000	50.000000	-24.000000	121.000000
0.400000	53.080000	55.210000	324.000000	0.000000	94.000000	50.000000	-20.000000	78.000000
0.410000	52.960000	55.560000	340.000000	0.000000	94.000000	50.000000	-12.000000	35.000000
0.420000	52.870000	55.620000	343.000000	0.000000	94.000000	50.000000	-9.000000	6.000000
0.430000	52.870000	55.520000	344.000000	0.000000	95.000000	50.000000	0.000000	-10.000000
0.440000	52.870000	55.370000	349.000000	0.000000	95.000000	50.000000	0.000000	-15.000000
0.450000	52.930000	54.920000	373.000000	0.000000	95.000000	50.000000	6.000000	-45.000000
0.460000	53.060000	54.280000	389.000000	0.000000	95.000000	50.000000	13.000000	-64.000000
0.470000	53.290000	53.330000	448.000000	0.000000	95.000000	50.000000	23.000000	-95.000000
0.480000	53.580000	52.120000	467.000000	0.000000	95.000000	50.000000	29.000000	-121.000000
0.490000	53.880000	50.730000	509.000000	0.000000	95.000000	50.000000	30.000000	-139.000000
0.500000	54.190000	49.330000	522.000000	0.000000	95.000000	50.000000	31.000000	-140.000000
0.510000	54.490000	48.130000	512.000000	0.000000	94.000000	50.000000	30.000000	-120.000000
0.520000	54.790000	47.070000	505.000000	0.000000	94.000000	50.000000	30.000000	-106.000000
0.530000	55.110000	46.590000	486.000000	0.000000	94.000000	50.000000	32.000000	-48.000000
0.540000	55.410000	46.410000	460.000000	0.000000	92.000000	50.000000	30.000000	-18.000000
0.550000	55.690000	46.410000	400.000000	0.000000	92.000000	51.000000	28.000000	0.000000
0.560000	55.960000	46.860000	285.000000	0.000000	92.000000	51.000000	27.000000	45.000000
0.570000	55.960000	46.860000	0.000000	1.000000	92.000000	51.000000	0.000000	0.000000
0.580000	56.320000	48.490000	0.000000	0.000000	92.000000	51.000000	36.000000	163.000000
0.590000	56.250000	49.330000	0.000000	0.000000	92.000000	51.000000	-7.000000	84.000000
0.600000	56.030000	49.990000	0.000000	0.000000	92.000000	51.000000	-22.000000	66.000000
0.610000	55.700000	50.540000	0.000000	0.000000	94.000000	51.000000	-33.000000	55.000000
0.620000	55.510000	50.890000	0.000000	0.000000	94.000000	51.000000	-19.000000	35.000000
0.630000	55.370000	51.190000	0.000000	0.000000	95.000000	51.000000	-14.000000	30.000000
0.640000	55.370000	51.190000	0.000000	0.000000	95.000000	51.000000	0.000000	0.000000
0.650000	55.310000	51.590000	0.000000	0.000000	95.000000	50.000000	-6.000000	40.000000
0.660000	55.310000	51.770000	0.000000	0.000000	96.000000	50.000000	0.000000	18.000000
0.670000	55.400000	52.010000	0.000000	0.000000	96.000000	50.000000	9.000000	24.000000
0.680000	55.510000	52.280000	0.000000	0.000000	96.000000	49.000000	11.000000	27.000000
0.690000	55.590000	52.540000	0.000000	0.000000	97.000000	49.000000	8.000000	26.000000
0.700000	55.590000	52.770000	0.000000	0.000000	97.000000	49.000000	0.000000	23.000000
0.710000	55.470000	52.940000	0.000000	0.000000	97.000000	49.000000	-12.000000	17.000000
0.720000	55.350000	53.080000	0.000000	0.000000	97.000000	50.000000	-12.000000	14.000000
0.730000	55.190000	53.230000	0.000000	0.000000	97.000000	50.000000	-16.000000	15.000000
0.740000	55.010000	53.460000	0.000000	0.000000	97.000000	50.000000	-18.000000	23.000000
0.750000	54.930000	53.740000	0.000000	0.000000	97.000000	50.000000	-8.000000	28.000000
0.760000	54.930000	53.980000	0.000000	0.000000	96.000000	50.000000	0.000000	24.000000
0.770000	54.930000	54.180000	0.000000	0.000000	96.000000	50.000000	0.000000	20.000000
0.780000	54.930000	54.180000	66.000000	1.000000	96.000000	50.000000	0.000000	0.000000
0.790000	54.930000	54.180000	120.000000	0.000000	96.000000	50.000000	0.000000	0.000000
0.800000	54.930000	54.180000	230.000000	0.000000	96.000000	50.000000	0.000000	0.000000
0.810000	55.180000	53.620000	282.000000	0.000000	96.000000	50.000000	25.000000	-56.000000
0.820000	55.180000	53.030000	309.000000	0.000000	96.000000	50.000000	0.000000	-59.000000
0.830000	55.180000	52.330000	319.000000	0.000000	96.000000	50.000000	0.000000	-70.000000
0.840000	55.080000	51.700000	319.000000	0.000000	96.000000	50.000000	-10.000000	-63.000000
0.850000	55.080000	51.270000	315.000000	0.000000	96.000000	50.000000	0.000000	-43.000000
0.860000	55.030000	50.970000	296.000000	0.000000	96.000000	50.000000	-5.000000	-30.000000
0.870000	55.030000	51.030000	247.000000	0.000000	96.000000	50.000000	0.000000	6.000000
0.880000	55.030000	51.390000	214.000000	0.000000	96.000000	50.000000	0.000000	36.000000
0.890000	55.030000	51.960000	173.000000	0.000000	96.000000	50.000000	0.000000	57.000000
0.900000	55.030000	52.880000	141.000000	0.000000	96.000000	50.000000	0.000000	92.000000
0.910000	55.030000	53.740000	142.000000	0.000000	96.000000	50.000000	0.000000	86.000000
0.920000	55.030000	54.550000	155.000000	0.000000	95.000000	50.000000	0.000000	81.000000
0.930000	55.030000	54.920000	249.000000	0.000000	95.000000	50.000000	0.000000	37.000000
0.940000	54.940000	55.010000	274.000000	0.000000	95.000000	50.000000	-9.000000	9.000000
0.950000	54.940000	54.910000	304.000000	0.000000	95.000000	50.000000	0.000000	-10.000000
0.960000	54.940000	54.800000	322.000000	0.000000	95.000000	50.000000	0.000000	-11.000000
0.970000	55.100000	54.420000	329.000000	0.000000	95.000000	50.000000	16.000000	-38.000000
0.980000	55.330000	53.850000	332.000000	0.000000	96.000000	50.000000	23.000000	-57.000000
0.990000	55.610000	53.330000	334.000000	0.000000	96.000000	51.000000	28.000000	-52.000000
1.000000	55.930000	52.890000	329.000000	0.000000	96.000000	51.000000	32.000000	-44.000000
1.010000	56.230000	52.510000	296.000000	0.000000	96.000000	51.000000	30.000000	-38.000000
1.020000	56.460000	52.310000	244.000000	0.000000	96.000000	51.000000	23.000000	-20.000000
1.030000	56.650000	52.220000	163.000000	0.000000	96.000000	51.000000	19.000000	-9.000000
1.040000	56.710000	52.220000	91.000000	0.000000	96.000000	51.000000	6.000000	0.000000
1.050000	56.610000	52.270000	44.000000	0.000000	96.000000	51.000000	-10.000000	5.000000
1.060000	56.390000	52.380000	58.000000	0.000000	96.000000	51.000000	-22.000000	11.000000
1.070000	56.020000	52.510000	108.000000	0.000000	97.000000	51.000000	-37.000000	13.000000
1.080000	55.600000	52.420000	161.000000	0.000000	97.000000	51.000000	-42.000000	-9.000000
1.090000	55.150000	52.270000	249.000000	0.000000	97.000000	51.000000	-45.000000	-15.000000
1.100000	54.870000	52.080000	282.000000	0.000000	97.000000	51.000000	-28.000000	-19.000000
1.110000	54.740000	51.920000	315.000000	0.000000	99.000000	51.000000	-13.000000	-16.000000
1.120000	54.740000	51.920000	319.000000	0.000000	99.000000	51.000000	0.000000	0.000000
1.130000	54.790000	51.920000	327.000000	0.000000	99.000000	51.000000	5.000000	0.000000
1.140000	55.030000	51.980000	329.000000	0.000000	99.000000	51.000000	24.000000	6.000000
1.150000	55.380000	52.160000	311.000000	0.000000	99.000000	51.000000	35.000000	18.000000
1.160000	55.860000	52.420000	210.000000	0.000000	99.000000	51.000000	48.000000	26.000000
1.170000	55.860000	52.420000	0.000000	1.000000	99.000000	51.000000	0.000000	0.000000
1.180000	56.830000	52.800000	0.000000	0.000000	99.000000	51.000000	97.000000	38.000000
1.190000	57.050000	52.740000	0.000000	0.000000	99.000000	52.000000	22.000000	-6.000000
1.200000	57.050000	52.550000	0.000000	0.000000	99.000000	52.000000	0.000000	-19.000000
1.210000	56.900000	52.340000	0.000000	0.000000	99.000000	52.000000	-15.000000	-21.000000
1.220000	57.130000	52.230000	0.000000	0.000000	99.000000	52.000000	23.000000	-11.000000
1.230000	57.630000	52.180000	0.000000	0.000000	99.000000	51.000000	50.000000	-5.000000
1.240000	58.280000	52.180000	0.000000	0.000000	98.000000	49.000000	65.000000	0.000000
1.250000	59.040000	52.010000	0.000000	0.000000	98.000000	47.000000	76.000000	-17.000000
1.260000	59.870000	51.730000	0.000000	0.000000	97.000000	45.000000	83.000000	-28.000000
1.270000	60.660000	51.240000	0.000000	0.000000	97.000000	44.000000	79.000000	-49.000000
1.280000	61.430000	50.590000	0.000000	0.000000	95.000000	42.000000	77.000000	-65.000000
1.290000	62.090000	49.960000	0.000000	0.000000	95.000000	41.000000	66.000000	-63.000000
1.300000	62.280000	49.330000	0.000000	0.000000	94.000000	40.000000	19.000000	-63.000000
1.310000	62.210000	48.670000	0.000000	0.000000	93.000000	40.000000	-7.000000	-66.000000
1.320000	61.890000	48.010000	0.000000	0.000000	93.000000	41.000000	-32.000000	-66.000000
1.330000	61.350000	47.410000	0.000000	0.000000	93.000000	42.000000	-54.000000	-60.000000
1.340000	60.670000	46.860000	0.000000	0.000000	93.000000	43.000000	-68.000000	-55.000000
1.350000	60.150000	46.370000	0.000000	0.000000	93.000000	44.000000	-52.000000	-49.000000
1.360000	59.310000	46.100000	0.000000	0.000000	93.000000	45.000000	-84.000000	-27.000000
1.370000	58.770000	45.990000	0.000000	0.000000	93.000000	45.000000	-54.000000	-11.000000
1.380000	58.520000	46.150000	0.000000	0.000000	93.000000	46.000000	-25.000000	16.000000
1.390000	58.520000	46.490000	0.000000	0.000000	93.000000	47.000000	0.000000	34.000000
1.400000	58.520000	46.950000	0.000000	0.000000	93.000000	48.000000	0.000000	46.000000
1.410000	58.630000	47.310000	0.000000	0.000000	93.000000	49.000000	11.000000	36.000000
1.420000	58.720000	47.640000	0.000000	0.000000	94.000000	50.000000	9.000000	33.000000
1.430000	58.780000	47.920000	0.000000	0.000000	94.000000	51.000000	6.000000	28.000000
1.440000	58.830000	48.050000	0.000000	0.000000	94.000000	52.000000	5.000000	13.000000
1.450000	58.910000	48.050000	0.000000	0.000000	94.000000	53.000000	8.000000	0.000000
1.460000	58.980000	48.150000	0.000000	0.000000	94.000000	53.000000	7.000000	10.000000
1.470000	58.980000	48.210000	0.000000	0.000000	94.000000	53.000000	0.000000	6.000000
1.480000	59.050000	48.210000	0.000000	0.000000	95.000000	53.000000	7.000000	0.000000
1.490000	59.050000	48.300000	0.000000	0.000000	95.000000	53.000000	0.000000	9.000000
1.500000	59.050000	48.350000	0.000000	0.000000	95.000000	53.000000	0.000000	5.000000
1.510000	59.050000	48.400000	0.000000	0.000000	97.000000	53.000000	0.000000	5.000000
1.520000	59.050000	48.400000	0.000000	0.000000	97.000000	53.000000	0.000000	0.000000
1.530000	59.050000	48.470000	0.000000	0.000000	97.000000	53.000000	0.000000	7.000000
1.540000	58.920000	48.470000	0.000000	0.000000	97.000000	53.000000	-13.000000	0.000000
1.550000	58.920000	48.470000	0.000000	0.000000	98.000000	53.000000	0.000000	0.000000
1.560000	58.830000	48.470000	0.000000	0.000000	98.000000	53.000000	-9.000000	0.000000
1.570000	58.780000	48.390000	0.000000	0.000000	98.000000	53.000000	-5.000000	-8.000000
1.580000	58.780000	48.310000	0.000000	0.000000	98.000000	53.000000	0.000000	-8.000000
1.590000	58.710000	48.310000	0.000000	0.000000	98.000000	53.000000	-7.000000	0.000000
1.600000	58.660000	48.310000	0.000000	0.000000	98.000000	53.000000	-5.000000	0.000000
1.610000	58.660000	48.310000	0.000000	0.000000	98.000000	53.000000	0.000000	0.000000
1.620000	58.570000	48.310000	0.000000	0.000000	98.000000	53.000000	-9.000000	0.000000
1.630000	58.570000	48.420000	0.000000	0.000000	98.000000	53.000000	0.000000	11.000000
1.640000	58.490000	48.570000	0.000000	0.000000	97.000000	53.000000	-8.000000	15.000000
1.650000	58.490000	48.710000	0.000000	0.000000	97.000000	53.000000	0.000000	14.000000
1.660000	58.440000	48.860000	0.000000	0.000000	97.000000	53.000000	-5.000000	15.000000
1.670000	58.440000	49.000000	0.000000	0.000000	97.000000	53.000000	0.000000	14.000000
1.680000	58.440000	49.130000	0.000000	0.000000	97.000000	53.000000	0.000000	13.000000
1.690000	58.500000	49.260000	0.000000	0.000000	98.000000	52.000000	6.000000	13.000000
1.700000	58.500000	49.260000	51.000000	1.000000	97.000000	51.000000	0.000000	0.000000
1.710000	58.500000	49.260000	90.000000	0.000000	97.000000	51.000000	0.000000	0.000000
1.720000	58.500000	49.260000	151.000000	0.000000	97.000000	51.000000	0.000000	0.000000
1.730000	58.500000	48.970000	175.000000	0.000000	97.000000	50.000000	0.000000	-29.000000
1.740000	58.560000	48.640000	225.000000	0.000000	97.000000	50.000000	6.000000	-33.000000
1.750000	58.620000	48.230000	232.000000	0.000000	97.000000	50.000000	6.000000	-41.000000
1.760000	58.700000	47.780000	233.000000	0.000000	97.000000	49.000000	8.000000	-45.000000
1.770000	58.770000	47.340000	218.000000	0.000000	96.000000	49.000000	7.000000	-44.000000
1.780000	58.770000	47.050000	178.000000	0.000000	96.000000	49.000000	0.000000	-29.000000
1.790000	58.850000	46.860000	142.000000	0.000000	96.000000	49.000000	8.000000	-19.000000
1.800000	58.850000	46.810000	95.000000	0.000000	95.000000	49.000000	0.000000	-5.000000
1.810000	58.850000	46.910000	83.000000	0.000000	95.000000	49.000000	0.000000	10.000000
1.820000	58.780000	47.110000	91.000000	0.000000	95.000000	49.000000	-7.000000	20.000000
1.830000	58.630000	47.490000	109.000000	0.000000	95.000000	49.000000	-15.000000	38.000000
1.840000	58.470000	47.930000	113.000000	0.000000	93.000000	49.000000	-16.000000	44.000000
1.850000	58.300000	48.410000	137.000000	0.000000	93.000000	49.000000	-17.000000	48.000000
1.860000	58.130000	48.830000	187.000000	0.000000	93.000000	49.000000	-17.000000	42.000000
1.870000	58.130000	49.110000	196.000000	0.000000	93.000000	49.000000	0.000000	28.000000
1.880000	58.130000	49.310000	203.000000	0.000000	95.000000	49.000000	0.000000	20.000000
1.890000	58.230000	49.420000	215.000000	0.000000	95.000000	49.000000	10.000000	11.000000
1.900000	58.410000	49.500000	217.000000	0.000000	95.000000	49.000000	18.000000	8.000000
1.910000	58.630000	49.500000	207.000000	0.000000	96.000000	49.000000	22.000000	0.000000
1.920000	58.870000	49.370000	218.000000	0.000000	96.000000	49.000000	24.000000	-13.000000
1.930000	59.110000	49.150000	223.000000	0.000000	96.000000	49.000000	24.000000	-22.000000
1.940000	59.250000	48.780000	225.000000	0.000000	97.000000	49.000000	14.000000	-37.000000
1.950000	59.340000	48.380000	249.000000	0.000000	97.000000	49.000000	9.000000	-40.000000
1.960000	59.340000	47.960000	269.000000	0.000000	97.000000	49.000000	0.000000	-42.000000
1.970000	59.250000	47.540000	319.000000	0.000000	97.000000	49.000000	-9.000000	-42.000000
1.980000	59.140000	47.310000	349.000000	0.000000	97.000000	49.000000	-11.000000	-23.000000
1.990000	59.000000	47.200000	344.000000	0.000000	97.000000	49.000000	-14.000000	-11.000000
2.000000	58.840000	47.200000	349.000000	0.000000	97.000000	49.000000	-16.000000	0.000000
2.010000	58.660000	47.320000	344.000000	0.000000	97.000000	49.000000	-18.000000	12.000000
2.020000	58.600000	47.470000	309.000000	0.000000	97.000000	49.000000	-6.000000	15.000000
2.030000	58.600000	47.700000	218.000000	0.000000	97.000000	49.000000	0.000000	23.000000
2.040000	58.520000	47.840000	63.000000	0.000000	96.000000	49.000000	-8.000000	14.000000
2.050000	58.520000	47.840000	0.000000	1.000000	96.000000	49.000000	0.000000	0.000000
2.060000	58.690000	48.130000	0.000000	0.000000	96.000000	49.000000	17.000000	29.000000
2.070000	58.830000	48.350000	0.000000	0.000000	96.000000	49.000000	14.000000	22.000000
2.080000	58.980000	48.570000	0.000000	0.000000	96.000000	49.000000	15.000000	22.000000
2.090000	59.140000	48.750000	0.000000	0.000000	96.000000	49.000000	16.000000	18.000000
2.100000	59.340000	48.940000	0.000000	0.000000	96.000000	49.000000	20.000000	19.000000
2.110000	59.550000	49.130000	0.000000	0.000000	96.000000	49.000000	21.000000	19.000000
2.120000	59.550000	49.130000	63.000000	1.000000	96.000000	48.000000	0.000000	0.000000
2.130000	59.840000	49.250000	130.000000	0.000000	96.000000	48.000000	29.000000	12.000000
2.140000	59.840000	49.250000	214.000000	0.000000	96.000000	49.000000	0.000000	0.000000
2.150000	59.840000	49.140000	294.000000	0.000000	96.000000	49.000000	0.000000	-11.000000
2.160000	59.840000	48.970000	336.000000	0.000000	96.000000	49.000000	0.000000	-17.000000
2.170000	59.910000	48.680000	354.000000	0.000000	97.000000	50.000000	7.000000	-29.000000
2.180000	59.910000	48.320000	361.000000	0.000000	97.000000	50.000000	0.000000	-36.000000
2.190000	59.910000	47.960000	364.000000	0.000000	97.000000	50.000000	0.000000	-36.000000
2.200000	60.030000	47.650000	354.000000	0.000000	97.000000	50.000000	12.000000	-31.000000
2.210000	60.130000	47.460000	340.000000	0.000000	97.000000	50.000000	10.000000	-19.000000
2.220000	60.270000	47.350000	317.000000	0.000000	98.000000	50.000000	14.000000	-11.000000
2.230000	60.470000	47.350000	273.000000	0.000000	98.000000	50.000000	20.000000	0.000000
2.240000	60.680000	47.460000	245.000000	0.000000	98.000000	50.000000	21.000000	11.000000
2.250000	60.880000	47.640000	180.000000	0.000000	98.000000	50.000000	20.000000	18.000000
