t	x	y	pressure	penup	azimuth	inclination	v_x	v_y
0.000000	53.130000	7.700000	306.000000	1.000000	104.000000	63.000000	0.000000	0.000000
0.010000	53.060000	7.380000	334.000000	0.000000	104.000000	63.000000	-7.000000	-32.000000
0.020000	52.970000	7.380000	423.000000	0.000000	104.000000	63.000000	-9.000000	0.000000
0.030000	52.920000	7.440000	449.000000	0.000000	104.000000	63.000000	-5.000000	6.000000
0.040000	53.000000	7.520000	445.000000	0.000000	104.000000	63.000000	8.000000	8.000000
0.050000	53.130000	7.840000	439.000000	0.000000	104.000000	63.000000	13.000000	32.000000
0.060000	53.330000	8.320000	414.000000	0.000000	102.000000	63.000000	20.000000	48.000000
0.070000	53.600000	9.020000	388.000000	0.000000	102.000000	63.000000	27.000000	70.000000
0.080000	53.860000	9.870000	364.000000	0.000000	100.000000	64.000000	26.000000	85.000000
0.090000	54.010000	10.810000	359.000000	0.000000	100.000000	64.000000	15.000000	94.000000
0.100000	54.090000	11.850000	372.000000	0.000000	98.000000	64.000000	8.000000	104.000000
0.110000	54.090000	12.850000	387.000000	0.000000	96.000000	64.000000	0.000000	100.000000
0.120000	54.000000	13.460000	396.000000	0.000000	96.000000	64.000000	-9.000000	61.000000
0.130000	53.870000	13.840000	409.000000	0.000000	94.000000	64.000000	-13.000000	38.000000
0.140000	53.800000	13.840000	423.000000	0.000000	94.000000	64.000000	-7.000000	0.000000
0.150000	53.750000	13.620000	433.000000	0.000000	94.000000	64.000000	-5.000000	-22.000000
0.160000	53.750000	13.190000	445.000000	0.000000	94.000000	64.000000	0.000000	-43.000000
0.170000	53.750000	12.440000	465.000000	0.000000	94.000000	64.000000	0.000000	-75.000000
0.180000	53.750000	11.640000	486.000000	0.000000	94.000000	64.000000	0.000000	-80.000000
0.190000	53.830000	10.820000	491.000000	0.000000	94.000000	64.000000	8.000000	-82.000000
0.200000	53.960000	10.360000	465.000000	0.000000	94.000000	64.000000	13.000000	-46.000000
0.210000	54.170000	10.120000	447.000000	0.000000	94.000000	64.000000	21.000000	-24.000000
0.220000	54.440000	10.030000	422.000000	0.000000	92.000000	64.000000	27.000000	-9.000000
0.230000	54.730000	10.150000	389.000000	0.000000	92.000000	64.000000	29.000000	12.000000
0.240000	55.050000	10.610000	376.000000	0.000000	92.000000	64.000000	32.000000	46.000000
0.250000	55.300000	11.290000	381.000000	0.000000	92.000000	64.000000	25.000000	68.000000
0.260000	55.520000	12.020000	397.000000	0.000000	92.000000	64.000000	22.000000	73.000000
0.270000	55.580000	12.690000	414.000000	0.000000	92.000000	64.000000	6.000000	67.000000
0.280000	55.580000	13.220000	420.000000	0.000000	92.000000	64.000000	0.000000	53.000000
0.290000	55.440000	13.670000	441.000000	0.000000	92.000000	64.000000	-14.000000	45.000000
0.300000	55.330000	13.810000	440.000000	0.000000	92.000000	64.000000	-11.000000	14.000000
0.310000	55.270000	13.810000	440.000000	0.000000	94.000000	64.000000	-6.000000	0.000000
0.320000	55.270000	13.560000	450.000000	0.000000	94.000000	64.000000	0.000000	-25.000000
0.330000	55.330000	12.980000	465.000000	0.000000	94.000000	64.000000	6.000000	-58.000000
0.340000	55.380000	12.150000	477.000000	0.000000	94.000000	65.000000	5.000000	-83.000000
0.350000	55.450000	11.190000	486.000000	0.000000	94.000000	65.000000	7.000000	-96.000000
0.360000	55.530000	10.470000	464.000000	0.000000	94.000000	65.000000	8.000000	-72.000000
0.370000	55.660000	9.900000	397.000000	0.000000	94.000000	65.000000	13.000000	-57.000000
0.380000	55.850000	9.700000	299.000000	0.000000	94.000000	65.000000	19.000000	-20.000000
0.390000	56.020000	9.700000	91.000000	0.000000	94.000000	65.000000	17.000000	0.000000
0.400000	56.020000	9.700000	0.000000	1.000000	94.000000	65.000000	0.000000	0.000000
0.410000	56.260000	10.360000	0.000000	0.000000	94.000000	65.000000	24.000000	66.000000
0.420000	56.160000	10.950000	0.000000	0.000000	94.000000	66.000000	-10.000000	59.000000
0.430000	56.090000	11.630000	0.000000	0.000000	94.000000	66.000000	-7.000000	68.000000
0.440000	56.030000	12.520000	0.000000	0.000000	94.000000	66.000000	-6.000000	89.000000
0.450000	56.090000	13.390000	0.000000	0.000000	94.000000	66.000000	6.000000	87.000000
0.460000	56.190000	14.240000	0.000000	0.000000	94.000000	66.000000	10.000000	85.000000
0.470000	56.370000	14.940000	0.000000	0.000000	97.000000	66.000000	18.000000	70.000000
0.480000	56.570000	15.280000	0.000000	0.000000	99.000000	66.000000	20.000000	34.000000
0.490000	56.570000	15.280000	315.000000	1.000000	101.000000	66.000000	0.000000	0.000000
0.500000	56.570000	15.280000	379.000000	0.000000	101.000000	66.000000	0.000000	0.000000
0.510000	56.570000	15.280000	473.000000	0.000000	103.000000	65.000000	0.000000	0.000000
0.520000	56.490000	14.650000	519.000000	0.000000	103.000000	65.000000	-8.000000	-63.000000
0.530000	56.390000	14.160000	537.000000	0.000000	103.000000	64.000000	-10.000000	-49.000000
0.540000	56.310000	13.650000	543.000000	0.000000	103.000000	64.000000	-8.000000	-51.000000
0.550000	56.240000	13.140000	537.000000	0.000000	103.000000	64.000000	-7.000000	-51.000000
0.560000	56.240000	12.680000	515.000000	0.000000	101.000000	65.000000	0.000000	-46.000000
0.570000	56.240000	12.510000	491.000000	0.000000	99.000000	65.000000	0.000000	-17.000000
0.580000	56.290000	12.510000	496.000000	0.000000	96.000000	65.000000	5.000000	0.000000
0.590000	56.290000	12.590000	499.000000	0.000000	94.000000	65.000000	0.000000	8.000000
0.600000	56.230000	12.830000	510.000000	0.000000	94.000000	65.000000	-6.000000	24.000000
0.610000	56.230000	13.180000	510.000000	0.000000	94.000000	65.000000	0.000000	35.000000
0.620000	56.170000	13.690000	507.000000	0.000000	94.000000	65.000000	-6.000000	51.000000
0.630000	56.170000	14.180000	505.000000	0.000000	94.000000	65.000000	0.000000	49.000000
0.640000	56.170000	14.480000	507.000000	0.000000	94.000000	65.000000	0.000000	30.000000
0.650000	56.310000	14.660000	512.000000	0.000000	94.000000	65.000000	14.000000	18.000000
0.660000	56.420000	14.660000	512.000000	0.000000	94.000000	65.000000	11.000000	0.000000
0.670000	56.540000	14.600000	520.000000	0.000000	96.000000	65.000000	12.000000	-6.000000
0.680000	56.620000	14.350000	530.000000	0.000000	96.000000	65.000000	8.000000	-25.000000
0.690000	56.720000	13.990000	540.000000	0.000000	96.000000	65.000000	10.000000	-36.000000
0.700000	56.820000	13.600000	540.000000	0.000000	99.000000	65.000000	10.000000	-39.000000
0.710000	56.820000	13.270000	540.000000	0.000000	96.000000	65.000000	0.000000	-33.000000
0.720000	56.910000	13.040000	524.000000	0.000000	96.000000	65.000000	9.000000	-23.000000
0.730000	56.970000	12.860000	504.000000	0.000000	96.000000	65.000000	6.000000	-18.000000
0.740000	56.970000	12.810000	493.000000	0.000000	94.000000	65.000000	0.000000	-5.000000
0.750000	56.910000	12.810000	422.000000	0.000000	94.000000	65.000000	-6.000000	0.000000
0.760000	56.820000	12.810000	259.000000	0.000000	94.000000	66.000000	-9.000000	0.000000
0.770000	56.670000	12.810000	46.000000	0.000000	94.000000	66.000000	-15.000000	0.000000
0.780000	56.670000	12.810000	0.000000	1.000000	94.000000	66.000000	0.000000	0.000000
0.790000	56.420000	12.570000	0.000000	0.000000	94.000000	66.000000	-25.000000	-24.000000
0.800000	56.420000	12.440000	0.000000	0.000000	94.000000	66.000000	0.000000	-13.000000
0.810000	56.490000	12.320000	0.000000	0.000000	94.000000	66.000000	7.000000	-12.000000
0.820000	56.690000	12.140000	0.000000	0.000000	95.000000	67.000000	20.000000	-18.000000
0.830000	57.050000	12.040000	0.000000	0.000000	95.000000	67.000000	36.000000	-10.000000
0.840000	57.500000	11.980000	0.000000	0.000000	95.000000	67.000000	45.000000	-6.000000
0.850000	57.840000	11.980000	0.000000	0.000000	97.000000	67.000000	34.000000	0.000000
0.860000	57.940000	11.900000	0.000000	0.000000	97.000000	67.000000	10.000000	-8.000000
0.870000	57.890000	11.780000	0.000000	0.000000	97.000000	67.000000	-5.000000	-12.000000
0.880000	57.620000	11.610000	0.000000	0.000000	99.000000	67.000000	-27.000000	-17.000000
0.890000	57.620000	11.610000	213.000000	1.000000	99.000000	66.000000	0.000000	0.000000
0.900000	57.050000	11.320000	253.000000	0.000000	97.000000	66.000000	-57.000000	-29.000000
0.910000	56.850000	11.320000	273.000000	0.000000	97.000000	66.000000	-20.000000	0.000000
0.920000	56.800000	11.320000	305.000000	0.000000	97.000000	66.000000	-5.000000	0.000000
0.930000	56.800000	11.320000	325.000000	0.000000	97.000000	66.000000	0.000000	0.000000
0.940000	56.990000	11.430000	348.000000	0.000000	94.000000	66.000000	19.000000	11.000000
0.950000	57.150000	11.620000	387.000000	0.000000	94.000000	66.000000	16.000000	19.000000
0.960000	57.340000	11.820000	417.000000	0.000000	94.000000	66.000000	19.000000	20.000000
0.970000	57.540000	12.040000	438.000000	0.000000	94.000000	66.000000	20.000000	22.000000
0.980000	57.700000	12.090000	469.000000	0.000000	94.000000	66.000000	16.000000	5.000000
0.990000	57.850000	12.090000	491.000000	0.000000	94.000000	66.000000	15.000000	0.000000
1.000000	57.990000	11.980000	535.000000	0.000000	94.000000	66.000000	14.000000	-11.000000
1.010000	58.150000	11.770000	560.000000	0.000000	94.000000	65.000000	16.000000	-21.000000
1.020000	58.200000	11.430000	581.000000	0.000000	94.000000	65.000000	5.000000	-34.000000
1.030000	58.200000	11.120000	595.000000	0.000000	94.000000	64.000000	0.000000	-31.000000
1.040000	58.090000	10.820000	591.000000	0.000000	94.000000	63.000000	-11.000000	-30.000000
1.050000	58.030000	10.610000	589.000000	0.000000	94.000000	63.000000	-6.000000	-21.000000
1.060000	58.030000	10.520000	591.000000	0.000000	94.000000	62.000000	0.000000	-9.000000
1.070000	58.030000	10.520000	561.000000	0.000000	94.000000	62.000000	0.000000	0.000000
1.080000	58.030000	10.520000	516.000000	0.000000	94.000000	61.000000	0.000000	0.000000
1.090000	58.030000	10.520000	460.000000	0.000000	94.000000	61.000000	0.000000	0.000000
1.100000	57.930000	10.970000	387.000000	0.000000	94.000000	61.000000	-10.000000	45.000000
1.110000	58.150000	11.540000	324.000000	0.000000	94.000000	61.000000	22.000000	57.000000
1.120000	58.460000	12.080000	277.000000	0.000000	94.000000	61.000000	31.000000	54.000000
1.130000	58.680000	12.310000	289.000000	0.000000	94.000000	61.000000	22.000000	23.000000
1.140000	58.830000	12.310000	342.000000	0.000000	94.000000	61.000000	15.000000	0.000000
1.150000	58.940000	12.310000	398.000000	0.000000	94.000000	61.000000	11.000000	0.000000
1.160000	58.940000	12.130000	449.000000	0.000000	94.000000	61.000000	0.000000	-18.000000
1.170000	58.940000	11.890000	464.000000	0.000000	94.000000	61.000000	0.000000	-24.000000
1.180000	58.870000	11.640000	474.000000	0.000000	94.000000	62.000000	-7.000000	-25.000000
1.190000	58.790000	11.380000	402.000000	0.000000	94.000000	62.000000	-8.000000	-26.000000
1.200000	58.730000	11.120000	148.000000	0.000000	94.000000	62.000000	-6.000000	-26.000000
1.210000	58.730000	11.120000	0.000000	1.000000	94.000000	63.000000	0.000000	0.000000
1.220000	58.680000	10.880000	0.000000	0.000000	94.000000	63.000000	-5.000000	-24.000000
1.230000	58.680000	10.990000	0.000000	0.000000	94.000000	63.000000	0.000000	11.000000
1.240000	58.780000	11.260000	0.000000	0.000000	94.000000	64.000000	10.000000	27.000000
1.250000	58.900000	11.640000	0.000000	0.000000	94.000000	64.000000	12.000000	38.000000
1.260000	59.140000	12.050000	0.000000	0.000000	94.000000	64.000000	24.000000	41.000000
1.270000	59.470000	12.420000	0.000000	0.000000	94.000000	64.000000	33.000000	37.000000
1.280000	59.710000	12.560000	0.000000	0.000000	94.000000	64.000000	24.000000	14.000000
1.290000	59.830000	12.560000	0.000000	0.000000	96.000000	64.000000	12.000000	0.000000
1.300000	59.880000	12.460000	0.000000	0.000000	96.000000	64.000000	5.000000	-10.000000
1.310000	59.880000	12.360000	0.000000	0.000000	96.000000	63.000000	0.000000	-10.000000
1.320000	59.790000	12.270000	0.000000	0.000000	98.000000	63.000000	-9.000000	-9.000000
1.330000	59.720000	12.270000	0.000000	0.000000	98.000000	63.000000	-7.000000	0.000000
1.340000	59.650000	12.210000	0.000000	0.000000	98.000000	63.000000	-7.000000	-6.000000
1.350000	59.580000	12.160000	0.000000	0.000000	98.000000	64.000000	-7.000000	-5.000000
1.360000	59.520000	12.110000	0.000000	0.000000	98.000000	64.000000	-6.000000	-5.000000
1.370000	59.520000	12.110000	0.000000	0.000000	98.000000	64.000000	0.000000	0.000000
1.380000	59.440000	12.110000	0.000000	0.000000	98.000000	64.000000	-8.000000	0.000000
1.390000	59.440000	12.110000	0.000000	0.000000	98.000000	64.000000	0.000000	0.000000
1.400000	59.360000	12.110000	0.000000	0.000000	96.000000	64.000000	-8.000000	0.000000
1.410000	59.300000	12.110000	0.000000	0.000000	96.000000	64.000000	-6.000000	0.000000
1.420000	59.220000	12.110000	0.000000	0.000000	96.000000	64.000000	-8.000000	0.000000
1.430000	59.110000	12.060000	0.000000	0.000000	96.000000	64.000000	-11.000000	-5.000000
1.440000	59.020000	11.980000	0.000000	0.000000	96.000000	64.000000	-9.000000	-8.000000
1.450000	58.950000	11.980000	0.000000	0.000000	96.000000	64.000000	-7.000000	0.000000
1.460000	58.950000	11.980000	0.000000	0.000000	96.000000	64.000000	0.000000	0.000000
1.470000	58.950000	11.980000	0.000000	0.000000	96.000000	65.000000	0.000000	0.000000
1.480000	59.020000	11.980000	0.000000	0.000000	96.000000	65.000000	7.000000	0.000000
1.490000	59.020000	11.980000	0.000000	0.000000	96.000000	65.000000	0.000000	0.000000
1.500000	59.020000	11.980000	0.000000	0.000000	96.000000	65.000000	0.000000	0.000000
1.510000	59.020000	11.980000	0.000000	0.000000	96.000000	65.000000	0.000000	0.000000
1.520000	59.020000	11.980000	0.000000	0.000000	96.000000	65.000000	0.000000	0.000000
1.530000	59.020000	11.980000	0.000000	0.000000	94.000000	65.000000	0.000000	0.000000
1.540000	59.020000	11.980000	0.000000	0.000000	94.000000	65.000000	0.000000	0.000000
1.550000	59.020000	11.980000	0.000000	0.000000	94.000000	65.000000	0.000000	0.000000
1.560000	59.020000	11.980000	0.000000	0.000000	94.000000	66.000000	0.000000	0.000000
1.570000	59.020000	11.980000	0.000000	0.000000	94.000000	66.000000	0.000000	0.000000
1.580000	59.020000	11.980000	0.000000	0.000000	94.000000	66.000000	0.000000	0.000000
1.590000	59.020000	11.980000	0.000000	0.000000	94.000000	66.000000	0.000000	0.000000
1.600000	59.300000	12.220000	0.000000	0.000000	94.000000	66.000000	28.000000	24.000000
1.610000	59.360000	12.350000	0.000000	0.000000	94.000000	66.000000	6.000000	13.000000
1.620000	59.360000	12.530000	0.000000	0.000000	94.000000	65.000000	0.000000	18.000000
1.630000	59.450000	12.740000	0.000000	0.000000	94.000000	65.000000	9.000000	21.000000
1.640000	59.500000	12.960000	0.000000	0.000000	94.000000	65.000000	5.000000	22.000000
1.650000	59.500000	13.170000	0.000000	0.000000	94.000000	65.000000	0.000000	21.000000
1.660000	59.500000	13.330000	0.000000	0.000000	96.000000	65.000000	0.000000	16.000000
1.670000	59.590000	13.420000	0.000000	0.000000	96.000000	64.000000	9.000000	9.000000
1.680000	59.590000	13.420000	117.000000	1.000000	96.000000	64.000000	0.000000	0.000000
1.690000	59.590000	13.420000	196.000000	0.000000	96.000000	64.000000	0.000000	0.000000
1.700000	59.590000	13.420000	287.000000	0.000000	96.000000	64.000000	0.000000	0.000000
1.710000	59.590000	13.420000	343.000000	0.000000	96.000000	64.000000	0.000000	0.000000
1.720000	59.540000	12.920000	388.000000	0.000000	96.000000	64.000000	-5.000000	-50.000000
1.730000	59.470000	12.560000	428.000000	0.000000	94.000000	64.000000	-7.000000	-36.000000
1.740000	59.470000	12.170000	449.000000	0.000000	94.000000	63.000000	0.000000	-39.000000
1.750000	59.470000	11.800000	447.000000	0.000000	94.000000	63.000000	0.000000	-37.000000
1.760000	59.520000	11.630000	442.000000	0.000000	94.000000	63.000000	5.000000	-17.000000
1.770000	59.680000	11.570000	441.000000	0.000000	94.000000	63.000000	16.000000	-6.000000
1.780000	59.880000	11.630000	436.000000	0.000000	92.000000	63.000000	20.000000	6.000000
1.790000	60.130000	11.830000	409.000000	0.000000	92.000000	63.000000	25.000000	20.000000
1.800000	60.340000	12.130000	340.000000	0.000000	92.000000	63.000000	21.000000	30.000000
1.810000	60.500000	12.410000	160.000000	0.000000	92.000000	63.000000	16.000000	28.000000
1.820000	60.500000	12.410000	0.000000	1.000000	92.000000	64.000000	0.000000	0.000000
1.830000	60.500000	12.740000	0.000000	0.000000	92.000000	64.000000	0.000000	33.000000
1.840000	60.380000	12.740000	0.000000	0.000000	92.000000	64.000000	-12.000000	0.000000
1.850000	60.180000	12.600000	0.000000	0.000000	92.000000	64.000000	-20.000000	-14.000000
1.860000	59.980000	12.470000	0.000000	0.000000	92.000000	64.000000	-20.000000	-13.000000
1.870000	59.980000	12.470000	0.000000	0.000000	92.000000	65.000000	0.000000	0.000000
1.880000	59.590000	12.240000	0.000000	0.000000	94.000000	65.000000	-39.000000	-23.000000
1.890000	59.460000	12.160000	0.000000	0.000000	94.000000	65.000000	-13.000000	-8.000000
1.900000	59.460000	12.160000	254.000000	1.000000	94.000000	65.000000	0.000000	0.000000
1.910000	59.460000	12.160000	309.000000	0.000000	94.000000	65.000000	0.000000	0.000000
1.920000	59.460000	12.160000	389.000000	0.000000	94.000000	65.000000	0.000000	0.000000
1.930000	59.460000	12.160000	422.000000	0.000000	94.000000	65.000000	0.000000	0.000000
1.940000	59.490000	12.550000	412.000000	0.000000	94.000000	64.000000	3.000000	39.000000
1.950000	59.720000	12.850000	349.000000	0.000000	94.000000	64.000000	23.000000	30.000000
1.960000	60.020000	13.170000	216.000000	0.000000	94.000000	64.000000	30.000000	32.000000
1.970000	60.210000	13.460000	103.000000	0.000000	94.000000	63.000000	19.000000	29.000000
1.980000	60.260000	13.610000	55.000000	0.000000	94.000000	63.000000	5.000000	15.000000
1.990000	60.210000	13.670000	108.000000	0.000000	94.000000	63.000000	-5.000000	6.000000
2.000000	60.030000	13.670000	196.000000	0.000000	94.000000	62.000000	-18.000000	0.000000
2.010000	59.820000	13.620000	319.000000	0.000000	94.000000	62.000000	-21.000000	-5.000000
2.020000	59.590000	13.620000	382.000000	0.000000	94.000000	62.000000	-23.000000	0.000000
2.030000	59.590000	13.620000	397.000000	0.000000	94.000000	62.000000	0.000000	0.000000
2.040000	59.590000	13.700000	405.000000	0.000000	94.000000	62.000000	0.000000	8.000000
2.050000	59.740000	13.870000	410.000000	0.000000	94.000000	62.000000	15.000000	17.000000
2.060000	60.030000	14.080000	405.000000	0.000000	94.000000	62.000000	29.000000	21.000000
2.070000	60.390000	14.310000	407.000000	0.000000	94.000000	62.000000	36.000000	23.000000
2.080000	60.700000	14.410000	412.000000	0.000000	96.000000	62.000000	31.000000	10.000000
2.090000	60.910000	14.410000	422.000000	0.000000	96.000000	62.000000	21.000000	0.000000
2.100000	61.050000	14.410000	478.000000	0.000000	96.000000	62.000000	14.000000	0.000000
2.110000	61.050000	14.240000	521.000000	0.000000	96.000000	63.000000	0.000000	-17.000000
2.120000	61.050000	13.950000	569.000000	0.000000	96.000000	63.000000	0.000000	-29.000000
2.130000	60.990000	13.560000	569.000000	0.000000	96.000000	63.000000	-6.000000	-39.000000
2.140000	60.990000	13.170000	543.000000	0.000000	96.000000	63.000000	0.000000	-39.000000
2.150000	60.990000	12.920000	465.000000	0.000000	94.000000	63.000000	0.000000	-25.000000
2.160000	60.990000	12.770000	371.000000	0.000000	94.000000	63.000000	0.000000	-15.000000
2.170000	61.190000	12.770000	274.000000	0.000000	94.000000	63.000000	20.000000	0.000000
2.180000	61.380000	12.870000	131.000000	0.000000	92.000000	63.000000	19.000000	10.000000
2.190000	61.380000	12.870000	0.000000	1.000000	92.000000	64.000000	0.000000	0.000000
2.200000	61.950000	13.460000	0.000000	0.000000	92.000000	64.000000	57.000000	59.000000
2.210000	62.220000	13.810000	0.000000	0.000000	92.000000	64.000000	27.000000	35.000000
2.220000	62.470000	14.150000	0.000000	0.000000	92.000000	64.000000	25.000000	34.000000
2.230000	62.740000	14.460000	0.000000	0.000000	94.000000	64.000000	27.000000	31.000000
2.240000	63.010000	14.710000	0.000000	0.000000	96.000000	64.000000	27.000000	25.000000
2.250000	63.220000	14.830000	0.000000	0.000000	98.000000	64.000000	21.000000	12.000000
