t	x	y	pressure	penup	azimuth	inclination	v_x	v_y
0.000000	13.970000	10.940000	34.000000	1.000000	135.000000	64.000000	0.000000	0.000000
0.010000	14.230000	10.430000	175.000000	0.000000	135.000000	64.000000	26.000000	-51.000000
0.020000	14.300000	10.430000	284.000000	0.000000	133.000000	65.000000	7.000000	0.000000
0.030000	14.300000	10.600000	369.000000	0.000000	135.000000	65.000000	0.000000	17.000000
0.040000	14.300000	10.890000	448.000000	0.000000	135.000000	65.000000	0.000000	29.000000
0.050000	14.350000	11.500000	480.000000	0.000000	133.000000	66.000000	5.000000	61.000000
0.060000	14.240000	12.320000	504.000000	0.000000	133.000000	66.000000	-11.000000	82.000000
0.070000	14.050000	13.170000	518.000000	0.000000	133.000000	66.000000	-19.000000	85.000000
0.080000	13.850000	13.850000	513.000000	0.000000	132.000000	65.000000	-20.000000	68.000000
0.090000	13.590000	14.430000	519.000000	0.000000	132.000000	65.000000	-26.000000	58.000000
0.100000	13.290000	14.780000	485.000000	0.000000	130.000000	65.000000	-30.000000	35.000000
0.110000	12.900000	14.960000	467.000000	0.000000	129.000000	64.000000	-39.000000	18.000000
0.120000	12.510000	15.040000	461.000000	0.000000	127.000000	63.000000	-39.000000	8.000000
0.130000	12.110000	15.040000	456.000000	0.000000	127.000000	62.000000	-40.000000	0.000000
0.140000	11.870000	14.990000	455.000000	0.000000	126.000000	61.000000	-24.000000	-5.000000
0.150000	11.800000	14.990000	439.000000	0.000000	126.000000	60.000000	-7.000000	0.000000
0.160000	11.800000	14.940000	422.000000	0.000000	126.000000	60.000000	0.000000	-5.000000
0.170000	11.960000	14.940000	428.000000	0.000000	126.000000	60.000000	16.000000	0.000000
0.180000	12.250000	15.010000	443.000000	0.000000	127.000000	59.000000	29.000000	7.000000
0.190000	12.650000	15.190000	447.000000	0.000000	127.000000	59.000000	40.000000	18.000000
0.200000	13.060000	15.520000	453.000000	0.000000	127.000000	59.000000	41.000000	33.000000
0.210000	13.390000	16.010000	469.000000	0.000000	127.000000	59.000000	33.000000	49.000000
0.220000	13.660000	16.610000	485.000000	0.000000	127.000000	59.000000	27.000000	60.000000
0.230000	13.870000	17.150000	493.000000	0.000000	125.000000	59.000000	21.000000	54.000000
0.240000	13.980000	17.500000	489.000000	0.000000	124.000000	60.000000	11.000000	35.000000
0.250000	13.980000	17.720000	512.000000	0.000000	122.000000	60.000000	0.000000	22.000000
0.260000	13.980000	17.720000	515.000000	0.000000	122.000000	61.000000	0.000000	0.000000
0.270000	13.980000	17.720000	504.000000	0.000000	118.000000	62.000000	0.000000	0.000000
0.280000	13.980000	17.380000	498.000000	0.000000	116.000000	63.000000	0.000000	-34.000000
0.290000	13.980000	16.890000	491.000000	0.000000	116.000000	63.000000	0.000000	-49.000000
0.300000	14.040000	16.140000	470.000000	0.000000	116.000000	63.000000	6.000000	-75.000000
0.310000	14.250000	15.350000	449.000000	0.000000	117.000000	63.000000	21.000000	-79.000000
0.320000	14.550000	14.500000	440.000000	0.000000	119.000000	63.000000	30.000000	-85.000000
0.330000	14.790000	13.670000	423.000000	0.000000	120.000000	64.000000	24.000000	-83.000000
0.340000	15.040000	13.010000	423.000000	0.000000	122.000000	63.000000	25.000000	-66.000000
0.350000	15.250000	12.440000	413.000000	0.000000	124.000000	64.000000	21.000000	-57.000000
0.360000	15.420000	12.320000	422.000000	0.000000	125.000000	65.000000	17.000000	-12.000000
0.370000	15.480000	12.480000	443.000000	0.000000	125.000000	65.000000	6.000000	16.000000
0.380000	15.480000	12.830000	472.000000	0.000000	126.000000	66.000000	0.000000	35.000000
0.390000	15.480000	13.400000	483.000000	0.000000	124.000000	66.000000	0.000000	57.000000
0.400000	15.530000	13.980000	515.000000	0.000000	124.000000	66.000000	5.000000	58.000000
0.410000	15.530000	14.570000	518.000000	0.000000	124.000000	66.000000	0.000000	59.000000
0.420000	15.590000	14.900000	540.000000	0.000000	123.000000	65.000000	6.000000	33.000000
0.430000	15.590000	15.040000	546.000000	0.000000	123.000000	65.000000	0.000000	14.000000
0.440000	15.590000	15.040000	546.000000	0.000000	125.000000	65.000000	0.000000	0.000000
0.450000	15.590000	14.940000	533.000000	0.000000	124.000000	64.000000	0.000000	-10.000000
0.460000	15.590000	14.760000	519.000000	0.000000	124.000000	64.000000	0.000000	-18.000000
0.470000	15.640000	14.490000	501.000000	0.000000	124.000000	64.000000	5.000000	-27.000000
0.480000	15.690000	14.180000	499.000000	0.000000	124.000000	64.000000	5.000000	-31.000000
0.490000	15.800000	13.820000	494.000000	0.000000	122.000000	63.000000	11.000000	-36.000000
0.500000	15.940000	13.380000	496.000000	0.000000	122.000000	63.000000	14.000000	-44.000000
0.510000	16.080000	12.940000	499.000000	0.000000	120.000000	64.000000	14.000000	-44.000000
0.520000	16.170000	12.690000	492.000000	0.000000	120.000000	64.000000	9.000000	-25.000000
0.530000	16.270000	12.580000	499.000000	0.000000	119.000000	63.000000	10.000000	-11.000000
0.540000	16.270000	12.630000	510.000000	0.000000	118.000000	62.000000	0.000000	5.000000
0.550000	16.220000	12.880000	513.000000	0.000000	117.000000	61.000000	-5.000000	25.000000
0.560000	16.070000	13.260000	537.000000	0.000000	117.000000	61.000000	-15.000000	38.000000
0.570000	15.970000	13.840000	561.000000	0.000000	116.000000	60.000000	-10.000000	58.000000
0.580000	15.860000	14.410000	560.000000	0.000000	116.000000	60.000000	-11.000000	57.000000
0.590000	15.730000	14.940000	584.000000	0.000000	117.000000	61.000000	-13.000000	53.000000
0.600000	15.730000	15.290000	597.000000	0.000000	117.000000	61.000000	0.000000	35.000000
0.610000	15.730000	15.530000	591.000000	0.000000	120.000000	62.000000	0.000000	24.000000
0.620000	15.730000	15.660000	577.000000	0.000000	121.000000	63.000000	0.000000	13.000000
0.630000	15.730000	15.660000	561.000000	0.000000	123.000000	62.000000	0.000000	0.000000
0.640000	15.730000	15.660000	568.000000	0.000000	124.000000	63.000000	0.000000	0.000000
0.650000	15.980000	15.280000	567.000000	0.000000	124.000000	63.000000	25.000000	-38.000000
0.660000	16.170000	14.910000	563.000000	0.000000	124.000000	62.000000	19.000000	-37.000000
0.670000	16.420000	14.440000	566.000000	0.000000	122.000000	61.000000	25.000000	-47.000000
0.680000	16.670000	14.000000	569.000000	0.000000	120.000000	60.000000	25.000000	-44.000000
0.690000	16.920000	13.670000	563.000000	0.000000	119.000000	60.000000	25.000000	-33.000000
0.700000	17.090000	13.420000	520.000000	0.000000	117.000000	59.000000	17.000000	-25.000000
0.710000	17.200000	13.260000	344.000000	0.000000	116.000000	58.000000	11.000000	-16.000000
0.720000	17.200000	13.260000	0.000000	1.000000	114.000000	59.000000	0.000000	0.000000
0.730000	17.110000	13.260000	0.000000	0.000000	113.000000	58.000000	-9.000000	0.000000
0.740000	16.900000	13.320000	0.000000	0.000000	113.000000	58.000000	-21.000000	6.000000
0.750000	16.480000	13.410000	0.000000	0.000000	113.000000	58.000000	-42.000000	9.000000
0.760000	16.080000	13.510000	0.000000	0.000000	114.000000	59.000000	-40.000000	10.000000
0.770000	15.680000	13.510000	0.000000	0.000000	115.000000	60.000000	-40.000000	0.000000
0.780000	15.680000	13.510000	0.000000	0.000000	118.000000	60.000000	0.000000	0.000000
0.790000	15.400000	13.440000	0.000000	0.000000	122.000000	61.000000	-28.000000	-7.000000
0.800000	15.470000	13.380000	0.000000	0.000000	123.000000	62.000000	7.000000	-6.000000
0.810000	15.470000	13.380000	389.000000	1.000000	126.000000	62.000000	0.000000	0.000000
0.820000	15.470000	13.380000	412.000000	0.000000	127.000000	63.000000	0.000000	0.000000
0.830000	15.470000	13.380000	445.000000	0.000000	129.000000	64.000000	0.000000	0.000000
0.840000	15.840000	13.360000	493.000000	0.000000	127.000000	64.000000	37.000000	-2.000000
0.850000	16.130000	13.530000	510.000000	0.000000	127.000000	64.000000	29.000000	17.000000
0.860000	16.670000	13.780000	384.000000	0.000000	125.000000	64.000000	54.000000	25.000000
0.870000	17.230000	14.010000	60.000000	0.000000	121.000000	63.000000	56.000000	23.000000
0.880000	17.230000	14.010000	0.000000	1.000000	120.000000	62.000000	0.000000	0.000000
0.890000	18.440000	14.520000	0.000000	0.000000	119.000000	61.000000	121.000000	51.000000
0.900000	18.920000	14.800000	0.000000	0.000000	120.000000	60.000000	48.000000	28.000000
0.910000	19.290000	15.070000	0.000000	0.000000	121.000000	59.000000	37.000000	27.000000
0.920000	19.560000	15.350000	0.000000	0.000000	121.000000	58.000000	27.000000	28.000000
0.930000	19.690000	15.630000	0.000000	0.000000	122.000000	57.000000	13.000000	28.000000
0.940000	19.690000	15.750000	0.000000	0.000000	122.000000	56.000000	0.000000	12.000000
0.950000	19.640000	15.750000	0.000000	0.000000	124.000000	55.000000	-5.000000	0.000000
0.960000	19.510000	15.580000	0.000000	0.000000	125.000000	55.000000	-13.000000	-17.000000
0.970000	19.340000	15.390000	0.000000	0.000000	126.000000	54.000000	-17.000000	-19.000000
0.980000	19.190000	15.200000	0.000000	0.000000	128.000000	54.000000	-15.000000	-19.000000
0.990000	19.080000	15.090000	0.000000	0.000000	127.000000	53.000000	-11.000000	-11.000000
1.000000	19.080000	15.090000	212.000000	1.000000	126.000000	54.000000	0.000000	0.000000
1.010000	19.080000	15.090000	344.000000	0.000000	125.000000	55.000000	0.000000	0.000000
1.020000	19.080000	15.090000	359.000000	0.000000	124.000000	55.000000	0.000000	0.000000
1.030000	19.080000	15.090000	404.000000	0.000000	122.000000	56.000000	0.000000	0.000000
1.040000	19.090000	14.810000	439.000000	0.000000	122.000000	57.000000	1.000000	-28.000000
1.050000	19.270000	14.520000	453.000000	0.000000	120.000000	57.000000	18.000000	-29.000000
1.060000	19.470000	14.200000	458.000000	0.000000	119.000000	58.000000	20.000000	-32.000000
1.070000	19.680000	13.960000	455.000000	0.000000	117.000000	58.000000	21.000000	-24.000000
1.080000	19.820000	13.770000	417.000000	0.000000	116.000000	58.000000	14.000000	-19.000000
1.090000	19.920000	13.690000	249.000000	0.000000	114.000000	59.000000	10.000000	-8.000000
1.100000	19.920000	13.690000	0.000000	1.000000	114.000000	59.000000	0.000000	0.000000
1.110000	19.670000	13.610000	0.000000	0.000000	114.000000	59.000000	-25.000000	-8.000000
1.120000	19.370000	13.780000	0.000000	0.000000	114.000000	59.000000	-30.000000	17.000000
1.130000	19.030000	14.040000	0.000000	0.000000	114.000000	59.000000	-34.000000	26.000000
1.140000	18.740000	14.350000	0.000000	0.000000	114.000000	59.000000	-29.000000	31.000000
1.150000	18.550000	14.690000	0.000000	0.000000	116.000000	58.000000	-19.000000	34.000000
1.160000	18.430000	14.930000	0.000000	0.000000	117.000000	58.000000	-12.000000	24.000000
1.170000	18.430000	15.120000	0.000000	0.000000	119.000000	58.000000	0.000000	19.000000
1.180000	18.430000	15.120000	34.000000	1.000000	120.000000	57.000000	0.000000	0.000000
1.190000	18.430000	15.400000	373.000000	0.000000	122.000000	57.000000	0.000000	28.000000
1.200000	18.430000	15.640000	415.000000	0.000000	122.000000	57.000000	0.000000	24.000000
1.210000	18.430000	15.760000	469.000000	0.000000	123.000000	56.000000	0.000000	12.000000
1.220000	18.430000	15.760000	538.000000	0.000000	123.000000	56.000000	0.000000	0.000000
1.230000	18.520000	15.860000	550.000000	0.000000	121.000000	56.000000	9.000000	10.000000
1.240000	18.710000	15.860000	561.000000	0.000000	121.000000	56.000000	19.000000	0.000000
1.250000	19.040000	15.920000	559.000000	0.000000	121.000000	56.000000	33.000000	6.000000
1.260000	19.450000	15.920000	550.000000	0.000000	121.000000	56.000000	41.000000	0.000000
1.270000	19.810000	15.790000	526.000000	0.000000	119.000000	56.000000	36.000000	-13.000000
1.280000	20.090000	15.550000	491.000000	0.000000	119.000000	56.000000	28.000000	-24.000000
1.290000	20.310000	15.220000	485.000000	0.000000	119.000000	56.000000	22.000000	-33.000000
1.300000	20.310000	14.760000	493.000000	0.000000	118.000000	57.000000	0.000000	-46.000000
1.310000	20.170000	14.270000	491.000000	0.000000	116.000000	57.000000	-14.000000	-49.000000
1.320000	19.970000	13.720000	509.000000	0.000000	116.000000	57.000000	-20.000000	-55.000000
1.330000	19.770000	13.350000	504.000000	0.000000	116.000000	58.000000	-20.000000	-37.000000
1.340000	19.600000	13.090000	465.000000	0.000000	114.000000	59.000000	-17.000000	-26.000000
1.350000	19.460000	13.090000	304.000000	0.000000	114.000000	59.000000	-14.000000	0.000000
1.360000	19.370000	13.320000	37.000000	0.000000	113.000000	59.000000	-9.000000	23.000000
1.370000	19.370000	13.320000	0.000000	1.000000	113.000000	59.000000	0.000000	0.000000
1.380000	19.640000	14.240000	0.000000	0.000000	113.000000	59.000000	27.000000	92.000000
1.390000	19.820000	14.710000	0.000000	0.000000	114.000000	59.000000	18.000000	47.000000
1.400000	20.010000	15.130000	0.000000	0.000000	114.000000	59.000000	19.000000	42.000000
1.410000	20.200000	15.510000	0.000000	0.000000	116.000000	58.000000	19.000000	38.000000
1.420000	20.200000	15.510000	186.000000	1.000000	116.000000	58.000000	0.000000	0.000000
1.430000	20.390000	16.100000	264.000000	0.000000	117.000000	58.000000	19.000000	59.000000
1.440000	20.390000	16.170000	344.000000	0.000000	119.000000	58.000000	0.000000	7.000000
1.450000	20.390000	16.120000	423.000000	0.000000	120.000000	57.000000	0.000000	-5.000000
1.460000	20.340000	15.980000	466.000000	0.000000	120.000000	57.000000	-5.000000	-14.000000
1.470000	20.340000	15.790000	465.000000	0.000000	120.000000	57.000000	0.000000	-19.000000
1.480000	20.340000	15.540000	475.000000	0.000000	120.000000	57.000000	0.000000	-25.000000
1.490000	20.440000	15.260000	495.000000	0.000000	120.000000	57.000000	10.000000	-28.000000
1.500000	20.600000	14.990000	517.000000	0.000000	119.000000	58.000000	16.000000	-27.000000
1.510000	20.860000	14.800000	521.000000	0.000000	119.000000	58.000000	26.000000	-19.000000
1.520000	21.190000	14.670000	537.000000	0.000000	117.000000	58.000000	33.000000	-13.000000
1.530000	21.530000	14.550000	546.000000	0.000000	116.000000	58.000000	34.000000	-12.000000
1.540000	21.820000	14.550000	535.000000	0.000000	114.000000	59.000000	29.000000	0.000000
1.550000	22.030000	14.600000	465.000000	0.000000	115.000000	60.000000	21.000000	5.000000
1.560000	22.200000	14.750000	254.000000	0.000000	113.000000	60.000000	17.000000	15.000000
1.570000	22.200000	14.750000	0.000000	1.000000	113.000000	60.000000	0.000000	0.000000
1.580000	22.040000	15.190000	0.000000	0.000000	113.000000	60.000000	-16.000000	44.000000
1.590000	21.730000	15.300000	0.000000	0.000000	113.000000	60.000000	-31.000000	11.000000
1.600000	21.260000	15.430000	0.000000	0.000000	115.000000	60.000000	-47.000000	13.000000
1.610000	20.810000	15.570000	0.000000	0.000000	117.000000	59.000000	-45.000000	14.000000
1.620000	20.410000	15.570000	0.000000	0.000000	117.000000	58.000000	-40.000000	0.000000
1.630000	20.110000	15.620000	0.000000	0.000000	119.000000	58.000000	-30.000000	5.000000
1.640000	19.910000	15.620000	0.000000	0.000000	122.000000	57.000000	-20.000000	0.000000
1.650000	19.790000	15.550000	0.000000	0.000000	123.000000	56.000000	-12.000000	-7.000000
1.660000	19.790000	15.550000	0.000000	0.000000	122.000000	56.000000	0.000000	0.000000
1.670000	19.790000	15.550000	260.000000	1.000000	124.000000	55.000000	0.000000	0.000000
1.680000	19.790000	15.550000	363.000000	0.000000	122.000000	56.000000	0.000000	0.000000
1.690000	19.790000	15.550000	415.000000	0.000000	122.000000	56.000000	0.000000	0.000000
1.700000	19.790000	15.550000	492.000000	0.000000	121.000000	56.000000	0.000000	0.000000
1.710000	20.040000	15.590000	551.000000	0.000000	119.000000	56.000000	25.000000	4.000000
1.720000	20.360000	15.650000	562.000000	0.000000	119.000000	56.000000	32.000000	6.000000
1.730000	20.690000	15.810000	536.000000	0.000000	119.000000	58.000000	33.000000	16.000000
1.740000	21.060000	15.990000	452.000000	0.000000	119.000000	58.000000	37.000000	18.000000
1.750000	21.290000	16.190000	274.000000	0.000000	117.000000	58.000000	23.000000	20.000000
1.760000	21.290000	16.190000	0.000000	1.000000	117.000000	58.000000	0.000000	0.000000
1.770000	21.440000	16.390000	0.000000	0.000000	119.000000	58.000000	15.000000	20.000000
1.780000	21.210000	16.310000	0.000000	0.000000	119.000000	58.000000	-23.000000	-8.000000
1.790000	20.850000	16.120000	0.000000	0.000000	119.000000	58.000000	-36.000000	-19.000000
1.800000	20.480000	15.950000	0.000000	0.000000	120.000000	57.000000	-37.000000	-17.000000
1.810000	20.100000	15.800000	0.000000	0.000000	120.000000	57.000000	-38.000000	-15.000000
1.820000	19.890000	15.800000	0.000000	0.000000	122.000000	57.000000	-21.000000	0.000000
1.830000	19.790000	15.800000	0.000000	0.000000	121.000000	56.000000	-10.000000	0.000000
1.840000	19.790000	15.860000	0.000000	0.000000	121.000000	56.000000	0.000000	6.000000
1.850000	19.790000	15.860000	254.000000	1.000000	122.000000	56.000000	0.000000	0.000000
1.860000	19.910000	16.360000	324.000000	0.000000	121.000000	56.000000	12.000000	50.000000
1.870000	20.060000	16.600000	448.000000	0.000000	121.000000	56.000000	15.000000	24.000000
1.880000	20.350000	16.810000	535.000000	0.000000	119.000000	56.000000	29.000000	21.000000
1.890000	20.740000	16.990000	563.000000	0.000000	116.000000	57.000000	39.000000	18.000000
1.900000	21.110000	17.140000	591.000000	0.000000	115.000000	58.000000	37.000000	15.000000
1.910000	21.440000	17.220000	597.000000	0.000000	113.000000	58.000000	33.000000	8.000000
1.920000	21.740000	17.220000	595.000000	0.000000	110.000000	58.000000	30.000000	0.000000
1.930000	21.880000	17.090000	594.000000	0.000000	109.000000	60.000000	14.000000	-13.000000
1.940000	22.030000	16.830000	588.000000	0.000000	108.000000	60.000000	15.000000	-26.000000
1.950000	22.110000	16.470000	583.000000	0.000000	108.000000	60.000000	8.000000	-36.000000
1.960000	22.110000	16.070000	580.000000	0.000000	108.000000	60.000000	0.000000	-40.000000
1.970000	22.160000	15.660000	586.000000	0.000000	110.000000	60.000000	5.000000	-41.000000
1.980000	22.230000	15.280000	586.000000	0.000000	110.000000	60.000000	7.000000	-38.000000
1.990000	22.350000	14.990000	594.000000	0.000000	112.000000	60.000000	12.000000	-29.000000
2.000000	22.490000	14.730000	603.000000	0.000000	112.000000	60.000000	14.000000	-26.000000
2.010000	22.630000	14.630000	616.000000	0.000000	113.000000	60.000000	14.000000	-10.000000
2.020000	22.850000	14.630000	592.000000	0.000000	113.000000	60.000000	22.000000	0.000000
2.030000	23.060000	14.720000	546.000000	0.000000	113.000000	60.000000	21.000000	9.000000
2.040000	23.240000	14.960000	334.000000	0.000000	113.000000	60.000000	18.000000	24.000000
2.050000	23.240000	14.960000	0.000000	1.000000	113.000000	60.000000	0.000000	0.000000
2.060000	23.470000	15.390000	0.000000	0.000000	113.000000	60.000000	23.000000	43.000000
2.070000	23.470000	15.520000	0.000000	0.000000	113.000000	60.000000	0.000000	13.000000
2.080000	23.200000	15.610000	0.000000	0.000000	115.000000	60.000000	-27.000000	9.000000
2.090000	22.970000	15.980000	0.000000	0.000000	117.000000	59.000000	-23.000000	37.000000
2.100000	23.060000	16.540000	0.000000	0.000000	118.000000	59.000000	9.000000	56.000000
2.110000	23.370000	17.390000	0.000000	0.000000	118.000000	59.000000	31.000000	85.000000
2.120000	23.240000	18.240000	0.000000	0.000000	117.000000	58.000000	-13.000000	85.000000
2.130000	23.540000	19.100000	0.000000	0.000000	116.000000	58.000000	30.000000	86.000000
2.140000	24.130000	19.860000	0.000000	0.000000	114.000000	59.000000	59.000000	76.000000
2.150000	24.520000	20.570000	0.000000	0.000000	111.000000	59.000000	39.000000	71.000000
2.160000	24.920000	21.220000	0.000000	0.000000	107.000000	59.000000	40.000000	65.000000
2.170000	25.350000	21.620000	0.000000	0.000000	104.000000	60.000000	43.000000	40.000000
2.180000	25.790000	21.850000	0.000000	0.000000	101.000000	61.000000	44.000000	23.000000
2.190000	26.390000	21.800000	0.000000	0.000000	98.000000	59.000000	60.000000	-5.000000
2.200000	26.800000	21.480000	0.000000	0.000000	100.000000	58.000000	41.000000	-32.000000
2.210000	27.070000	20.980000	0.000000	0.000000	100.000000	56.000000	27.000000	-50.000000
2.220000	27.070000	20.210000	0.000000	0.000000	100.000000	55.000000	0.000000	-77.000000
