t	x	y	pressure	penup	azimuth	inclination	v_x	v_y
0.000000	52.330000	9.830000	53.000000	1.000000	90.000000	52.000000	0.000000	0.000000
0.010000	52.330000	9.440000	245.000000	0.000000	90.000000	52.000000	0.000000	-39.000000
0.020000	52.190000	9.330000	279.000000	0.000000	90.000000	53.000000	-14.000000	-11.000000
0.030000	52.190000	9.330000	304.000000	0.000000	90.000000	53.000000	0.000000	0.000000
0.040000	52.190000	9.330000	341.000000	0.000000	90.000000	53.000000	0.000000	0.000000
0.050000	52.310000	9.330000	367.000000	0.000000	91.000000	53.000000	12.000000	0.000000
0.060000	52.420000	9.450000	394.000000	0.000000	91.000000	54.000000	11.000000	12.000000
0.070000	52.550000	9.620000	404.000000	0.000000	91.000000	54.000000	13.000000	17.000000
0.080000	52.690000	10.050000	418.000000	0.000000	90.000000	54.000000	14.000000	43.000000
0.090000	52.830000	10.660000	440.000000	0.000000	90.000000	54.000000	14.000000	61.000000
0.100000	52.970000	11.470000	445.000000	0.000000	90.000000	54.000000	14.000000	81.000000
0.110000	53.070000	12.510000	443.000000	0.000000	90.000000	54.000000	10.000000	104.000000
0.120000	53.140000	13.700000	418.000000	0.000000	89.000000	54.000000	7.000000	119.000000
0.130000	53.090000	14.940000	394.000000	0.000000	90.000000	54.000000	-5.000000	124.000000
0.140000	52.910000	16.300000	322.000000	0.000000	90.000000	54.000000	-18.000000	136.000000
0.150000	52.650000	17.740000	306.000000	0.000000	90.000000	54.000000	-26.000000	144.000000
0.160000	52.490000	18.510000	309.000000	0.000000	91.000000	53.000000	-16.000000	77.000000
0.170000	52.330000	18.750000	320.000000	0.000000	93.000000	53.000000	-16.000000	24.000000
0.180000	52.170000	18.640000	344.000000	0.000000	95.000000	53.000000	-16.000000	-11.000000
0.190000	52.030000	18.400000	364.000000	0.000000	97.000000	53.000000	-14.000000	-24.000000
0.200000	51.910000	17.940000	379.000000	0.000000	98.000000	53.000000	-12.000000	-46.000000
0.210000	51.910000	17.330000	398.000000	0.000000	99.000000	52.000000	0.000000	-61.000000
0.220000	51.970000	16.610000	425.000000	0.000000	99.000000	52.000000	6.000000	-72.000000
0.230000	52.090000	15.680000	460.000000	0.000000	99.000000	52.000000	12.000000	-93.000000
0.240000	52.260000	14.620000	478.000000	0.000000	99.000000	52.000000	17.000000	-106.000000
0.250000	52.450000	13.860000	495.000000	0.000000	98.000000	52.000000	19.000000	-76.000000
0.260000	52.650000	13.170000	498.000000	0.000000	97.000000	53.000000	20.000000	-69.000000
0.270000	52.880000	12.520000	488.000000	0.000000	95.000000	53.000000	23.000000	-65.000000
0.280000	53.080000	12.040000	486.000000	0.000000	94.000000	53.000000	20.000000	-48.000000
0.290000	53.250000	11.800000	470.000000	0.000000	93.000000	53.000000	17.000000	-24.000000
0.300000	53.390000	11.730000	467.000000	0.000000	91.000000	53.000000	14.000000	-7.000000
0.310000	53.530000	11.860000	464.000000	0.000000	90.000000	53.000000	14.000000	13.000000
0.320000	53.670000	12.360000	455.000000	0.000000	90.000000	53.000000	14.000000	50.000000
0.330000	53.770000	13.120000	438.000000	0.000000	89.000000	53.000000	10.000000	76.000000
0.340000	53.850000	14.160000	381.000000	0.000000	89.000000	53.000000	8.000000	104.000000
0.350000	53.930000	15.240000	317.000000	0.000000	89.000000	53.000000	8.000000	108.000000
0.360000	53.870000	16.490000	218.000000	0.000000	90.000000	53.000000	-6.000000	125.000000
0.370000	53.710000	17.840000	233.000000	0.000000	90.000000	53.000000	-16.000000	135.000000
0.380000	53.630000	18.670000	245.000000	0.000000	91.000000	53.000000	-8.000000	83.000000
0.390000	53.530000	19.060000	276.000000	0.000000	93.000000	53.000000	-10.000000	39.000000
0.400000	53.420000	19.160000	309.000000	0.000000	94.000000	53.000000	-11.000000	10.000000
0.410000	53.340000	19.160000	320.000000	0.000000	95.000000	53.000000	-8.000000	0.000000
0.420000	53.270000	18.870000	346.000000	0.000000	97.000000	53.000000	-7.000000	-29.000000
0.430000	53.320000	18.440000	376.000000	0.000000	98.000000	53.000000	5.000000	-43.000000
0.440000	53.450000	17.790000	427.000000	0.000000	99.000000	53.000000	13.000000	-65.000000
0.450000	53.610000	16.900000	478.000000	0.000000	99.000000	53.000000	16.000000	-89.000000
0.460000	53.770000	15.860000	515.000000	0.000000	99.000000	53.000000	16.000000	-104.000000
0.470000	53.900000	14.660000	527.000000	0.000000	98.000000	53.000000	13.000000	-120.000000
0.480000	54.020000	13.510000	536.000000	0.000000	97.000000	53.000000	12.000000	-115.000000
0.490000	54.160000	12.550000	543.000000	0.000000	95.000000	53.000000	14.000000	-96.000000
0.500000	54.370000	11.710000	540.000000	0.000000	94.000000	53.000000	21.000000	-84.000000
0.510000	54.630000	11.310000	536.000000	0.000000	93.000000	53.000000	26.000000	-40.000000
0.520000	54.900000	11.110000	512.000000	0.000000	91.000000	53.000000	27.000000	-20.000000
0.530000	55.160000	11.040000	490.000000	0.000000	90.000000	53.000000	26.000000	-7.000000
0.540000	55.460000	11.170000	440.000000	0.000000	90.000000	53.000000	30.000000	13.000000
0.550000	55.690000	11.580000	281.000000	0.000000	89.000000	53.000000	23.000000	41.000000
0.560000	55.880000	12.170000	12.000000	1.000000	89.000000	54.000000	0.000000	0.000000
0.570000	55.880000	12.170000	0.000000	0.000000	87.000000	54.000000	0.000000	0.000000
0.580000	55.990000	13.890000	0.000000	0.000000	87.000000	54.000000	11.000000	172.000000
0.590000	55.910000	14.620000	0.000000	0.000000	86.000000	54.000000	-8.000000	73.000000
0.600000	55.770000	15.260000	0.000000	0.000000	87.000000	54.000000	-14.000000	64.000000
0.610000	55.650000	15.690000	0.000000	0.000000	87.000000	54.000000	-12.000000	43.000000
0.620000	55.560000	15.910000	0.000000	0.000000	87.000000	54.000000	-9.000000	22.000000
0.630000	55.560000	15.990000	0.000000	0.000000	89.000000	54.000000	0.000000	8.000000
0.640000	55.560000	16.090000	0.000000	0.000000	90.000000	53.000000	0.000000	10.000000
0.650000	55.560000	16.180000	0.000000	0.000000	91.000000	53.000000	0.000000	9.000000
0.660000	55.630000	16.260000	0.000000	0.000000	93.000000	53.000000	7.000000	8.000000
0.670000	55.700000	16.380000	0.000000	0.000000	93.000000	53.000000	7.000000	12.000000
0.680000	55.780000	16.480000	0.000000	0.000000	94.000000	53.000000	8.000000	10.000000
0.690000	55.780000	16.640000	0.000000	0.000000	94.000000	53.000000	0.000000	16.000000
0.700000	55.830000	16.830000	0.000000	0.000000	94.000000	53.000000	5.000000	19.000000
0.710000	55.830000	17.020000	0.000000	0.000000	95.000000	53.000000	0.000000	19.000000
0.720000	55.830000	17.190000	0.000000	0.000000	95.000000	53.000000	0.000000	17.000000
0.730000	55.830000	17.190000	0.000000	0.000000	95.000000	53.000000	0.000000	0.000000
0.740000	55.830000	17.190000	78.000000	1.000000	95.000000	53.000000	0.000000	0.000000
0.750000	55.680000	17.610000	160.000000	0.000000	95.000000	53.000000	-15.000000	42.000000
0.760000	55.680000	17.750000	270.000000	0.000000	95.000000	53.000000	0.000000	14.000000
0.770000	55.680000	17.750000	341.000000	0.000000	95.000000	53.000000	0.000000	0.000000
0.780000	55.680000	17.750000	388.000000	0.000000	97.000000	53.000000	0.000000	0.000000
0.790000	55.680000	17.480000	465.000000	0.000000	97.000000	54.000000	0.000000	-27.000000
0.800000	55.680000	17.130000	504.000000	0.000000	98.000000	54.000000	0.000000	-35.000000
0.810000	55.600000	16.560000	519.000000	0.000000	98.000000	54.000000	-8.000000	-57.000000
0.820000	55.520000	16.020000	540.000000	0.000000	98.000000	54.000000	-8.000000	-54.000000
0.830000	55.460000	15.500000	542.000000	0.000000	98.000000	54.000000	-6.000000	-52.000000
0.840000	55.390000	15.080000	542.000000	0.000000	98.000000	54.000000	-7.000000	-42.000000
0.850000	55.340000	14.930000	543.000000	0.000000	97.000000	54.000000	-5.000000	-15.000000
0.860000	55.340000	14.930000	520.000000	0.000000	97.000000	54.000000	0.000000	0.000000
0.870000	55.290000	15.040000	465.000000	0.000000	95.000000	54.000000	-5.000000	11.000000
0.880000	55.290000	15.590000	466.000000	0.000000	94.000000	53.000000	0.000000	55.000000
0.890000	55.290000	16.450000	444.000000	0.000000	94.000000	53.000000	0.000000	86.000000
0.900000	55.390000	17.400000	447.000000	0.000000	94.000000	53.000000	10.000000	95.000000
0.910000	55.390000	18.030000	456.000000	0.000000	95.000000	53.000000	0.000000	63.000000
0.920000	55.500000	18.450000	493.000000	0.000000	97.000000	53.000000	11.000000	42.000000
0.930000	55.500000	18.690000	497.000000	0.000000	97.000000	53.000000	0.000000	24.000000
0.940000	55.500000	18.750000	501.000000	0.000000	98.000000	53.000000	0.000000	6.000000
0.950000	55.600000	18.700000	526.000000	0.000000	99.000000	53.000000	10.000000	-5.000000
0.960000	55.800000	18.540000	540.000000	0.000000	101.000000	53.000000	20.000000	-16.000000
0.970000	56.100000	18.180000	543.000000	0.000000	101.000000	53.000000	30.000000	-36.000000
0.980000	56.390000	17.680000	544.000000	0.000000	102.000000	53.000000	29.000000	-50.000000
0.990000	56.690000	17.230000	535.000000	0.000000	102.000000	53.000000	30.000000	-45.000000
1.000000	56.940000	16.810000	512.000000	0.000000	101.000000	53.000000	25.000000	-42.000000
1.010000	57.150000	16.400000	436.000000	0.000000	101.000000	53.000000	21.000000	-41.000000
1.020000	57.300000	16.110000	312.000000	0.000000	101.000000	53.000000	15.000000	-29.000000
1.030000	57.300000	16.110000	198.000000	0.000000	100.000000	54.000000	0.000000	0.000000
1.040000	57.210000	16.190000	134.000000	0.000000	98.000000	54.000000	-9.000000	8.000000
1.050000	56.900000	16.440000	141.000000	0.000000	97.000000	54.000000	-31.000000	25.000000
1.060000	56.420000	16.710000	148.000000	0.000000	97.000000	54.000000	-48.000000	27.000000
1.070000	55.830000	17.000000	233.000000	0.000000	97.000000	54.000000	-59.000000	29.000000
1.080000	55.230000	17.110000	314.000000	0.000000	97.000000	54.000000	-60.000000	11.000000
1.090000	54.700000	17.060000	371.000000	0.000000	97.000000	54.000000	-53.000000	-5.000000
1.100000	54.430000	16.900000	396.000000	0.000000	98.000000	54.000000	-27.000000	-16.000000
1.110000	54.310000	16.800000	388.000000	0.000000	98.000000	54.000000	-12.000000	-10.000000
1.120000	54.390000	16.800000	407.000000	0.000000	100.000000	54.000000	8.000000	0.000000
1.130000	54.640000	16.800000	422.000000	0.000000	101.000000	53.000000	25.000000	0.000000
1.140000	55.010000	16.800000	443.000000	0.000000	101.000000	53.000000	37.000000	0.000000
1.150000	55.470000	16.900000	448.000000	0.000000	102.000000	53.000000	46.000000	10.000000
1.160000	55.960000	17.020000	448.000000	0.000000	102.000000	53.000000	49.000000	12.000000
1.170000	56.350000	17.120000	363.000000	0.000000	102.000000	53.000000	39.000000	10.000000
1.180000	56.670000	17.120000	107.000000	0.000000	101.000000	53.000000	32.000000	0.000000
1.190000	56.670000	17.120000	0.000000	1.000000	101.000000	53.000000	0.000000	0.000000
1.200000	56.920000	16.900000	0.000000	0.000000	100.000000	54.000000	25.000000	-22.000000
1.210000	56.920000	16.650000	0.000000	0.000000	100.000000	54.000000	0.000000	-25.000000
1.220000	56.800000	16.300000	0.000000	0.000000	98.000000	54.000000	-12.000000	-35.000000
1.230000	56.720000	15.990000	0.000000	0.000000	97.000000	55.000000	-8.000000	-31.000000
1.240000	56.800000	15.700000	0.000000	0.000000	97.000000	55.000000	8.000000	-29.000000
1.250000	56.970000	15.430000	0.000000	0.000000	96.000000	55.000000	17.000000	-27.000000
1.260000	57.130000	15.180000	0.000000	0.000000	96.000000	55.000000	16.000000	-25.000000
1.270000	57.260000	14.950000	0.000000	0.000000	94.000000	55.000000	13.000000	-23.000000
1.280000	57.360000	14.720000	0.000000	0.000000	94.000000	55.000000	10.000000	-23.000000
1.290000	57.410000	14.450000	0.000000	0.000000	94.000000	55.000000	5.000000	-27.000000
1.300000	57.410000	14.150000	0.000000	0.000000	93.000000	55.000000	0.000000	-30.000000
1.310000	57.410000	13.840000	0.000000	0.000000	93.000000	54.000000	0.000000	-31.000000
1.320000	57.410000	13.570000	0.000000	0.000000	93.000000	54.000000	0.000000	-27.000000
1.330000	57.410000	13.400000	0.000000	0.000000	91.000000	54.000000	0.000000	-17.000000
1.340000	57.350000	13.310000	0.000000	0.000000	90.000000	53.000000	-6.000000	-9.000000
1.350000	57.350000	13.400000	0.000000	0.000000	90.000000	54.000000	0.000000	9.000000
1.360000	57.410000	13.540000	0.000000	0.000000	90.000000	54.000000	6.000000	14.000000
1.370000	57.410000	13.740000	0.000000	0.000000	89.000000	54.000000	0.000000	20.000000
1.380000	57.490000	13.950000	0.000000	0.000000	89.000000	54.000000	8.000000	21.000000
1.390000	57.580000	14.150000	0.000000	0.000000	87.000000	54.000000	9.000000	20.000000
1.400000	57.580000	14.150000	168.000000	1.000000	87.000000	54.000000	0.000000	0.000000
1.410000	57.580000	14.150000	233.000000	0.000000	87.000000	54.000000	0.000000	0.000000
1.420000	57.580000	14.150000	339.000000	0.000000	86.000000	53.000000	0.000000	0.000000
1.430000	57.580000	14.150000	361.000000	0.000000	86.000000	52.000000	0.000000	0.000000
1.440000	57.770000	13.840000	379.000000	0.000000	86.000000	52.000000	19.000000	-31.000000
1.450000	57.880000	13.620000	381.000000	0.000000	86.000000	51.000000	11.000000	-22.000000
1.460000	57.990000	13.390000	369.000000	0.000000	86.000000	51.000000	11.000000	-23.000000
1.470000	58.100000	13.150000	312.000000	0.000000	86.000000	50.000000	11.000000	-24.000000
1.480000	58.160000	12.950000	149.000000	0.000000	86.000000	50.000000	6.000000	-20.000000
1.490000	58.160000	12.950000	0.000000	1.000000	85.000000	50.000000	0.000000	0.000000
1.500000	58.160000	12.950000	0.000000	0.000000	85.000000	50.000000	0.000000	0.000000
1.510000	58.160000	12.950000	0.000000	0.000000	85.000000	50.000000	0.000000	0.000000
1.520000	57.710000	13.080000	0.000000	0.000000	85.000000	50.000000	-45.000000	13.000000
1.530000	57.560000	13.400000	0.000000	0.000000	85.000000	51.000000	-15.000000	32.000000
1.540000	57.560000	13.400000	76.000000	1.000000	85.000000	51.000000	0.000000	0.000000
1.550000	57.050000	14.120000	125.000000	0.000000	85.000000	51.000000	-51.000000	72.000000
1.560000	57.050000	14.300000	161.000000	0.000000	86.000000	52.000000	0.000000	18.000000
1.570000	57.050000	14.380000	185.000000	0.000000	86.000000	52.000000	0.000000	8.000000
1.580000	57.240000	14.500000	208.000000	0.000000	86.000000	53.000000	19.000000	12.000000
1.590000	57.500000	14.570000	225.000000	0.000000	86.000000	53.000000	26.000000	7.000000
1.600000	57.850000	14.570000	256.000000	0.000000	86.000000	53.000000	35.000000	0.000000
1.610000	58.210000	14.570000	284.000000	0.000000	86.000000	53.000000	36.000000	0.000000
1.620000	58.550000	14.460000	334.000000	0.000000	86.000000	53.000000	34.000000	-11.000000
1.630000	58.740000	14.290000	374.000000	0.000000	86.000000	53.000000	19.000000	-17.000000
1.640000	58.850000	14.030000	410.000000	0.000000	86.000000	53.000000	11.000000	-26.000000
1.650000	58.850000	13.710000	448.000000	0.000000	86.000000	52.000000	0.000000	-32.000000
1.660000	58.740000	13.360000	465.000000	0.000000	86.000000	52.000000	-11.000000	-35.000000
1.670000	58.560000	12.900000	467.000000	0.000000	86.000000	52.000000	-18.000000	-46.000000
1.680000	58.330000	12.470000	473.000000	0.000000	86.000000	51.000000	-23.000000	-43.000000
1.690000	58.110000	12.230000	448.000000	0.000000	86.000000	51.000000	-22.000000	-24.000000
1.700000	57.900000	12.100000	309.000000	0.000000	86.000000	51.000000	-21.000000	-13.000000
1.710000	57.820000	12.170000	136.000000	0.000000	85.000000	51.000000	-8.000000	7.000000
1.720000	57.820000	12.170000	0.000000	1.000000	85.000000	51.000000	0.000000	0.000000
1.730000	58.020000	12.640000	0.000000	0.000000	85.000000	51.000000	20.000000	47.000000
1.740000	58.240000	13.130000	0.000000	0.000000	85.000000	51.000000	22.000000	49.000000
1.750000	58.410000	13.450000	0.000000	0.000000	85.000000	52.000000	17.000000	32.000000
1.760000	58.560000	13.780000	0.000000	0.000000	85.000000	52.000000	15.000000	33.000000
1.770000	58.750000	14.070000	0.000000	0.000000	86.000000	53.000000	19.000000	29.000000
1.780000	58.990000	14.320000	0.000000	0.000000	86.000000	53.000000	24.000000	25.000000
1.790000	59.260000	14.490000	0.000000	0.000000	86.000000	54.000000	27.000000	17.000000
1.800000	59.430000	14.580000	0.000000	0.000000	87.000000	55.000000	17.000000	9.000000
1.810000	59.430000	14.580000	96.000000	1.000000	87.000000	55.000000	0.000000	0.000000
1.820000	59.430000	14.580000	179.000000	0.000000	87.000000	55.000000	0.000000	0.000000
1.830000	59.430000	14.580000	260.000000	0.000000	87.000000	55.000000	0.000000	0.000000
1.840000	59.520000	14.250000	322.000000	0.000000	87.000000	54.000000	9.000000	-33.000000
1.850000	59.470000	13.980000	369.000000	0.000000	87.000000	54.000000	-5.000000	-27.000000
1.860000	59.470000	13.620000	398.000000	0.000000	87.000000	53.000000	0.000000	-36.000000
1.870000	59.550000	13.200000	394.000000	0.000000	86.000000	53.000000	8.000000	-42.000000
1.880000	59.550000	12.900000	397.000000	0.000000	86.000000	52.000000	0.000000	-30.000000
1.890000	59.730000	12.620000	396.000000	0.000000	85.000000	52.000000	18.000000	-28.000000
1.900000	59.890000	12.390000	396.000000	0.000000	85.000000	52.000000	16.000000	-23.000000
1.910000	60.080000	12.330000	381.000000	0.000000	85.000000	52.000000	19.000000	-6.000000
1.920000	60.290000	12.390000	344.000000	0.000000	84.000000	52.000000	21.000000	6.000000
1.930000	60.430000	12.530000	245.000000	0.000000	83.000000	53.000000	14.000000	14.000000
1.940000	60.520000	12.830000	94.000000	0.000000	83.000000	53.000000	9.000000	30.000000
1.950000	60.520000	12.830000	0.000000	1.000000	82.000000	53.000000	0.000000	0.000000
1.960000	60.470000	13.590000	0.000000	0.000000	83.000000	53.000000	-5.000000	76.000000
1.970000	60.260000	13.870000	0.000000	0.000000	83.000000	53.000000	-21.000000	28.000000
1.980000	59.950000	14.090000	0.000000	0.000000	83.000000	53.000000	-31.000000	22.000000
1.990000	59.650000	14.090000	0.000000	0.000000	85.000000	53.000000	-30.000000	0.000000
2.000000	59.400000	14.090000	0.000000	0.000000	85.000000	53.000000	-25.000000	0.000000
2.010000	59.220000	14.020000	0.000000	0.000000	85.000000	53.000000	-18.000000	-7.000000
2.020000	59.220000	14.020000	12.000000	0.000000	85.000000	52.000000	0.000000	0.000000
2.030000	59.130000	13.920000	78.000000	1.000000	85.000000	52.000000	0.000000	0.000000
2.040000	59.230000	13.920000	129.000000	0.000000	85.000000	52.000000	10.000000	0.000000
2.050000	59.360000	13.920000	179.000000	0.000000	85.000000	52.000000	13.000000	0.000000
2.060000	59.540000	13.920000	217.000000	0.000000	85.000000	51.000000	18.000000	0.000000
2.070000	59.720000	13.920000	216.000000	0.000000	85.000000	52.000000	18.000000	0.000000
2.080000	59.910000	14.050000	242.000000	0.000000	85.000000	52.000000	19.000000	13.000000
2.090000	60.060000	14.200000	242.000000	0.000000	85.000000	52.000000	15.000000	15.000000
2.100000	60.170000	14.360000	218.000000	0.000000	85.000000	52.000000	11.000000	16.000000
2.110000	60.170000	14.500000	141.000000	0.000000	85.000000	52.000000	0.000000	14.000000
2.120000	60.020000	14.630000	108.000000	0.000000	86.000000	52.000000	-15.000000	13.000000
2.130000	59.840000	14.720000	24.000000	0.000000	86.000000	53.000000	-18.000000	9.000000
2.140000	59.840000	14.720000	0.000000	1.000000	86.000000	53.000000	0.000000	0.000000
2.150000	59.520000	14.840000	0.000000	0.000000	87.000000	53.000000	-32.000000	12.000000
2.160000	59.460000	14.920000	0.000000	0.000000	87.000000	53.000000	-6.000000	8.000000
2.170000	59.460000	15.020000	0.000000	0.000000	87.000000	53.000000	0.000000	10.000000
2.180000	59.620000	15.160000	0.000000	0.000000	87.000000	53.000000	16.000000	14.000000
2.190000	59.620000	15.160000	61.000000	1.000000	89.000000	53.000000	0.000000	0.000000
2.200000	60.030000	15.370000	105.000000	0.000000	89.000000	53.000000	41.000000	21.000000
2.210000	60.200000	15.370000	179.000000	0.000000	89.000000	53.000000	17.000000	0.000000
2.220000	60.330000	15.370000	285.000000	0.000000	89.000000	53.000000	13.000000	0.000000
2.230000	60.410000	15.250000	339.000000	0.000000	89.000000	53.000000	8.000000	-12.000000
2.240000	60.460000	15.090000	369.000000	0.000000	89.000000	53.000000	5.000000	-16.000000
