t	x	y	pressure	penup	azimuth	inclination	v_x	v_y
0.000000	48.770000	42.620000	13.000000	1.000000	122.000000	65.000000	0.000000	0.000000
0.010000	48.770000	42.620000	15.000000	1.000000	123.000000	65.000000	0.000000	0.000000
0.020000	48.770000	42.620000	49.000000	0.000000	122.000000	67.000000	0.000000	0.000000
0.030000	48.960000	42.340000	93.000000	0.000000	122.000000	67.000000	19.000000	-28.000000
0.040000	49.150000	42.290000	129.000000	0.000000	124.000000	67.000000	19.000000	-5.000000
0.050000	49.430000	42.290000	143.000000	0.000000	124.000000	67.000000	28.000000	0.000000
0.060000	49.800000	42.290000	184.000000	0.000000	124.000000	67.000000	37.000000	0.000000
0.070000	50.250000	42.420000	207.000000	0.000000	124.000000	67.000000	45.000000	13.000000
0.080000	50.850000	42.610000	249.000000	0.000000	124.000000	67.000000	60.000000	19.000000
0.090000	51.530000	42.860000	279.000000	0.000000	124.000000	67.000000	68.000000	25.000000
0.100000	52.350000	43.260000	311.000000	0.000000	122.000000	67.000000	82.000000	40.000000
0.110000	53.170000	43.780000	334.000000	0.000000	122.000000	67.000000	82.000000	52.000000
0.120000	54.000000	44.370000	369.000000	0.000000	120.000000	67.000000	83.000000	59.000000
0.130000	54.850000	45.040000	399.000000	0.000000	119.000000	66.000000	85.000000	67.000000
0.140000	55.570000	45.700000	423.000000	0.000000	119.000000	66.000000	72.000000	66.000000
0.150000	56.200000	46.470000	422.000000	0.000000	119.000000	66.000000	63.000000	77.000000
0.160000	56.800000	47.330000	430.000000	0.000000	120.000000	67.000000	60.000000	86.000000
0.170000	57.210000	48.260000	441.000000	0.000000	122.000000	67.000000	41.000000	93.000000
0.180000	57.500000	49.200000	441.000000	0.000000	122.000000	67.000000	29.000000	94.000000
0.190000	57.650000	50.140000	440.000000	0.000000	124.000000	66.000000	15.000000	94.000000
0.200000	57.650000	50.940000	439.000000	0.000000	128.000000	66.000000	0.000000	80.000000
0.210000	57.570000	51.690000	439.000000	0.000000	130.000000	66.000000	-8.000000	75.000000
0.220000	57.430000	52.360000	431.000000	0.000000	132.000000	65.000000	-14.000000	67.000000
0.230000	57.150000	53.010000	422.000000	0.000000	133.000000	65.000000	-28.000000	65.000000
0.240000	56.770000	53.560000	420.000000	0.000000	135.000000	64.000000	-38.000000	55.000000
0.250000	56.310000	53.900000	415.000000	0.000000	135.000000	64.000000	-46.000000	34.000000
0.260000	55.850000	54.090000	409.000000	0.000000	137.000000	63.000000	-46.000000	19.000000
0.270000	55.390000	54.160000	407.000000	0.000000	137.000000	63.000000	-46.000000	7.000000
0.280000	54.910000	54.060000	409.000000	0.000000	137.000000	63.000000	-48.000000	-10.000000
0.290000	54.410000	53.860000	396.000000	0.000000	137.000000	62.000000	-50.000000	-20.000000
0.300000	53.940000	53.500000	399.000000	0.000000	137.000000	62.000000	-47.000000	-36.000000
0.310000	53.490000	53.090000	397.000000	0.000000	137.000000	62.000000	-45.000000	-41.000000
0.320000	53.060000	52.470000	394.000000	0.000000	137.000000	62.000000	-43.000000	-62.000000
0.330000	52.550000	51.720000	399.000000	0.000000	135.000000	62.000000	-51.000000	-75.000000
0.340000	51.990000	50.760000	417.000000	0.000000	135.000000	62.000000	-56.000000	-96.000000
0.350000	51.480000	49.770000	413.000000	0.000000	135.000000	62.000000	-51.000000	-99.000000
0.360000	51.180000	48.710000	415.000000	0.000000	133.000000	62.000000	-30.000000	-106.000000
0.370000	51.010000	47.660000	423.000000	0.000000	132.000000	61.000000	-17.000000	-105.000000
0.380000	50.890000	46.730000	440.000000	0.000000	130.000000	62.000000	-12.000000	-93.000000
0.390000	50.780000	45.880000	439.000000	0.000000	129.000000	63.000000	-11.000000	-85.000000
0.400000	50.780000	45.140000	452.000000	0.000000	127.000000	63.000000	0.000000	-74.000000
0.410000	50.950000	44.470000	460.000000	0.000000	125.000000	64.000000	17.000000	-67.000000
0.420000	51.130000	43.840000	458.000000	0.000000	124.000000	64.000000	18.000000	-63.000000
0.430000	51.320000	43.240000	456.000000	0.000000	120.000000	64.000000	19.000000	-60.000000
0.440000	51.550000	42.760000	453.000000	0.000000	119.000000	64.000000	23.000000	-48.000000
0.450000	51.860000	42.370000	450.000000	0.000000	119.000000	64.000000	31.000000	-39.000000
0.460000	52.240000	42.130000	450.000000	0.000000	119.000000	64.000000	38.000000	-24.000000
0.470000	52.640000	41.970000	455.000000	0.000000	119.000000	64.000000	40.000000	-16.000000
0.480000	53.070000	41.870000	463.000000	0.000000	120.000000	65.000000	43.000000	-10.000000
0.490000	53.490000	41.870000	464.000000	0.000000	120.000000	65.000000	42.000000	0.000000
0.500000	53.900000	41.820000	475.000000	0.000000	120.000000	65.000000	41.000000	-5.000000
0.510000	54.310000	41.820000	496.000000	0.000000	120.000000	65.000000	41.000000	0.000000
0.520000	54.730000	41.900000	504.000000	0.000000	120.000000	65.000000	42.000000	8.000000
0.530000	55.200000	42.040000	515.000000	0.000000	119.000000	66.000000	47.000000	14.000000
0.540000	55.730000	42.230000	524.000000	0.000000	119.000000	66.000000	53.000000	19.000000
0.550000	56.290000	42.450000	544.000000	0.000000	119.000000	66.000000	56.000000	22.000000
0.560000	56.810000	42.710000	546.000000	0.000000	119.000000	66.000000	52.000000	26.000000
0.570000	57.320000	43.020000	538.000000	0.000000	120.000000	67.000000	51.000000	31.000000
0.580000	57.770000	43.360000	537.000000	0.000000	120.000000	67.000000	45.000000	34.000000
0.590000	58.090000	43.630000	540.000000	0.000000	120.000000	67.000000	32.000000	27.000000
0.600000	58.330000	43.860000	548.000000	0.000000	120.000000	67.000000	24.000000	23.000000
0.610000	58.540000	44.110000	546.000000	0.000000	120.000000	67.000000	21.000000	25.000000
0.620000	58.700000	44.400000	546.000000	0.000000	120.000000	67.000000	16.000000	29.000000
0.630000	58.830000	44.720000	545.000000	0.000000	120.000000	67.000000	13.000000	32.000000
0.640000	58.900000	45.040000	540.000000	0.000000	119.000000	66.000000	7.000000	32.000000
0.650000	58.900000	45.420000	532.000000	0.000000	117.000000	67.000000	0.000000	38.000000
0.660000	58.960000	45.830000	518.000000	0.000000	117.000000	67.000000	6.000000	41.000000
0.670000	58.910000	46.210000	518.000000	0.000000	117.000000	67.000000	-5.000000	38.000000
0.680000	58.810000	46.510000	524.000000	0.000000	117.000000	67.000000	-10.000000	30.000000
0.690000	58.680000	46.680000	533.000000	0.000000	117.000000	67.000000	-13.000000	17.000000
0.700000	58.450000	46.790000	535.000000	0.000000	117.000000	67.000000	-23.000000	11.000000
0.710000	58.170000	46.790000	532.000000	0.000000	119.000000	66.000000	-28.000000	0.000000
0.720000	57.850000	46.790000	538.000000	0.000000	120.000000	67.000000	-32.000000	0.000000
0.730000	57.580000	46.790000	529.000000	0.000000	120.000000	67.000000	-27.000000	0.000000
0.740000	57.300000	46.650000	529.000000	0.000000	120.000000	67.000000	-28.000000	-14.000000
0.750000	57.040000	46.480000	529.000000	0.000000	122.000000	67.000000	-26.000000	-17.000000
0.760000	56.800000	46.280000	540.000000	0.000000	122.000000	67.000000	-24.000000	-20.000000
0.770000	56.620000	46.060000	537.000000	0.000000	120.000000	67.000000	-18.000000	-22.000000
0.780000	56.420000	45.700000	538.000000	0.000000	120.000000	67.000000	-20.000000	-36.000000
0.790000	56.220000	45.260000	541.000000	0.000000	120.000000	67.000000	-20.000000	-44.000000
0.800000	56.030000	44.830000	544.000000	0.000000	120.000000	67.000000	-19.000000	-43.000000
0.810000	55.930000	44.370000	546.000000	0.000000	120.000000	67.000000	-10.000000	-46.000000
0.820000	55.850000	43.850000	537.000000	0.000000	120.000000	67.000000	-8.000000	-52.000000
0.830000	55.800000	43.440000	542.000000	0.000000	120.000000	67.000000	-5.000000	-41.000000
0.840000	55.800000	43.100000	551.000000	0.000000	120.000000	67.000000	0.000000	-34.000000
0.850000	55.870000	42.730000	553.000000	0.000000	120.000000	67.000000	7.000000	-37.000000
0.860000	55.970000	42.420000	556.000000	0.000000	120.000000	67.000000	10.000000	-31.000000
0.870000	56.100000	42.180000	553.000000	0.000000	120.000000	67.000000	13.000000	-24.000000
0.880000	56.280000	41.990000	551.000000	0.000000	120.000000	67.000000	18.000000	-19.000000
0.890000	56.490000	41.840000	553.000000	0.000000	120.000000	67.000000	21.000000	-15.000000
0.900000	56.760000	41.730000	546.000000	0.000000	120.000000	67.000000	27.000000	-11.000000
0.910000	57.050000	41.730000	543.000000	0.000000	120.000000	67.000000	29.000000	0.000000
0.920000	57.360000	41.730000	542.000000	0.000000	120.000000	67.000000	31.000000	0.000000
0.930000	57.670000	41.800000	540.000000	0.000000	120.000000	67.000000	31.000000	7.000000
0.940000	57.990000	41.860000	542.000000	0.000000	120.000000	67.000000	32.000000	6.000000
0.950000	58.250000	41.980000	542.000000	0.000000	120.000000	67.000000	26.000000	12.000000
0.960000	58.530000	42.130000	540.000000	0.000000	120.000000	67.000000	28.000000	15.000000
0.970000	58.800000	42.330000	536.000000	0.000000	120.000000	67.000000	27.000000	20.000000
0.980000	59.070000	42.540000	537.000000	0.000000	120.000000	67.000000	27.000000	21.000000
0.990000	59.330000	42.770000	519.000000	0.000000	119.000000	66.000000	26.000000	23.000000
1.000000	59.580000	43.110000	517.000000	0.000000	119.000000	66.000000	25.000000	34.000000
1.010000	59.800000	43.470000	501.000000	0.000000	119.000000	66.000000	22.000000	36.000000
1.020000	60.020000	43.850000	492.000000	0.000000	119.000000	66.000000	22.000000	38.000000
1.030000	60.260000	44.250000	494.000000	0.000000	119.000000	66.000000	24.000000	40.000000
1.040000	60.410000	44.640000	492.000000	0.000000	120.000000	67.000000	15.000000	39.000000
1.050000	60.500000	45.060000	491.000000	0.000000	120.000000	67.000000	9.000000	42.000000
1.060000	60.640000	45.510000	491.000000	0.000000	122.000000	68.000000	14.000000	45.000000
1.070000	60.770000	45.900000	491.000000	0.000000	119.000000	68.000000	13.000000	39.000000
1.080000	60.840000	46.250000	489.000000	0.000000	119.000000	68.000000	7.000000	35.000000
1.090000	60.840000	46.540000	489.000000	0.000000	121.000000	69.000000	0.000000	29.000000
1.100000	60.930000	46.760000	494.000000	0.000000	121.000000	69.000000	9.000000	22.000000
1.110000	60.930000	46.900000	510.000000	0.000000	123.000000	69.000000	0.000000	14.000000
1.120000	60.930000	46.960000	514.000000	0.000000	125.000000	70.000000	0.000000	6.000000
1.130000	60.930000	46.960000	519.000000	0.000000	125.000000	70.000000	0.000000	0.000000
1.140000	60.870000	46.910000	519.000000	0.000000	125.000000	70.000000	-6.000000	-5.000000
1.150000	60.870000	46.840000	520.000000	0.000000	127.000000	69.000000	0.000000	-7.000000
1.160000	60.790000	46.680000	520.000000	0.000000	127.000000	69.000000	-8.000000	-16.000000
1.170000	60.730000	46.430000	522.000000	0.000000	127.000000	69.000000	-6.000000	-25.000000
1.180000	60.680000	46.010000	518.000000	0.000000	127.000000	69.000000	-5.000000	-42.000000
1.190000	60.680000	45.490000	526.000000	0.000000	127.000000	69.000000	0.000000	-52.000000
1.200000	60.630000	44.940000	533.000000	0.000000	125.000000	70.000000	-5.000000	-55.000000
1.210000	60.630000	44.360000	537.000000	0.000000	125.000000	70.000000	0.000000	-58.000000
1.220000	60.680000	43.870000	538.000000	0.000000	125.000000	70.000000	5.000000	-49.000000
1.230000	60.760000	43.440000	538.000000	0.000000	123.000000	69.000000	8.000000	-43.000000
1.240000	60.850000	43.110000	537.000000	0.000000	123.000000	69.000000	9.000000	-33.000000
1.250000	60.970000	42.900000	535.000000	0.000000	123.000000	69.000000	12.000000	-21.000000
1.260000	61.120000	42.760000	530.000000	0.000000	122.000000	68.000000	15.000000	-14.000000
1.270000	61.270000	42.760000	527.000000	0.000000	122.000000	68.000000	15.000000	0.000000
1.280000	61.430000	42.890000	522.000000	0.000000	122.000000	68.000000	16.000000	13.000000
1.290000	61.630000	43.120000	499.000000	0.000000	120.000000	67.000000	20.000000	23.000000
1.300000	61.860000	43.450000	496.000000	0.000000	120.000000	67.000000	23.000000	33.000000
1.310000	62.090000	43.840000	483.000000	0.000000	122.000000	68.000000	23.000000	39.000000
1.320000	62.260000	44.260000	467.000000	0.000000	122.000000	68.000000	17.000000	42.000000
1.330000	62.450000	44.660000	465.000000	0.000000	122.000000	68.000000	19.000000	40.000000
1.340000	62.560000	45.060000	468.000000	0.000000	122.000000	68.000000	11.000000	40.000000
1.350000	62.620000	45.410000	473.000000	0.000000	123.000000	69.000000	6.000000	35.000000
1.360000	62.620000	45.700000	473.000000	0.000000	121.000000	69.000000	0.000000	29.000000
1.370000	62.720000	45.930000	483.000000	0.000000	121.000000	69.000000	10.000000	23.000000
1.380000	62.790000	46.110000	483.000000	0.000000	121.000000	69.000000	7.000000	18.000000
1.390000	62.870000	46.230000	480.000000	0.000000	121.000000	69.000000	8.000000	12.000000
1.400000	62.940000	46.230000	477.000000	0.000000	121.000000	69.000000	7.000000	0.000000
1.410000	62.940000	46.230000	481.000000	0.000000	121.000000	69.000000	0.000000	0.000000
1.420000	62.940000	46.140000	483.000000	0.000000	121.000000	69.000000	0.000000	-9.000000
1.430000	62.940000	45.980000	483.000000	0.000000	121.000000	69.000000	0.000000	-16.000000
1.440000	62.940000	45.650000	493.000000	0.000000	123.000000	69.000000	0.000000	-33.000000
1.450000	62.940000	45.220000	495.000000	0.000000	123.000000	69.000000	0.000000	-43.000000
1.460000	62.940000	44.840000	496.000000	0.000000	123.000000	69.000000	0.000000	-38.000000
1.470000	63.100000	44.450000	496.000000	0.000000	123.000000	69.000000	16.000000	-39.000000
1.480000	63.230000	44.150000	498.000000	0.000000	123.000000	69.000000	13.000000	-30.000000
1.490000	63.410000	43.930000	495.000000	0.000000	123.000000	69.000000	18.000000	-22.000000
1.500000	63.640000	43.810000	498.000000	0.000000	123.000000	69.000000	23.000000	-12.000000
1.510000	63.900000	43.810000	488.000000	0.000000	123.000000	69.000000	26.000000	0.000000
1.520000	64.210000	43.950000	492.000000	0.000000	123.000000	69.000000	31.000000	14.000000
1.530000	64.590000	44.290000	494.000000	0.000000	125.000000	70.000000	38.000000	34.000000
1.540000	64.990000	44.760000	519.000000	0.000000	125.000000	70.000000	40.000000	47.000000
1.550000	65.410000	45.310000	515.000000	0.000000	125.000000	70.000000	42.000000	55.000000
1.560000	65.740000	45.890000	521.000000	0.000000	125.000000	70.000000	33.000000	58.000000
1.570000	66.000000	46.630000	519.000000	0.000000	125.000000	70.000000	26.000000	74.000000
1.580000	66.210000	47.490000	515.000000	0.000000	127.000000	70.000000	21.000000	86.000000
1.590000	66.300000	48.590000	483.000000	0.000000	127.000000	70.000000	9.000000	110.000000
1.600000	66.300000	49.670000	460.000000	0.000000	129.000000	70.000000	0.000000	108.000000
1.610000	66.250000	50.670000	461.000000	0.000000	131.000000	69.000000	-5.000000	100.000000
1.620000	66.250000	51.380000	465.000000	0.000000	133.000000	69.000000	0.000000	71.000000
1.630000	66.180000	51.920000	486.000000	0.000000	135.000000	68.000000	-7.000000	54.000000
1.640000	66.120000	52.360000	501.000000	0.000000	139.000000	67.000000	-6.000000	44.000000
1.650000	66.120000	52.620000	522.000000	0.000000	140.000000	66.000000	0.000000	26.000000
1.660000	66.120000	52.760000	522.000000	0.000000	142.000000	65.000000	0.000000	14.000000
1.670000	66.060000	52.760000	529.000000	0.000000	142.000000	65.000000	-6.000000	0.000000
1.680000	66.060000	52.760000	529.000000	0.000000	143.000000	64.000000	0.000000	0.000000
1.690000	66.060000	52.760000	530.000000	0.000000	143.000000	64.000000	0.000000	0.000000
1.700000	66.060000	52.620000	535.000000	0.000000	143.000000	64.000000	0.000000	-14.000000
1.710000	66.060000	52.250000	540.000000	0.000000	145.000000	64.000000	0.000000	-37.000000
1.720000	66.060000	51.740000	536.000000	0.000000	143.000000	64.000000	0.000000	-51.000000
1.730000	66.060000	50.990000	536.000000	0.000000	143.000000	64.000000	0.000000	-75.000000
1.740000	66.000000	50.200000	542.000000	0.000000	143.000000	64.000000	-6.000000	-79.000000
1.750000	65.910000	49.240000	545.000000	0.000000	143.000000	64.000000	-9.000000	-96.000000
1.760000	65.910000	48.190000	545.000000	0.000000	142.000000	65.000000	0.000000	-105.000000
1.770000	65.910000	47.270000	551.000000	0.000000	140.000000	66.000000	0.000000	-92.000000
1.780000	65.910000	46.520000	556.000000	0.000000	139.000000	67.000000	0.000000	-75.000000
1.790000	65.980000	45.880000	567.000000	0.000000	137.000000	67.000000	7.000000	-64.000000
1.800000	65.980000	45.350000	570.000000	0.000000	135.000000	68.000000	0.000000	-53.000000
1.810000	66.120000	44.820000	574.000000	0.000000	135.000000	69.000000	14.000000	-53.000000
1.820000	66.200000	44.400000	578.000000	0.000000	133.000000	70.000000	8.000000	-42.000000
1.830000	66.280000	44.050000	578.000000	0.000000	131.000000	71.000000	8.000000	-35.000000
1.840000	66.360000	43.730000	572.000000	0.000000	131.000000	71.000000	8.000000	-32.000000
1.850000	66.470000	43.510000	570.000000	0.000000	131.000000	71.000000	11.000000	-22.000000
1.860000	66.580000	43.370000	556.000000	0.000000	131.000000	71.000000	11.000000	-14.000000
1.870000	66.710000	43.240000	550.000000	0.000000	131.000000	71.000000	13.000000	-13.000000
1.880000	66.850000	43.240000	551.000000	0.000000	131.000000	71.000000	14.000000	0.000000
1.890000	67.040000	43.240000	554.000000	0.000000	131.000000	71.000000	19.000000	0.000000
1.900000	67.300000	43.340000	559.000000	0.000000	131.000000	71.000000	26.000000	10.000000
1.910000	67.610000	43.450000	561.000000	0.000000	131.000000	71.000000	31.000000	11.000000
1.920000	67.960000	43.630000	564.000000	0.000000	131.000000	71.000000	35.000000	18.000000
1.930000	68.360000	43.850000	562.000000	0.000000	131.000000	71.000000	40.000000	22.000000
1.940000	68.800000	44.120000	562.000000	0.000000	131.000000	71.000000	44.000000	27.000000
1.950000	69.220000	44.390000	562.000000	0.000000	131.000000	71.000000	42.000000	27.000000
1.960000	69.580000	44.660000	561.000000	0.000000	128.000000	71.000000	36.000000	27.000000
1.970000	69.910000	44.950000	561.000000	0.000000	130.000000	72.000000	33.000000	29.000000
1.980000	70.230000	45.220000	562.000000	0.000000	130.000000	72.000000	32.000000	27.000000
1.990000	70.430000	45.460000	561.000000	0.000000	130.000000	72.000000	20.000000	24.000000
2.000000	70.550000	45.750000	564.000000	0.000000	133.000000	73.000000	12.000000	29.000000
2.010000	70.600000	46.070000	565.000000	0.000000	135.000000	73.000000	5.000000	32.000000
2.020000	70.550000	46.430000	565.000000	0.000000	138.000000	74.000000	-5.000000	36.000000
2.030000	70.420000	46.830000	562.000000	0.000000	140.000000	75.000000	-13.000000	40.000000
2.040000	70.270000	47.270000	562.000000	0.000000	140.000000	75.000000	-15.000000	44.000000
2.050000	70.100000	47.620000	565.000000	0.000000	146.000000	74.000000	-17.000000	35.000000
2.060000	69.910000	47.950000	560.000000	0.000000	146.000000	74.000000	-19.000000	33.000000
2.070000	69.690000	48.130000	561.000000	0.000000	148.000000	74.000000	-22.000000	18.000000
2.080000	69.490000	48.230000	567.000000	0.000000	149.000000	73.000000	-20.000000	10.000000
2.090000	69.290000	48.230000	567.000000	0.000000	147.000000	72.000000	-20.000000	0.000000
2.100000	69.060000	48.100000	566.000000	0.000000	148.000000	71.000000	-23.000000	-13.000000
2.110000	68.820000	47.870000	570.000000	0.000000	146.000000	71.000000	-24.000000	-23.000000
2.120000	68.570000	47.550000	570.000000	0.000000	143.000000	70.000000	-25.000000	-32.000000
2.130000	68.330000	47.190000	572.000000	0.000000	141.000000	70.000000	-24.000000	-36.000000
2.140000	68.110000	46.770000	572.000000	0.000000	141.000000	70.000000	-22.000000	-42.000000
2.150000	67.940000	46.330000	577.000000	0.000000	141.000000	70.000000	-17.000000	-44.000000
2.160000	67.840000	45.860000	581.000000	0.000000	137.000000	70.000000	-10.000000	-47.000000
2.170000	67.840000	45.390000	589.000000	0.000000	137.000000	70.000000	0.000000	-47.000000
2.180000	67.840000	44.950000	589.000000	0.000000	135.000000	71.000000	0.000000	-44.000000
2.190000	67.910000	44.530000	603.000000	0.000000	135.000000	71.000000	7.000000	-42.000000
2.200000	68.060000	44.180000	610.000000	0.000000	133.000000	71.000000	15.000000	-35.000000
