t	x	y	pressure	penup	azimuth	inclination	v_x	v_y
0.000000	47.820000	8.320000	41.000000	1.000000	122.000000	63.000000	0.000000	0.000000
0.010000	47.750000	8.060000	39.000000	0.000000	122.000000	63.000000	-7.000000	-26.000000
0.020000	47.870000	8.060000	58.000000	0.000000	122.000000	63.000000	12.000000	0.000000
0.030000	48.090000	7.980000	105.000000	0.000000	124.000000	64.000000	22.000000	-8.000000
0.040000	48.500000	7.980000	148.000000	0.000000	125.000000	64.000000	41.000000	0.000000
0.050000	49.060000	8.050000	173.000000	0.000000	125.000000	64.000000	56.000000	7.000000
0.060000	49.710000	8.230000	244.000000	0.000000	125.000000	64.000000	65.000000	18.000000
0.070000	50.500000	8.520000	274.000000	0.000000	124.000000	64.000000	79.000000	29.000000
0.080000	51.320000	8.880000	309.000000	0.000000	124.000000	64.000000	82.000000	36.000000
0.090000	52.200000	9.370000	364.000000	0.000000	124.000000	64.000000	88.000000	49.000000
0.100000	53.110000	9.950000	356.000000	0.000000	122.000000	65.000000	91.000000	58.000000
0.110000	53.900000	10.580000	368.000000	0.000000	120.000000	65.000000	79.000000	63.000000
0.120000	54.600000	11.290000	364.000000	0.000000	118.000000	65.000000	70.000000	71.000000
0.130000	55.070000	12.070000	367.000000	0.000000	116.000000	66.000000	47.000000	78.000000
0.140000	55.390000	12.890000	382.000000	0.000000	114.000000	66.000000	32.000000	82.000000
0.150000	55.600000	13.710000	404.000000	0.000000	114.000000	66.000000	21.000000	82.000000
0.160000	55.600000	14.410000	400.000000	0.000000	113.000000	65.000000	0.000000	70.000000
0.170000	55.530000	15.030000	423.000000	0.000000	113.000000	65.000000	-7.000000	62.000000
0.180000	55.330000	15.620000	431.000000	0.000000	113.000000	65.000000	-20.000000	59.000000
0.190000	55.020000	16.060000	440.000000	0.000000	115.000000	65.000000	-31.000000	44.000000
0.200000	54.670000	16.390000	441.000000	0.000000	117.000000	65.000000	-35.000000	33.000000
0.210000	54.280000	16.600000	443.000000	0.000000	120.000000	64.000000	-39.000000	21.000000
0.220000	53.770000	16.780000	436.000000	0.000000	122.000000	63.000000	-51.000000	18.000000
0.230000	53.270000	16.780000	428.000000	0.000000	124.000000	63.000000	-50.000000	0.000000
0.240000	52.700000	16.580000	423.000000	0.000000	126.000000	62.000000	-57.000000	-20.000000
0.250000	52.070000	16.210000	418.000000	0.000000	126.000000	62.000000	-63.000000	-37.000000
0.260000	51.550000	15.800000	407.000000	0.000000	127.000000	62.000000	-52.000000	-41.000000
0.270000	51.070000	15.310000	412.000000	0.000000	124.000000	62.000000	-48.000000	-49.000000
0.280000	50.680000	14.730000	396.000000	0.000000	124.000000	62.000000	-39.000000	-58.000000
0.290000	50.370000	14.080000	399.000000	0.000000	123.000000	62.000000	-31.000000	-65.000000
0.300000	50.100000	13.350000	379.000000	0.000000	120.000000	62.000000	-27.000000	-73.000000
0.310000	49.890000	12.520000	387.000000	0.000000	118.000000	62.000000	-21.000000	-83.000000
0.320000	49.720000	11.660000	389.000000	0.000000	116.000000	63.000000	-17.000000	-86.000000
0.330000	49.610000	10.830000	379.000000	0.000000	115.000000	63.000000	-11.000000	-83.000000
0.340000	49.550000	10.130000	379.000000	0.000000	113.000000	63.000000	-6.000000	-70.000000
0.350000	49.550000	9.490000	381.000000	0.000000	114.000000	64.000000	0.000000	-64.000000
0.360000	49.610000	8.890000	379.000000	0.000000	114.000000	64.000000	6.000000	-60.000000
0.370000	49.700000	8.350000	387.000000	0.000000	115.000000	65.000000	9.000000	-54.000000
0.380000	49.890000	7.850000	387.000000	0.000000	117.000000	65.000000	19.000000	-50.000000
0.390000	50.150000	7.470000	377.000000	0.000000	118.000000	65.000000	26.000000	-38.000000
0.400000	50.440000	7.150000	377.000000	0.000000	120.000000	65.000000	29.000000	-32.000000
0.410000	50.760000	6.870000	376.000000	0.000000	122.000000	65.000000	32.000000	-28.000000
0.420000	51.160000	6.730000	371.000000	0.000000	122.000000	65.000000	40.000000	-14.000000
0.430000	51.590000	6.640000	366.000000	0.000000	122.000000	65.000000	43.000000	-9.000000
0.440000	52.060000	6.580000	373.000000	0.000000	124.000000	64.000000	47.000000	-6.000000
0.450000	52.570000	6.580000	361.000000	0.000000	124.000000	64.000000	51.000000	0.000000
0.460000	53.030000	6.630000	364.000000	0.000000	124.000000	64.000000	46.000000	5.000000
0.470000	53.470000	6.700000	367.000000	0.000000	122.000000	65.000000	44.000000	7.000000
0.480000	53.860000	6.800000	366.000000	0.000000	122.000000	65.000000	39.000000	10.000000
0.490000	54.230000	6.900000	367.000000	0.000000	122.000000	65.000000	37.000000	10.000000
0.500000	54.590000	7.100000	373.000000	0.000000	122.000000	65.000000	36.000000	20.000000
0.510000	54.960000	7.380000	361.000000	0.000000	123.000000	65.000000	37.000000	28.000000
0.520000	55.350000	7.670000	363.000000	0.000000	123.000000	65.000000	39.000000	29.000000
0.530000	55.750000	8.000000	363.000000	0.000000	123.000000	65.000000	40.000000	33.000000
0.540000	56.110000	8.360000	361.000000	0.000000	123.000000	65.000000	36.000000	36.000000
0.550000	56.430000	8.660000	364.000000	0.000000	122.000000	67.000000	32.000000	30.000000
0.560000	56.630000	8.950000	364.000000	0.000000	122.000000	67.000000	20.000000	29.000000
0.570000	56.780000	9.230000	361.000000	0.000000	122.000000	67.000000	15.000000	28.000000
0.580000	56.890000	9.480000	373.000000	0.000000	120.000000	67.000000	11.000000	25.000000
0.590000	56.890000	9.750000	364.000000	0.000000	118.000000	68.000000	0.000000	27.000000
0.600000	56.830000	10.010000	371.000000	0.000000	118.000000	68.000000	-6.000000	26.000000
0.610000	56.670000	10.250000	368.000000	0.000000	116.000000	68.000000	-16.000000	24.000000
0.620000	56.500000	10.520000	367.000000	0.000000	116.000000	68.000000	-17.000000	27.000000
0.630000	56.260000	10.740000	366.000000	0.000000	114.000000	68.000000	-24.000000	22.000000
0.640000	55.980000	10.890000	376.000000	0.000000	114.000000	68.000000	-28.000000	15.000000
0.650000	55.710000	10.970000	379.000000	0.000000	114.000000	68.000000	-27.000000	8.000000
0.660000	55.350000	10.970000	379.000000	0.000000	114.000000	68.000000	-36.000000	0.000000
0.670000	54.930000	10.840000	376.000000	0.000000	112.000000	67.000000	-42.000000	-13.000000
0.680000	54.550000	10.670000	396.000000	0.000000	112.000000	67.000000	-38.000000	-17.000000
0.690000	54.190000	10.430000	396.000000	0.000000	112.000000	67.000000	-36.000000	-24.000000
0.700000	53.880000	10.170000	399.000000	0.000000	112.000000	67.000000	-31.000000	-26.000000
0.710000	53.630000	9.910000	394.000000	0.000000	111.000000	67.000000	-25.000000	-26.000000
0.720000	53.440000	9.640000	394.000000	0.000000	111.000000	67.000000	-19.000000	-27.000000
0.730000	53.320000	9.330000	394.000000	0.000000	111.000000	67.000000	-12.000000	-31.000000
0.740000	53.260000	9.000000	392.000000	0.000000	114.000000	66.000000	-6.000000	-33.000000
0.750000	53.260000	8.690000	394.000000	0.000000	114.000000	66.000000	0.000000	-31.000000
0.760000	53.320000	8.360000	392.000000	0.000000	116.000000	66.000000	6.000000	-33.000000
0.770000	53.480000	8.030000	392.000000	0.000000	118.000000	65.000000	16.000000	-33.000000
0.780000	53.670000	7.730000	388.000000	0.000000	118.000000	65.000000	19.000000	-30.000000
0.790000	53.870000	7.470000	391.000000	0.000000	120.000000	65.000000	20.000000	-26.000000
0.800000	54.170000	7.260000	377.000000	0.000000	122.000000	65.000000	30.000000	-21.000000
0.810000	54.480000	7.140000	371.000000	0.000000	122.000000	65.000000	31.000000	-12.000000
0.820000	54.820000	7.070000	371.000000	0.000000	122.000000	65.000000	34.000000	-7.000000
0.830000	55.180000	7.070000	366.000000	0.000000	125.000000	65.000000	36.000000	0.000000
0.840000	55.540000	7.190000	362.000000	0.000000	125.000000	65.000000	36.000000	12.000000
0.850000	55.910000	7.410000	362.000000	0.000000	125.000000	65.000000	37.000000	22.000000
0.860000	56.300000	7.590000	369.000000	0.000000	126.000000	66.000000	39.000000	18.000000
0.870000	56.710000	7.870000	351.000000	0.000000	126.000000	66.000000	41.000000	28.000000
0.880000	57.130000	8.220000	336.000000	0.000000	126.000000	67.000000	42.000000	35.000000
0.890000	57.560000	8.530000	327.000000	0.000000	126.000000	67.000000	43.000000	31.000000
0.900000	58.000000	8.840000	319.000000	0.000000	126.000000	67.000000	44.000000	31.000000
0.910000	58.290000	9.130000	324.000000	0.000000	124.000000	67.000000	29.000000	29.000000
0.920000	58.490000	9.380000	324.000000	0.000000	124.000000	67.000000	20.000000	25.000000
0.930000	58.660000	9.570000	325.000000	0.000000	122.000000	68.000000	17.000000	19.000000
0.940000	58.720000	9.730000	327.000000	0.000000	119.000000	68.000000	6.000000	16.000000
0.950000	58.720000	9.850000	335.000000	0.000000	119.000000	68.000000	0.000000	12.000000
0.960000	58.660000	9.940000	340.000000	0.000000	116.000000	68.000000	-6.000000	9.000000
0.970000	58.590000	10.000000	334.000000	0.000000	116.000000	68.000000	-7.000000	6.000000
0.980000	58.510000	10.070000	333.000000	0.000000	116.000000	68.000000	-8.000000	7.000000
0.990000	58.460000	10.070000	333.000000	0.000000	112.000000	67.000000	-5.000000	0.000000
1.000000	58.410000	10.070000	333.000000	0.000000	112.000000	67.000000	-5.000000	0.000000
1.010000	58.360000	10.070000	334.000000	0.000000	112.000000	67.000000	-5.000000	0.000000
1.020000	58.360000	10.070000	333.000000	0.000000	112.000000	67.000000	0.000000	0.000000
1.030000	58.360000	10.070000	336.000000	0.000000	112.000000	67.000000	0.000000	0.000000
1.040000	58.360000	10.070000	336.000000	0.000000	112.000000	67.000000	0.000000	0.000000
1.050000	58.360000	10.070000	336.000000	0.000000	112.000000	67.000000	0.000000	0.000000
1.060000	58.360000	10.070000	334.000000	0.000000	112.000000	67.000000	0.000000	0.000000
1.070000	58.360000	10.070000	334.000000	0.000000	112.000000	67.000000	0.000000	0.000000
1.080000	58.360000	10.070000	336.000000	0.000000	111.000000	67.000000	0.000000	0.000000
1.090000	58.360000	10.070000	334.000000	0.000000	111.000000	67.000000	0.000000	0.000000
1.100000	58.360000	10.070000	334.000000	0.000000	111.000000	67.000000	0.000000	0.000000
1.110000	58.360000	10.070000	333.000000	0.000000	111.000000	67.000000	0.000000	0.000000
1.120000	58.470000	10.330000	334.000000	0.000000	112.000000	67.000000	11.000000	26.000000
1.130000	58.610000	10.490000	338.000000	0.000000	112.000000	67.000000	14.000000	16.000000
1.140000	58.690000	10.600000	339.000000	0.000000	112.000000	67.000000	8.000000	11.000000
1.150000	58.740000	10.690000	359.000000	0.000000	112.000000	67.000000	5.000000	9.000000
1.160000	58.740000	10.750000	382.000000	0.000000	112.000000	67.000000	0.000000	6.000000
1.170000	58.790000	10.750000	399.000000	0.000000	112.000000	67.000000	5.000000	0.000000
1.180000	58.790000	10.750000	425.000000	0.000000	112.000000	67.000000	0.000000	0.000000
1.190000	58.790000	10.650000	422.000000	0.000000	112.000000	67.000000	0.000000	-10.000000
1.200000	58.710000	10.530000	430.000000	0.000000	112.000000	67.000000	-8.000000	-12.000000
1.210000	58.660000	10.350000	440.000000	0.000000	112.000000	67.000000	-5.000000	-18.000000
1.220000	58.660000	10.030000	445.000000	0.000000	112.000000	67.000000	0.000000	-32.000000
1.230000	58.740000	9.610000	448.000000	0.000000	112.000000	67.000000	8.000000	-42.000000
1.240000	58.740000	9.230000	452.000000	0.000000	112.000000	67.000000	0.000000	-38.000000
1.250000	58.860000	8.850000	448.000000	0.000000	116.000000	68.000000	12.000000	-38.000000
1.260000	58.940000	8.450000	452.000000	0.000000	116.000000	68.000000	8.000000	-40.000000
1.270000	59.020000	8.060000	450.000000	0.000000	116.000000	68.000000	8.000000	-39.000000
1.280000	59.110000	7.760000	448.000000	0.000000	118.000000	68.000000	9.000000	-30.000000
1.290000	59.200000	7.510000	443.000000	0.000000	118.000000	68.000000	9.000000	-25.000000
1.300000	59.280000	7.370000	430.000000	0.000000	120.000000	67.000000	8.000000	-14.000000
1.310000	59.350000	7.370000	414.000000	0.000000	122.000000	67.000000	7.000000	0.000000
1.320000	59.480000	7.370000	417.000000	0.000000	122.000000	67.000000	13.000000	0.000000
1.330000	59.660000	7.480000	397.000000	0.000000	122.000000	67.000000	18.000000	11.000000
1.340000	59.880000	7.700000	384.000000	0.000000	124.000000	66.000000	22.000000	22.000000
1.350000	60.100000	8.000000	379.000000	0.000000	124.000000	66.000000	22.000000	30.000000
1.360000	60.350000	8.350000	369.000000	0.000000	122.000000	67.000000	25.000000	35.000000
1.370000	60.600000	8.700000	369.000000	0.000000	122.000000	67.000000	25.000000	35.000000
1.380000	60.820000	9.050000	371.000000	0.000000	122.000000	67.000000	22.000000	35.000000
1.390000	61.030000	9.410000	361.000000	0.000000	120.000000	67.000000	21.000000	36.000000
1.400000	61.180000	9.730000	367.000000	0.000000	120.000000	67.000000	15.000000	32.000000
1.410000	61.300000	10.010000	379.000000	0.000000	118.000000	68.000000	12.000000	28.000000
1.420000	61.390000	10.210000	379.000000	0.000000	116.000000	68.000000	9.000000	20.000000
1.430000	61.460000	10.360000	382.000000	0.000000	116.000000	68.000000	7.000000	15.000000
1.440000	61.460000	10.460000	389.000000	0.000000	114.000000	68.000000	0.000000	10.000000
1.450000	61.460000	10.460000	397.000000	0.000000	114.000000	68.000000	0.000000	0.000000
1.460000	61.460000	10.460000	404.000000	0.000000	114.000000	68.000000	0.000000	0.000000
1.470000	61.460000	10.370000	409.000000	0.000000	112.000000	67.000000	0.000000	-9.000000
1.480000	61.460000	10.230000	420.000000	0.000000	112.000000	67.000000	0.000000	-14.000000
1.490000	61.460000	10.010000	425.000000	0.000000	112.000000	67.000000	0.000000	-22.000000
1.500000	61.460000	9.730000	425.000000	0.000000	114.000000	68.000000	0.000000	-28.000000
1.510000	61.590000	9.460000	414.000000	0.000000	114.000000	68.000000	13.000000	-27.000000
1.520000	61.710000	9.220000	415.000000	0.000000	114.000000	68.000000	12.000000	-24.000000
1.530000	61.850000	8.990000	414.000000	0.000000	114.000000	68.000000	14.000000	-23.000000
1.540000	62.030000	8.840000	415.000000	0.000000	114.000000	68.000000	18.000000	-15.000000
1.550000	62.220000	8.770000	420.000000	0.000000	116.000000	68.000000	19.000000	-7.000000
1.560000	62.440000	8.770000	446.000000	0.000000	116.000000	68.000000	22.000000	0.000000
1.570000	62.680000	8.900000	439.000000	0.000000	116.000000	68.000000	24.000000	13.000000
1.580000	62.970000	9.210000	450.000000	0.000000	116.000000	68.000000	29.000000	31.000000
1.590000	63.300000	9.640000	466.000000	0.000000	116.000000	68.000000	33.000000	43.000000
1.600000	63.640000	10.160000	466.000000	0.000000	116.000000	68.000000	34.000000	52.000000
1.610000	63.920000	10.840000	465.000000	0.000000	116.000000	68.000000	28.000000	68.000000
1.620000	64.170000	11.630000	458.000000	0.000000	114.000000	68.000000	25.000000	79.000000
1.630000	64.380000	12.640000	465.000000	0.000000	114.000000	68.000000	21.000000	101.000000
1.640000	64.530000	13.610000	468.000000	0.000000	114.000000	68.000000	15.000000	97.000000
1.650000	64.630000	14.510000	466.000000	0.000000	114.000000	68.000000	10.000000	90.000000
1.660000	64.690000	15.240000	474.000000	0.000000	114.000000	68.000000	6.000000	73.000000
1.670000	64.750000	15.870000	464.000000	0.000000	116.000000	68.000000	6.000000	63.000000
1.680000	64.750000	16.440000	467.000000	0.000000	118.000000	68.000000	0.000000	57.000000
1.690000	64.750000	16.830000	472.000000	0.000000	122.000000	67.000000	0.000000	39.000000
1.700000	64.750000	17.100000	473.000000	0.000000	124.000000	66.000000	0.000000	27.000000
1.710000	64.750000	17.210000	467.000000	0.000000	126.000000	66.000000	0.000000	11.000000
1.720000	64.750000	17.300000	464.000000	0.000000	128.000000	65.000000	0.000000	9.000000
1.730000	64.680000	17.300000	469.000000	0.000000	129.000000	64.000000	-7.000000	0.000000
1.740000	64.680000	17.300000	466.000000	0.000000	130.000000	63.000000	0.000000	0.000000
1.750000	64.680000	17.200000	468.000000	0.000000	130.000000	63.000000	0.000000	-10.000000
1.760000	64.590000	16.900000	469.000000	0.000000	133.000000	63.000000	-9.000000	-30.000000
1.770000	64.540000	16.470000	473.000000	0.000000	133.000000	63.000000	-5.000000	-43.000000
1.780000	64.490000	15.950000	474.000000	0.000000	133.000000	63.000000	-5.000000	-52.000000
1.790000	64.410000	15.290000	468.000000	0.000000	133.000000	63.000000	-8.000000	-66.000000
1.800000	64.350000	14.540000	472.000000	0.000000	132.000000	64.000000	-6.000000	-75.000000
1.810000	64.350000	13.800000	477.000000	0.000000	130.000000	65.000000	0.000000	-74.000000
1.820000	64.350000	13.050000	477.000000	0.000000	128.000000	65.000000	0.000000	-75.000000
1.830000	64.300000	12.260000	475.000000	0.000000	126.000000	66.000000	-5.000000	-79.000000
1.840000	64.300000	11.420000	480.000000	0.000000	122.000000	67.000000	0.000000	-84.000000
1.850000	64.300000	10.720000	478.000000	0.000000	120.000000	67.000000	0.000000	-70.000000
1.860000	64.360000	10.120000	481.000000	0.000000	118.000000	68.000000	6.000000	-60.000000
1.870000	64.360000	9.590000	481.000000	0.000000	116.000000	68.000000	0.000000	-53.000000
1.880000	64.360000	9.120000	480.000000	0.000000	114.000000	68.000000	0.000000	-47.000000
1.890000	64.480000	8.680000	475.000000	0.000000	114.000000	68.000000	12.000000	-44.000000
1.900000	64.570000	8.370000	477.000000	0.000000	114.000000	68.000000	9.000000	-31.000000
1.910000	64.700000	8.120000	477.000000	0.000000	116.000000	68.000000	13.000000	-25.000000
1.920000	64.860000	7.910000	467.000000	0.000000	117.000000	69.000000	16.000000	-21.000000
1.930000	65.030000	7.740000	464.000000	0.000000	119.000000	68.000000	17.000000	-17.000000
1.940000	65.220000	7.640000	469.000000	0.000000	119.000000	68.000000	19.000000	-10.000000
1.950000	65.460000	7.590000	469.000000	0.000000	122.000000	68.000000	24.000000	-5.000000
1.960000	65.730000	7.640000	469.000000	0.000000	123.000000	69.000000	27.000000	5.000000
1.970000	66.060000	7.760000	465.000000	0.000000	123.000000	69.000000	33.000000	12.000000
1.980000	66.460000	7.920000	464.000000	0.000000	125.000000	68.000000	40.000000	16.000000
1.990000	66.870000	8.160000	474.000000	0.000000	127.000000	69.000000	41.000000	24.000000
2.000000	67.270000	8.470000	463.000000	0.000000	125.000000	70.000000	40.000000	31.000000
2.010000	67.710000	8.820000	440.000000	0.000000	125.000000	70.000000	44.000000	35.000000
2.020000	68.070000	9.190000	440.000000	0.000000	127.000000	70.000000	36.000000	37.000000
2.030000	68.380000	9.580000	448.000000	0.000000	124.000000	71.000000	31.000000	39.000000
2.040000	68.520000	9.990000	455.000000	0.000000	124.000000	71.000000	14.000000	41.000000
2.050000	68.600000	10.420000	470.000000	0.000000	122.000000	71.000000	8.000000	43.000000
2.060000	68.600000	10.840000	473.000000	0.000000	122.000000	71.000000	0.000000	42.000000
2.070000	68.600000	11.230000	477.000000	0.000000	119.000000	72.000000	0.000000	39.000000
2.080000	68.430000	11.640000	490.000000	0.000000	119.000000	72.000000	-17.000000	41.000000
2.090000	68.270000	12.050000	494.000000	0.000000	119.000000	72.000000	-16.000000	41.000000
2.100000	68.040000	12.260000	502.000000	0.000000	119.000000	72.000000	-23.000000	21.000000
2.110000	67.740000	12.410000	502.000000	0.000000	119.000000	72.000000	-30.000000	15.000000
2.120000	67.400000	12.410000	520.000000	0.000000	117.000000	71.000000	-34.000000	0.000000
2.130000	67.050000	12.410000	491.000000	0.000000	117.000000	71.000000	-35.000000	0.000000
2.140000	66.700000	12.130000	494.000000	0.000000	117.000000	71.000000	-35.000000	-28.000000
2.150000	66.350000	11.790000	502.000000	0.000000	117.000000	71.000000	-35.000000	-34.000000
2.160000	66.120000	11.400000	504.000000	0.000000	117.000000	71.000000	-23.000000	-39.000000
2.170000	65.930000	10.960000	504.000000	0.000000	117.000000	71.000000	-19.000000	-44.000000
2.180000	65.840000	10.520000	501.000000	0.000000	117.000000	71.000000	-9.000000	-44.000000
2.190000	65.840000	10.100000	494.000000	0.000000	116.000000	70.000000	0.000000	-42.000000
2.200000	65.990000	9.610000	491.000000	0.000000	116.000000	70.000000	15.000000	-49.000000
2.210000	66.180000	9.190000	491.000000	0.000000	116.000000	70.000000	19.000000	-42.000000
