t	x	y	pressure	penup	azimuth	inclination	v_x	v_y
0.000000	57.650000	68.190000	345.000000	1.000000	181.000000	56.000000	0.000000	0.000000
0.010000	56.440000	68.220000	353.000000	0.000000	181.000000	56.000000	-121.000000	3.000000
0.020000	56.380000	68.430000	349.000000	0.000000	182.000000	57.000000	-6.000000	21.000000
0.030000	56.480000	68.430000	396.000000	0.000000	182.000000	57.000000	10.000000	0.000000
0.040000	56.930000	68.430000	496.000000	0.000000	182.000000	57.000000	45.000000	0.000000
0.050000	57.600000	68.430000	533.000000	0.000000	183.000000	57.000000	67.000000	0.000000
0.060000	58.900000	68.430000	548.000000	0.000000	183.000000	57.000000	130.000000	0.000000
0.070000	60.570000	68.430000	556.000000	0.000000	185.000000	57.000000	167.000000	0.000000
0.080000	62.490000	68.350000	572.000000	0.000000	185.000000	57.000000	192.000000	-8.000000
0.090000	64.500000	68.230000	581.000000	0.000000	185.000000	57.000000	201.000000	-12.000000
0.100000	66.590000	68.030000	595.000000	0.000000	186.000000	57.000000	209.000000	-20.000000
0.110000	68.730000	67.770000	594.000000	0.000000	186.000000	57.000000	214.000000	-26.000000
0.120000	70.830000	67.480000	605.000000	0.000000	186.000000	57.000000	210.000000	-29.000000
0.130000	72.870000	67.060000	608.000000	0.000000	188.000000	58.000000	204.000000	-42.000000
0.140000	74.620000	66.530000	613.000000	0.000000	188.000000	58.000000	175.000000	-53.000000
0.150000	76.180000	65.920000	603.000000	0.000000	188.000000	58.000000	156.000000	-61.000000
0.160000	77.150000	65.330000	585.000000	0.000000	190.000000	58.000000	97.000000	-59.000000
0.170000	77.590000	64.740000	580.000000	0.000000	190.000000	58.000000	44.000000	-59.000000
0.180000	77.670000	64.150000	572.000000	0.000000	191.000000	58.000000	8.000000	-59.000000
0.190000	77.150000	63.600000	574.000000	0.000000	191.000000	58.000000	-52.000000	-55.000000
0.200000	75.850000	63.060000	564.000000	0.000000	193.000000	57.000000	-130.000000	-54.000000
0.210000	74.030000	62.640000	566.000000	0.000000	193.000000	57.000000	-182.000000	-42.000000
0.220000	71.550000	62.320000	577.000000	0.000000	192.000000	56.000000	-248.000000	-32.000000
0.230000	68.660000	62.070000	577.000000	0.000000	194.000000	56.000000	-289.000000	-25.000000
0.240000	65.490000	61.770000	599.000000	0.000000	192.000000	56.000000	-317.000000	-30.000000
0.250000	62.250000	61.430000	594.000000	0.000000	192.000000	55.000000	-324.000000	-34.000000
0.260000	59.520000	61.020000	597.000000	0.000000	190.000000	56.000000	-273.000000	-41.000000
0.270000	57.120000	60.560000	599.000000	0.000000	189.000000	56.000000	-240.000000	-46.000000
0.280000	55.360000	60.240000	603.000000	0.000000	189.000000	56.000000	-176.000000	-32.000000
0.290000	54.170000	60.010000	606.000000	0.000000	188.000000	57.000000	-119.000000	-23.000000
0.300000	53.350000	59.810000	617.000000	0.000000	188.000000	57.000000	-82.000000	-20.000000
0.310000	53.150000	59.810000	641.000000	0.000000	186.000000	57.000000	-20.000000	0.000000
0.320000	53.340000	59.990000	641.000000	0.000000	186.000000	57.000000	19.000000	18.000000
0.330000	53.780000	60.380000	652.000000	0.000000	186.000000	57.000000	44.000000	39.000000
0.340000	54.650000	61.040000	661.000000	0.000000	186.000000	57.000000	87.000000	66.000000
0.350000	55.770000	61.870000	646.000000	0.000000	186.000000	57.000000	112.000000	83.000000
0.360000	57.060000	62.900000	641.000000	0.000000	186.000000	57.000000	129.000000	103.000000
0.370000	58.660000	64.170000	645.000000	0.000000	186.000000	57.000000	160.000000	127.000000
0.380000	60.290000	65.600000	630.000000	0.000000	186.000000	57.000000	163.000000	143.000000
0.390000	61.950000	66.940000	567.000000	0.000000	186.000000	57.000000	166.000000	134.000000
0.400000	63.610000	68.230000	584.000000	0.000000	186.000000	57.000000	166.000000	129.000000
0.410000	64.860000	69.350000	580.000000	0.000000	186.000000	57.000000	125.000000	112.000000
0.420000	65.830000	70.360000	578.000000	0.000000	186.000000	57.000000	97.000000	101.000000
0.430000	66.350000	70.990000	581.000000	0.000000	186.000000	57.000000	52.000000	63.000000
0.440000	66.540000	71.290000	589.000000	0.000000	187.000000	56.000000	19.000000	30.000000
0.450000	66.540000	71.370000	581.000000	0.000000	187.000000	56.000000	0.000000	8.000000
0.460000	66.430000	71.220000	589.000000	0.000000	189.000000	55.000000	-11.000000	-15.000000
0.470000	66.120000	70.700000	586.000000	0.000000	189.000000	55.000000	-31.000000	-52.000000
0.480000	65.650000	69.940000	602.000000	0.000000	188.000000	54.000000	-47.000000	-76.000000
0.490000	65.140000	68.660000	614.000000	0.000000	190.000000	54.000000	-51.000000	-128.000000
0.500000	64.630000	67.360000	611.000000	0.000000	190.000000	55.000000	-51.000000	-130.000000
0.510000	64.120000	66.060000	611.000000	0.000000	189.000000	55.000000	-51.000000	-130.000000
0.520000	63.810000	64.740000	611.000000	0.000000	189.000000	55.000000	-31.000000	-132.000000
0.530000	63.620000	63.790000	619.000000	0.000000	189.000000	56.000000	-19.000000	-95.000000
0.540000	63.830000	63.090000	624.000000	0.000000	189.000000	56.000000	21.000000	-70.000000
0.550000	64.170000	62.740000	633.000000	0.000000	188.000000	57.000000	34.000000	-35.000000
0.560000	64.590000	62.660000	642.000000	0.000000	188.000000	57.000000	42.000000	-8.000000
0.570000	65.270000	62.760000	645.000000	0.000000	188.000000	57.000000	68.000000	10.000000
0.580000	66.150000	63.160000	627.000000	0.000000	188.000000	57.000000	88.000000	40.000000
0.590000	67.160000	63.830000	625.000000	0.000000	188.000000	57.000000	101.000000	67.000000
0.600000	68.100000	64.690000	622.000000	0.000000	188.000000	57.000000	94.000000	86.000000
0.610000	69.030000	65.560000	627.000000	0.000000	190.000000	58.000000	93.000000	87.000000
0.620000	69.650000	66.350000	631.000000	0.000000	190.000000	58.000000	62.000000	79.000000
0.630000	70.050000	66.830000	638.000000	0.000000	190.000000	58.000000	40.000000	48.000000
0.640000	70.210000	67.130000	652.000000	0.000000	190.000000	59.000000	16.000000	30.000000
0.650000	70.210000	67.130000	656.000000	0.000000	190.000000	59.000000	0.000000	0.000000
0.660000	70.140000	66.840000	682.000000	0.000000	188.000000	59.000000	-7.000000	-29.000000
0.670000	70.040000	66.420000	699.000000	0.000000	189.000000	60.000000	-10.000000	-42.000000
0.680000	69.900000	65.690000	713.000000	0.000000	189.000000	60.000000	-14.000000	-73.000000
0.690000	69.730000	64.950000	727.000000	0.000000	187.000000	60.000000	-17.000000	-74.000000
0.700000	69.630000	64.190000	727.000000	0.000000	187.000000	60.000000	-10.000000	-76.000000
0.710000	69.580000	63.640000	722.000000	0.000000	187.000000	60.000000	-5.000000	-55.000000
0.720000	69.580000	63.230000	682.000000	0.000000	188.000000	59.000000	0.000000	-41.000000
0.730000	69.760000	63.000000	545.000000	0.000000	188.000000	59.000000	18.000000	-23.000000
