t	x	y	pressure	penup	azimuth	inclination	v_x	v_y
0.000000	46.720000	9.690000	156.000000	1.000000	153.000000	58.000000	0.000000	0.000000
0.010000	46.400000	9.690000	311.000000	0.000000	153.000000	59.000000	-32.000000	0.000000
0.020000	46.340000	9.810000	309.000000	0.000000	154.000000	60.000000	-6.000000	12.000000
0.030000	46.340000	9.810000	310.000000	0.000000	155.000000	62.000000	0.000000	0.000000
0.040000	46.410000	9.870000	359.000000	0.000000	155.000000	63.000000	7.000000	6.000000
0.050000	46.540000	9.960000	423.000000	0.000000	154.000000	64.000000	13.000000	9.000000
0.060000	46.910000	10.080000	486.000000	0.000000	153.000000	65.000000	37.000000	12.000000
0.070000	47.440000	10.320000	518.000000	0.000000	152.000000	65.000000	53.000000	24.000000
0.080000	48.410000	10.710000	577.000000	0.000000	152.000000	65.000000	97.000000	39.000000
0.090000	49.850000	11.210000	589.000000	0.000000	149.000000	66.000000	144.000000	50.000000
0.100000	51.600000	11.990000	636.000000	0.000000	149.000000	66.000000	175.000000	78.000000
0.110000	53.800000	12.850000	668.000000	0.000000	147.000000	65.000000	220.000000	86.000000
0.120000	56.250000	13.760000	688.000000	0.000000	147.000000	65.000000	245.000000	91.000000
0.130000	58.870000	14.580000	696.000000	0.000000	147.000000	65.000000	262.000000	82.000000
0.140000	61.360000	15.410000	691.000000	0.000000	147.000000	65.000000	249.000000	83.000000
0.150000	64.000000	16.210000	707.000000	0.000000	150.000000	65.000000	264.000000	80.000000
0.160000	66.750000	16.960000	696.000000	0.000000	151.000000	64.000000	275.000000	75.000000
0.170000	69.350000	17.560000	691.000000	0.000000	154.000000	64.000000	260.000000	60.000000
0.180000	71.440000	18.060000	700.000000	0.000000	155.000000	63.000000	209.000000	50.000000
0.190000	73.190000	18.340000	697.000000	0.000000	158.000000	62.000000	175.000000	28.000000
0.200000	74.380000	18.410000	679.000000	0.000000	158.000000	62.000000	119.000000	7.000000
0.210000	74.810000	18.330000	662.000000	0.000000	161.000000	62.000000	43.000000	-8.000000
0.220000	74.720000	18.150000	666.000000	0.000000	163.000000	62.000000	-9.000000	-18.000000
0.230000	74.020000	17.610000	658.000000	0.000000	163.000000	61.000000	-70.000000	-54.000000
0.240000	72.270000	16.840000	673.000000	0.000000	163.000000	61.000000	-175.000000	-77.000000
0.250000	69.830000	15.610000	694.000000	0.000000	163.000000	61.000000	-244.000000	-123.000000
0.260000	66.680000	14.020000	724.000000	0.000000	162.000000	61.000000	-315.000000	-159.000000
0.270000	63.190000	12.190000	721.000000	0.000000	162.000000	61.000000	-349.000000	-183.000000
0.280000	59.460000	10.220000	716.000000	0.000000	159.000000	61.000000	-373.000000	-197.000000
0.290000	55.650000	8.250000	721.000000	0.000000	156.000000	62.000000	-381.000000	-197.000000
0.300000	51.980000	6.290000	728.000000	0.000000	155.000000	62.000000	-367.000000	-196.000000
0.310000	49.210000	4.300000	703.000000	0.000000	152.000000	62.000000	-277.000000	-199.000000
0.320000	46.990000	2.860000	707.000000	0.000000	150.000000	64.000000	-222.000000	-144.000000
0.330000	45.580000	1.800000	708.000000	0.000000	146.000000	64.000000	-141.000000	-106.000000
0.340000	45.020000	1.170000	703.000000	0.000000	144.000000	66.000000	-56.000000	-63.000000
0.350000	45.020000	1.170000	703.000000	0.000000	142.000000	66.000000	0.000000	0.000000
0.360000	45.470000	1.550000	703.000000	0.000000	140.000000	67.000000	45.000000	38.000000
0.370000	46.630000	2.750000	707.000000	0.000000	139.000000	68.000000	116.000000	120.000000
0.380000	48.270000	4.440000	700.000000	0.000000	137.000000	69.000000	164.000000	169.000000
0.390000	49.960000	6.470000	691.000000	0.000000	137.000000	69.000000	169.000000	203.000000
0.400000	51.770000	8.450000	665.000000	0.000000	135.000000	68.000000	181.000000	198.000000
0.410000	53.670000	10.500000	622.000000	0.000000	137.000000	67.000000	190.000000	205.000000
0.420000	55.380000	13.010000	584.000000	0.000000	137.000000	67.000000	171.000000	251.000000
0.430000	56.930000	15.790000	537.000000	0.000000	137.000000	66.000000	155.000000	278.000000
0.440000	58.380000	17.990000	533.000000	0.000000	140.000000	65.000000	145.000000	220.000000
0.450000	59.020000	19.130000	565.000000	0.000000	141.000000	64.000000	64.000000	114.000000
0.460000	59.070000	19.570000	603.000000	0.000000	141.000000	63.000000	5.000000	44.000000
0.470000	58.720000	19.570000	645.000000	0.000000	143.000000	62.000000	-35.000000	0.000000
0.480000	58.120000	18.960000	696.000000	0.000000	144.000000	61.000000	-60.000000	-61.000000
0.490000	57.210000	17.860000	699.000000	0.000000	144.000000	60.000000	-91.000000	-110.000000
0.500000	56.080000	15.550000	716.000000	0.000000	144.000000	60.000000	-113.000000	-231.000000
0.510000	55.110000	13.100000	714.000000	0.000000	144.000000	60.000000	-97.000000	-245.000000
0.520000	54.590000	10.550000	733.000000	0.000000	142.000000	61.000000	-52.000000	-255.000000
0.530000	54.370000	9.250000	742.000000	0.000000	141.000000	61.000000	-22.000000	-130.000000
0.540000	54.460000	8.580000	750.000000	0.000000	141.000000	63.000000	9.000000	-67.000000
0.550000	54.880000	8.320000	768.000000	0.000000	140.000000	63.000000	42.000000	-26.000000
0.560000	55.510000	8.320000	770.000000	0.000000	138.000000	64.000000	63.000000	0.000000
0.570000	56.510000	8.930000	751.000000	0.000000	137.000000	65.000000	100.000000	61.000000
0.580000	57.750000	9.880000	748.000000	0.000000	135.000000	65.000000	124.000000	95.000000
0.590000	59.140000	11.120000	730.000000	0.000000	133.000000	66.000000	139.000000	124.000000
0.600000	60.390000	12.540000	739.000000	0.000000	133.000000	66.000000	125.000000	142.000000
0.610000	61.410000	14.080000	761.000000	0.000000	133.000000	66.000000	102.000000	154.000000
0.620000	62.280000	14.710000	777.000000	0.000000	133.000000	66.000000	87.000000	63.000000
0.630000	62.620000	14.710000	797.000000	0.000000	133.000000	66.000000	34.000000	0.000000
0.640000	62.680000	14.400000	833.000000	0.000000	133.000000	66.000000	6.000000	-31.000000
0.650000	62.540000	13.400000	843.000000	0.000000	132.000000	65.000000	-14.000000	-100.000000
0.660000	62.350000	12.200000	843.000000	0.000000	132.000000	65.000000	-19.000000	-120.000000
0.670000	62.350000	10.880000	845.000000	0.000000	132.000000	65.000000	0.000000	-132.000000
0.680000	62.430000	10.400000	836.000000	0.000000	130.000000	66.000000	8.000000	-48.000000
0.690000	62.780000	10.230000	806.000000	0.000000	130.000000	66.000000	35.000000	-17.000000
0.700000	63.600000	10.230000	720.000000	0.000000	128.000000	66.000000	82.000000	0.000000
0.710000	64.720000	10.700000	492.000000	0.000000	128.000000	66.000000	112.000000	47.000000
