t	x	y	pressure	penup	azimuth	inclination	v_x	v_y
0.000000	50.140000	66.630000	148.000000	1.000000	331.000000	60.000000	0.000000	0.000000
0.010000	51.170000	67.520000	264.000000	0.000000	331.000000	60.000000	103.000000	89.000000
0.020000	51.480000	67.660000	301.000000	0.000000	328.000000	60.000000	31.000000	14.000000
0.030000	51.670000	67.660000	425.000000	0.000000	328.000000	60.000000	19.000000	0.000000
0.040000	51.670000	67.480000	488.000000	0.000000	326.000000	60.000000	0.000000	-18.000000
0.050000	51.670000	67.040000	518.000000	0.000000	326.000000	60.000000	0.000000	-44.000000
0.060000	51.210000	66.410000	537.000000	0.000000	325.000000	59.000000	-46.000000	-63.000000
0.070000	50.530000	65.480000	570.000000	0.000000	325.000000	59.000000	-68.000000	-93.000000
0.080000	49.620000	64.510000	578.000000	0.000000	326.000000	60.000000	-91.000000	-97.000000
0.090000	48.700000	63.520000	567.000000	0.000000	326.000000	60.000000	-92.000000	-99.000000
0.100000	47.770000	62.770000	526.000000	0.000000	326.000000	60.000000	-93.000000	-75.000000
0.110000	47.090000	62.290000	446.000000	0.000000	329.000000	59.000000	-68.000000	-48.000000
0.120000	46.550000	62.000000	279.000000	0.000000	331.000000	60.000000	-54.000000	-29.000000
0.130000	46.240000	62.620000	81.000000	0.000000	332.000000	60.000000	-31.000000	62.000000
0.140000	46.240000	62.620000	0.000000	1.000000	335.000000	60.000000	0.000000	0.000000
0.150000	46.410000	63.110000	0.000000	0.000000	338.000000	60.000000	17.000000	49.000000
0.160000	46.730000	63.950000	0.000000	0.000000	340.000000	60.000000	32.000000	84.000000
0.170000	47.080000	64.790000	0.000000	0.000000	340.000000	60.000000	35.000000	84.000000
0.180000	47.450000	65.550000	0.000000	0.000000	340.000000	60.000000	37.000000	76.000000
0.190000	47.770000	66.270000	0.000000	0.000000	340.000000	60.000000	32.000000	72.000000
0.200000	47.770000	66.270000	112.000000	1.000000	340.000000	60.000000	0.000000	0.000000
0.210000	48.430000	67.230000	249.000000	0.000000	340.000000	60.000000	66.000000	96.000000
0.220000	48.790000	67.610000	343.000000	0.000000	337.000000	61.000000	36.000000	38.000000
0.230000	49.160000	68.000000	471.000000	0.000000	336.000000	61.000000	37.000000	39.000000
0.240000	49.590000	68.410000	564.000000	0.000000	334.000000	60.000000	43.000000	41.000000
0.250000	50.050000	68.750000	594.000000	0.000000	331.000000	61.000000	46.000000	34.000000
0.260000	50.640000	69.040000	646.000000	0.000000	328.000000	61.000000	59.000000	29.000000
0.270000	51.380000	69.320000	684.000000	0.000000	328.000000	61.000000	74.000000	28.000000
0.280000	52.230000	69.580000	702.000000	0.000000	326.000000	62.000000	85.000000	26.000000
0.290000	53.520000	69.830000	705.000000	0.000000	324.000000	61.000000	129.000000	25.000000
0.300000	55.030000	69.970000	700.000000	0.000000	323.000000	62.000000	151.000000	14.000000
0.310000	56.680000	70.110000	696.000000	0.000000	320.000000	62.000000	165.000000	14.000000
0.320000	58.660000	70.110000	688.000000	0.000000	320.000000	62.000000	198.000000	0.000000
0.330000	60.590000	70.040000	691.000000	0.000000	317.000000	62.000000	193.000000	-7.000000
0.340000	61.320000	69.550000	684.000000	0.000000	315.000000	62.000000	73.000000	-49.000000
0.350000	61.270000	68.580000	684.000000	0.000000	314.000000	61.000000	-5.000000	-97.000000
0.360000	60.260000	67.300000	668.000000	0.000000	312.000000	60.000000	-101.000000	-128.000000
0.370000	58.080000	65.640000	640.000000	0.000000	312.000000	60.000000	-218.000000	-166.000000
0.380000	55.120000	64.040000	627.000000	0.000000	312.000000	59.000000	-296.000000	-160.000000
0.390000	51.560000	62.530000	620.000000	0.000000	314.000000	58.000000	-356.000000	-151.000000
0.400000	48.920000	61.660000	620.000000	0.000000	316.000000	58.000000	-264.000000	-87.000000
0.410000	46.880000	61.210000	617.000000	0.000000	319.000000	58.000000	-204.000000	-45.000000
0.420000	45.750000	61.270000	627.000000	0.000000	322.000000	58.000000	-113.000000	6.000000
0.430000	45.280000	61.380000	665.000000	0.000000	326.000000	58.000000	-47.000000	11.000000
0.440000	45.280000	61.570000	727.000000	0.000000	329.000000	59.000000	0.000000	19.000000
0.450000	45.440000	61.790000	797.000000	0.000000	331.000000	60.000000	16.000000	22.000000
0.460000	46.460000	62.040000	828.000000	0.000000	332.000000	59.000000	102.000000	25.000000
0.470000	48.030000	62.680000	867.000000	0.000000	333.000000	59.000000	157.000000	64.000000
0.480000	50.630000	63.570000	872.000000	0.000000	332.000000	59.000000	260.000000	89.000000
0.490000	53.960000	64.720000	864.000000	0.000000	332.000000	59.000000	333.000000	115.000000
0.500000	57.770000	66.100000	833.000000	0.000000	330.000000	58.000000	381.000000	138.000000
0.510000	62.120000	67.630000	785.000000	0.000000	326.000000	58.000000	435.000000	153.000000
0.520000	66.410000	69.110000	691.000000	0.000000	324.000000	58.000000	429.000000	148.000000
0.530000	70.300000	70.250000	656.000000	0.000000	320.000000	58.000000	389.000000	114.000000
0.540000	73.950000	71.170000	533.000000	0.000000	316.000000	57.000000	365.000000	92.000000
0.550000	78.160000	71.790000	435.000000	0.000000	311.000000	56.000000	421.000000	62.000000
0.560000	79.900000	72.140000	225.000000	0.000000	307.000000	55.000000	174.000000	35.000000
0.570000	79.900000	72.140000	0.000000	1.000000	302.000000	54.000000	0.000000	0.000000
0.580000	79.280000	71.900000	0.000000	0.000000	299.000000	53.000000	-62.000000	-24.000000
0.590000	78.170000	71.100000	0.000000	0.000000	296.000000	52.000000	-111.000000	-80.000000
0.600000	76.800000	70.030000	0.000000	0.000000	295.000000	51.000000	-137.000000	-107.000000
0.610000	75.130000	69.020000	0.000000	0.000000	295.000000	50.000000	-167.000000	-101.000000
0.620000	73.530000	68.280000	0.000000	0.000000	295.000000	50.000000	-160.000000	-74.000000
0.630000	71.970000	67.720000	0.000000	0.000000	294.000000	50.000000	-156.000000	-56.000000
0.640000	70.260000	67.240000	0.000000	0.000000	295.000000	49.000000	-171.000000	-48.000000
0.650000	68.760000	66.950000	0.000000	0.000000	296.000000	50.000000	-150.000000	-29.000000
0.660000	67.410000	66.800000	0.000000	0.000000	297.000000	50.000000	-135.000000	-15.000000
0.670000	66.080000	66.650000	0.000000	0.000000	297.000000	50.000000	-133.000000	-15.000000
0.680000	64.860000	66.530000	0.000000	0.000000	297.000000	50.000000	-122.000000	-12.000000
0.690000	63.820000	66.440000	0.000000	0.000000	298.000000	49.000000	-104.000000	-9.000000
0.700000	62.900000	66.360000	0.000000	0.000000	299.000000	50.000000	-92.000000	-8.000000
0.710000	62.140000	66.360000	0.000000	0.000000	300.000000	51.000000	-76.000000	0.000000
0.720000	61.440000	66.360000	0.000000	0.000000	302.000000	53.000000	-70.000000	0.000000
0.730000	60.770000	66.230000	0.000000	0.000000	304.000000	53.000000	-67.000000	-13.000000
0.740000	60.100000	66.040000	0.000000	0.000000	306.000000	54.000000	-67.000000	-19.000000
0.750000	59.540000	65.920000	0.000000	0.000000	309.000000	55.000000	-56.000000	-12.000000
0.760000	59.060000	65.920000	0.000000	0.000000	311.000000	56.000000	-48.000000	0.000000
0.770000	58.590000	66.030000	0.000000	0.000000	315.000000	57.000000	-47.000000	11.000000
0.780000	58.230000	66.110000	0.000000	0.000000	316.000000	57.000000	-36.000000	8.000000
0.790000	57.950000	66.180000	0.000000	0.000000	316.000000	57.000000	-28.000000	7.000000
0.800000	57.730000	66.240000	0.000000	0.000000	319.000000	57.000000	-22.000000	6.000000
0.810000	57.480000	66.240000	0.000000	0.000000	319.000000	57.000000	-25.000000	0.000000
0.820000	57.320000	66.300000	0.000000	0.000000	319.000000	57.000000	-16.000000	6.000000
0.830000	57.230000	66.350000	0.000000	0.000000	319.000000	57.000000	-9.000000	5.000000
0.840000	57.340000	66.440000	0.000000	0.000000	319.000000	57.000000	11.000000	9.000000
0.850000	57.450000	66.500000	0.000000	0.000000	319.000000	57.000000	11.000000	6.000000
0.860000	57.580000	66.500000	0.000000	0.000000	319.000000	57.000000	13.000000	0.000000
0.870000	57.870000	66.670000	0.000000	0.000000	319.000000	57.000000	29.000000	17.000000
0.880000	58.230000	66.810000	0.000000	0.000000	319.000000	57.000000	36.000000	14.000000
0.890000	58.700000	66.980000	0.000000	0.000000	319.000000	57.000000	47.000000	17.000000
0.900000	59.120000	67.150000	0.000000	0.000000	319.000000	57.000000	42.000000	17.000000
0.910000	59.450000	67.310000	0.000000	0.000000	319.000000	57.000000	33.000000	16.000000
0.920000	59.690000	67.470000	0.000000	0.000000	318.000000	57.000000	24.000000	16.000000
0.930000	59.980000	67.640000	0.000000	0.000000	318.000000	57.000000	29.000000	17.000000
0.940000	59.980000	67.640000	112.000000	1.000000	316.000000	56.000000	0.000000	0.000000
0.950000	60.670000	68.110000	191.000000	0.000000	315.000000	57.000000	69.000000	47.000000
0.960000	60.980000	68.230000	211.000000	0.000000	314.000000	56.000000	31.000000	12.000000
0.970000	61.110000	68.310000	301.000000	0.000000	314.000000	56.000000	13.000000	8.000000
0.980000	61.110000	68.310000	353.000000	0.000000	312.000000	55.000000	0.000000	0.000000
0.990000	61.050000	68.250000	389.000000	0.000000	312.000000	55.000000	-6.000000	-6.000000
1.000000	60.810000	68.140000	398.000000	0.000000	312.000000	55.000000	-24.000000	-11.000000
1.010000	60.450000	67.840000	422.000000	0.000000	312.000000	55.000000	-36.000000	-30.000000
1.020000	60.060000	67.540000	439.000000	0.000000	312.000000	55.000000	-39.000000	-30.000000
1.030000	59.670000	67.250000	465.000000	0.000000	312.000000	55.000000	-39.000000	-29.000000
1.040000	59.410000	66.970000	477.000000	0.000000	312.000000	55.000000	-26.000000	-28.000000
1.050000	59.240000	66.730000	521.000000	0.000000	314.000000	56.000000	-17.000000	-24.000000
1.060000	59.180000	66.520000	545.000000	0.000000	315.000000	55.000000	-6.000000	-21.000000
1.070000	59.270000	66.520000	540.000000	0.000000	315.000000	55.000000	9.000000	0.000000
1.080000	59.450000	66.520000	521.000000	0.000000	315.000000	55.000000	18.000000	0.000000
1.090000	59.900000	66.760000	499.000000	0.000000	316.000000	55.000000	45.000000	24.000000
1.100000	60.370000	67.100000	471.000000	0.000000	316.000000	55.000000	47.000000	34.000000
1.110000	60.860000	67.540000	430.000000	0.000000	316.000000	55.000000	49.000000	44.000000
1.120000	61.260000	68.040000	413.000000	0.000000	316.000000	55.000000	40.000000	50.000000
1.130000	61.600000	68.400000	394.000000	0.000000	315.000000	55.000000	34.000000	36.000000
1.140000	61.720000	68.670000	402.000000	0.000000	314.000000	55.000000	12.000000	27.000000
1.150000	61.720000	68.670000	422.000000	0.000000	314.000000	55.000000	0.000000	0.000000
1.160000	61.720000	68.590000	441.000000	0.000000	312.000000	55.000000	0.000000	-8.000000
1.170000	61.550000	68.390000	443.000000	0.000000	311.000000	55.000000	-17.000000	-20.000000
1.180000	61.330000	68.090000	471.000000	0.000000	311.000000	55.000000	-22.000000	-30.000000
1.190000	61.120000	67.720000	485.000000	0.000000	311.000000	55.000000	-21.000000	-37.000000
1.200000	60.910000	67.300000	496.000000	0.000000	311.000000	55.000000	-21.000000	-42.000000
1.210000	60.800000	67.000000	512.000000	0.000000	311.000000	55.000000	-11.000000	-30.000000
1.220000	60.750000	66.910000	509.000000	0.000000	311.000000	55.000000	-5.000000	-9.000000
1.230000	60.750000	66.970000	481.000000	0.000000	314.000000	55.000000	0.000000	6.000000
1.240000	60.840000	67.080000	458.000000	0.000000	314.000000	55.000000	9.000000	11.000000
1.250000	60.940000	67.230000	440.000000	0.000000	314.000000	55.000000	10.000000	15.000000
1.260000	61.170000	67.600000	435.000000	0.000000	315.000000	54.000000	23.000000	37.000000
1.270000	61.510000	68.110000	422.000000	0.000000	314.000000	55.000000	34.000000	51.000000
1.280000	61.910000	68.570000	417.000000	0.000000	314.000000	55.000000	40.000000	46.000000
1.290000	61.610000	68.770000	417.000000	0.000000	314.000000	55.000000	-30.000000	20.000000
1.300000	61.730000	68.770000	427.000000	0.000000	312.000000	55.000000	12.000000	0.000000
1.310000	62.140000	68.770000	435.000000	0.000000	311.000000	55.000000	41.000000	0.000000
1.320000	62.140000	68.710000	440.000000	0.000000	311.000000	55.000000	0.000000	-6.000000
1.330000	61.950000	68.570000	448.000000	0.000000	310.000000	55.000000	-19.000000	-14.000000
1.340000	61.710000	68.310000	455.000000	0.000000	310.000000	55.000000	-24.000000	-26.000000
1.350000	61.540000	68.090000	469.000000	0.000000	310.000000	55.000000	-17.000000	-22.000000
1.360000	61.350000	67.930000	467.000000	0.000000	310.000000	55.000000	-19.000000	-16.000000
1.370000	61.300000	67.830000	469.000000	0.000000	311.000000	55.000000	-5.000000	-10.000000
1.380000	61.300000	67.830000	453.000000	0.000000	311.000000	55.000000	0.000000	0.000000
1.390000	61.460000	68.010000	443.000000	0.000000	311.000000	55.000000	16.000000	18.000000
1.400000	61.780000	68.290000	428.000000	0.000000	311.000000	55.000000	32.000000	28.000000
1.410000	62.230000	68.700000	415.000000	0.000000	311.000000	55.000000	45.000000	41.000000
1.420000	62.650000	68.970000	412.000000	0.000000	311.000000	55.000000	42.000000	27.000000
1.430000	62.870000	69.160000	433.000000	0.000000	310.000000	55.000000	22.000000	19.000000
1.440000	62.950000	69.100000	440.000000	0.000000	310.000000	55.000000	8.000000	-6.000000
1.450000	62.950000	68.910000	473.000000	0.000000	310.000000	55.000000	0.000000	-19.000000
1.460000	62.950000	68.630000	467.000000	0.000000	309.000000	55.000000	0.000000	-28.000000
1.470000	62.880000	68.350000	473.000000	0.000000	309.000000	55.000000	-7.000000	-28.000000
1.480000	62.790000	68.130000	470.000000	0.000000	309.000000	55.000000	-9.000000	-22.000000
1.490000	62.730000	67.990000	466.000000	0.000000	309.000000	55.000000	-6.000000	-14.000000
1.500000	62.670000	67.920000	455.000000	0.000000	309.000000	55.000000	-6.000000	-7.000000
1.510000	62.670000	67.920000	448.000000	0.000000	310.000000	55.000000	0.000000	0.000000
1.520000	62.670000	67.920000	440.000000	0.000000	310.000000	55.000000	0.000000	0.000000
1.530000	62.670000	68.180000	433.000000	0.000000	310.000000	55.000000	0.000000	26.000000
1.540000	62.810000	68.330000	430.000000	0.000000	310.000000	55.000000	14.000000	15.000000
1.550000	63.010000	68.500000	423.000000	0.000000	310.000000	55.000000	20.000000	17.000000
1.560000	63.290000	68.670000	415.000000	0.000000	310.000000	55.000000	28.000000	17.000000
1.570000	63.550000	68.840000	409.000000	0.000000	310.000000	55.000000	26.000000	17.000000
1.580000	63.650000	68.990000	409.000000	0.000000	310.000000	55.000000	10.000000	15.000000
1.590000	63.650000	68.990000	413.000000	0.000000	309.000000	55.000000	0.000000	0.000000
1.600000	63.500000	68.990000	414.000000	0.000000	309.000000	55.000000	-15.000000	0.000000
1.610000	63.150000	68.810000	431.000000	0.000000	309.000000	55.000000	-35.000000	-18.000000
1.620000	62.670000	68.510000	473.000000	0.000000	309.000000	55.000000	-48.000000	-30.000000
1.630000	62.380000	68.140000	495.000000	0.000000	309.000000	55.000000	-29.000000	-37.000000
1.640000	62.220000	67.880000	507.000000	0.000000	309.000000	55.000000	-16.000000	-26.000000
1.650000	62.150000	67.670000	526.000000	0.000000	309.000000	55.000000	-7.000000	-21.000000
1.660000	62.240000	67.670000	521.000000	0.000000	310.000000	55.000000	9.000000	0.000000
1.670000	62.550000	67.740000	519.000000	0.000000	310.000000	55.000000	31.000000	7.000000
1.680000	63.010000	68.010000	489.000000	0.000000	311.000000	55.000000	46.000000	27.000000
1.690000	63.710000	68.510000	471.000000	0.000000	311.000000	55.000000	70.000000	50.000000
1.700000	64.610000	69.170000	445.000000	0.000000	310.000000	55.000000	90.000000	66.000000
1.710000	65.640000	69.910000	420.000000	0.000000	310.000000	55.000000	103.000000	74.000000
1.720000	66.730000	70.740000	423.000000	0.000000	310.000000	55.000000	109.000000	83.000000
1.730000	67.580000	71.620000	423.000000	0.000000	307.000000	55.000000	85.000000	88.000000
1.740000	67.790000	72.030000	430.000000	0.000000	307.000000	55.000000	21.000000	41.000000
1.750000	67.640000	72.030000	455.000000	0.000000	306.000000	56.000000	-15.000000	0.000000
1.760000	67.060000	71.640000	472.000000	0.000000	305.000000	55.000000	-58.000000	-39.000000
1.770000	66.070000	70.880000	496.000000	0.000000	305.000000	55.000000	-99.000000	-76.000000
1.780000	64.810000	69.970000	526.000000	0.000000	305.000000	55.000000	-126.000000	-91.000000
1.790000	63.700000	68.950000	544.000000	0.000000	305.000000	55.000000	-111.000000	-102.000000
1.800000	62.770000	67.980000	561.000000	0.000000	306.000000	56.000000	-93.000000	-97.000000
1.810000	61.970000	67.070000	561.000000	0.000000	307.000000	55.000000	-80.000000	-91.000000
1.820000	61.540000	66.200000	546.000000	0.000000	309.000000	55.000000	-43.000000	-87.000000
1.830000	61.370000	65.820000	467.000000	0.000000	310.000000	55.000000	-17.000000	-38.000000
1.840000	61.370000	65.720000	317.000000	0.000000	311.000000	55.000000	0.000000	-10.000000
1.850000	61.600000	65.820000	149.000000	0.000000	313.000000	54.000000	23.000000	10.000000
1.860000	61.600000	65.820000	0.000000	1.000000	314.000000	54.000000	0.000000	0.000000
1.870000	62.890000	67.000000	0.000000	0.000000	315.000000	53.000000	129.000000	118.000000
1.880000	63.630000	67.920000	0.000000	0.000000	315.000000	53.000000	74.000000	92.000000
1.890000	64.350000	68.680000	0.000000	0.000000	315.000000	53.000000	72.000000	76.000000
1.900000	65.050000	69.290000	0.000000	0.000000	315.000000	53.000000	70.000000	61.000000
1.910000	65.710000	69.790000	0.000000	0.000000	314.000000	54.000000	66.000000	50.000000
1.920000	66.290000	70.300000	0.000000	0.000000	313.000000	54.000000	58.000000	51.000000
1.930000	66.830000	70.830000	0.000000	0.000000	310.000000	54.000000	54.000000	53.000000
1.940000	67.500000	71.410000	0.000000	0.000000	309.000000	55.000000	67.000000	58.000000
1.950000	68.240000	72.040000	0.000000	0.000000	309.000000	55.000000	74.000000	63.000000
1.960000	69.120000	72.730000	0.000000	0.000000	309.000000	55.000000	88.000000	69.000000
1.970000	69.120000	72.730000	228.000000	1.000000	308.000000	54.000000	0.000000	0.000000
1.980000	70.970000	74.600000	320.000000	0.000000	308.000000	54.000000	185.000000	187.000000
1.990000	72.490000	75.410000	319.000000	0.000000	308.000000	54.000000	152.000000	81.000000
2.000000	73.500000	76.040000	330.000000	0.000000	307.000000	53.000000	101.000000	63.000000
2.010000	74.160000	76.560000	398.000000	0.000000	307.000000	53.000000	66.000000	52.000000
2.020000	74.590000	76.730000	444.000000	0.000000	305.000000	53.000000	43.000000	17.000000
2.030000	74.650000	76.730000	449.000000	0.000000	304.000000	53.000000	6.000000	0.000000
2.040000	74.460000	76.520000	439.000000	0.000000	303.000000	52.000000	-19.000000	-21.000000
2.050000	73.620000	75.920000	469.000000	0.000000	303.000000	52.000000	-84.000000	-60.000000
2.060000	72.070000	74.830000	474.000000	0.000000	303.000000	52.000000	-155.000000	-109.000000
2.070000	70.040000	73.410000	486.000000	0.000000	303.000000	52.000000	-203.000000	-142.000000
2.080000	68.120000	71.990000	521.000000	0.000000	303.000000	52.000000	-192.000000	-142.000000
2.090000	66.790000	70.850000	537.000000	0.000000	303.000000	52.000000	-133.000000	-114.000000
2.100000	65.840000	69.890000	564.000000	0.000000	304.000000	53.000000	-95.000000	-96.000000
2.110000	65.130000	69.150000	564.000000	0.000000	304.000000	53.000000	-71.000000	-74.000000
2.120000	64.650000	68.440000	560.000000	0.000000	305.000000	54.000000	-48.000000	-71.000000
2.130000	64.330000	67.810000	568.000000	0.000000	305.000000	54.000000	-32.000000	-63.000000
2.140000	64.330000	67.520000	543.000000	0.000000	306.000000	54.000000	0.000000	-29.000000
2.150000	64.580000	67.470000	492.000000	0.000000	308.000000	54.000000	25.000000	-5.000000
2.160000	65.100000	67.690000	456.000000	0.000000	308.000000	54.000000	52.000000	22.000000
2.170000	65.980000	68.250000	418.000000	0.000000	308.000000	54.000000	88.000000	56.000000
2.180000	66.830000	69.050000	371.000000	0.000000	309.000000	53.000000	85.000000	80.000000
2.190000	67.330000	69.710000	337.000000	0.000000	308.000000	54.000000	50.000000	66.000000
2.200000	67.620000	70.110000	310.000000	0.000000	308.000000	54.000000	29.000000	40.000000
