t	x	y	pressure	penup	azimuth	inclination	v_x	v_y
0.000000	15.750000	82.090000	141.000000	1.000000	336.000000	59.000000	0.000000	0.000000
0.010000	16.410000	82.820000	237.000000	0.000000	334.000000	58.000000	66.000000	73.000000
0.020000	16.690000	83.030000	282.000000	0.000000	334.000000	58.000000	28.000000	21.000000
0.030000	16.830000	83.030000	409.000000	0.000000	334.000000	58.000000	14.000000	0.000000
0.040000	16.930000	82.940000	515.000000	0.000000	333.000000	59.000000	10.000000	-9.000000
0.050000	16.850000	82.770000	536.000000	0.000000	333.000000	59.000000	-8.000000	-17.000000
0.060000	16.650000	82.280000	554.000000	0.000000	333.000000	59.000000	-20.000000	-49.000000
0.070000	15.930000	81.590000	570.000000	0.000000	332.000000	60.000000	-72.000000	-69.000000
0.080000	14.960000	80.780000	586.000000	0.000000	334.000000	60.000000	-97.000000	-81.000000
0.090000	13.810000	79.920000	572.000000	0.000000	334.000000	60.000000	-115.000000	-86.000000
0.100000	12.680000	79.110000	560.000000	0.000000	333.000000	61.000000	-113.000000	-81.000000
0.110000	11.750000	78.400000	537.000000	0.000000	333.000000	61.000000	-93.000000	-71.000000
0.120000	10.950000	77.990000	467.000000	0.000000	333.000000	61.000000	-80.000000	-41.000000
0.130000	10.580000	77.760000	311.000000	0.000000	332.000000	62.000000	-37.000000	-23.000000
0.140000	10.410000	77.940000	216.000000	0.000000	332.000000	62.000000	-17.000000	18.000000
0.150000	10.410000	78.460000	178.000000	0.000000	334.000000	63.000000	0.000000	52.000000
0.160000	10.650000	79.210000	134.000000	0.000000	335.000000	63.000000	24.000000	75.000000
0.170000	11.100000	80.180000	127.000000	0.000000	339.000000	64.000000	45.000000	97.000000
0.180000	11.670000	81.310000	130.000000	0.000000	341.000000	64.000000	57.000000	113.000000
0.190000	12.310000	82.550000	130.000000	0.000000	343.000000	64.000000	64.000000	124.000000
0.200000	12.980000	83.790000	137.000000	0.000000	346.000000	63.000000	67.000000	124.000000
0.210000	13.670000	84.730000	208.000000	0.000000	346.000000	63.000000	69.000000	94.000000
0.220000	14.250000	85.470000	315.000000	0.000000	346.000000	62.000000	58.000000	74.000000
0.230000	14.820000	85.910000	422.000000	0.000000	346.000000	62.000000	57.000000	44.000000
0.240000	15.490000	86.180000	507.000000	0.000000	345.000000	62.000000	67.000000	27.000000
0.250000	16.230000	86.340000	561.000000	0.000000	342.000000	61.000000	74.000000	16.000000
0.260000	17.350000	86.490000	597.000000	0.000000	340.000000	60.000000	112.000000	15.000000
0.270000	18.770000	86.640000	620.000000	0.000000	337.000000	60.000000	142.000000	15.000000
0.280000	20.400000	86.780000	645.000000	0.000000	337.000000	60.000000	163.000000	14.000000
0.290000	22.240000	86.920000	655.000000	0.000000	335.000000	60.000000	184.000000	14.000000
0.300000	23.750000	86.920000	664.000000	0.000000	332.000000	60.000000	151.000000	0.000000
0.310000	25.040000	86.780000	694.000000	0.000000	332.000000	60.000000	129.000000	-14.000000
0.320000	25.640000	86.340000	721.000000	0.000000	331.000000	60.000000	60.000000	-44.000000
0.330000	25.700000	85.630000	717.000000	0.000000	331.000000	60.000000	6.000000	-71.000000
0.340000	25.390000	84.750000	717.000000	0.000000	331.000000	60.000000	-31.000000	-88.000000
0.350000	24.010000	83.340000	696.000000	0.000000	329.000000	59.000000	-138.000000	-141.000000
0.360000	21.370000	81.810000	684.000000	0.000000	329.000000	59.000000	-264.000000	-153.000000
0.370000	17.880000	80.190000	707.000000	0.000000	327.000000	59.000000	-349.000000	-162.000000
0.380000	14.900000	78.940000	751.000000	0.000000	327.000000	59.000000	-298.000000	-125.000000
0.390000	12.880000	77.730000	800.000000	0.000000	328.000000	60.000000	-202.000000	-121.000000
0.400000	11.490000	77.020000	820.000000	0.000000	328.000000	60.000000	-139.000000	-71.000000
0.410000	10.690000	76.630000	829.000000	0.000000	330.000000	60.000000	-80.000000	-39.000000
0.420000	10.330000	76.530000	818.000000	0.000000	333.000000	61.000000	-36.000000	-10.000000
0.430000	10.270000	76.610000	828.000000	0.000000	335.000000	62.000000	-6.000000	8.000000
0.440000	10.410000	76.800000	853.000000	0.000000	336.000000	62.000000	14.000000	19.000000
0.450000	11.370000	77.400000	897.000000	0.000000	336.000000	62.000000	96.000000	60.000000
0.460000	12.880000	78.330000	912.000000	0.000000	336.000000	62.000000	151.000000	93.000000
0.470000	15.370000	79.470000	905.000000	0.000000	336.000000	62.000000	249.000000	114.000000
0.480000	19.080000	80.500000	908.000000	0.000000	336.000000	62.000000	371.000000	103.000000
0.490000	23.600000	81.570000	873.000000	0.000000	335.000000	62.000000	452.000000	107.000000
0.500000	28.400000	82.700000	833.000000	0.000000	333.000000	61.000000	480.000000	113.000000
0.510000	33.340000	83.860000	830.000000	0.000000	331.000000	61.000000	494.000000	116.000000
0.520000	38.370000	85.060000	799.000000	0.000000	328.000000	60.000000	503.000000	120.000000
0.530000	41.050000	86.030000	696.000000	0.000000	325.000000	59.000000	268.000000	97.000000
0.540000	42.820000	86.850000	586.000000	0.000000	322.000000	58.000000	177.000000	82.000000
0.550000	43.970000	87.290000	302.000000	0.000000	320.000000	58.000000	115.000000	44.000000
0.560000	43.970000	87.290000	0.000000	1.000000	318.000000	57.000000	0.000000	0.000000
0.570000	43.280000	86.850000	0.000000	0.000000	316.000000	56.000000	-69.000000	-44.000000
0.580000	42.120000	85.970000	0.000000	0.000000	315.000000	55.000000	-116.000000	-88.000000
0.590000	40.810000	84.950000	0.000000	0.000000	315.000000	55.000000	-131.000000	-102.000000
0.600000	39.280000	83.840000	0.000000	0.000000	314.000000	55.000000	-153.000000	-111.000000
0.610000	37.600000	82.940000	0.000000	0.000000	314.000000	55.000000	-168.000000	-90.000000
0.620000	36.180000	82.380000	0.000000	0.000000	315.000000	54.000000	-142.000000	-56.000000
0.630000	34.760000	82.040000	0.000000	0.000000	316.000000	54.000000	-142.000000	-34.000000
0.640000	33.350000	80.780000	0.000000	0.000000	317.000000	53.000000	-141.000000	-126.000000
0.650000	31.430000	80.000000	0.000000	0.000000	319.000000	52.000000	-192.000000	-78.000000
0.660000	30.160000	79.550000	0.000000	0.000000	323.000000	51.000000	-127.000000	-45.000000
0.670000	29.320000	79.130000	0.000000	0.000000	327.000000	49.000000	-84.000000	-42.000000
0.680000	28.490000	78.700000	0.000000	0.000000	331.000000	47.000000	-83.000000	-43.000000
0.690000	27.780000	78.260000	0.000000	0.000000	336.000000	44.000000	-71.000000	-44.000000
0.700000	27.140000	78.090000	0.000000	0.000000	339.000000	42.000000	-64.000000	-17.000000
0.710000	26.540000	78.180000	0.000000	0.000000	342.000000	40.000000	-60.000000	9.000000
0.720000	25.930000	78.450000	0.000000	0.000000	342.000000	39.000000	-61.000000	27.000000
0.730000	25.320000	78.930000	0.000000	0.000000	342.000000	38.000000	-61.000000	48.000000
0.740000	24.720000	79.430000	0.000000	0.000000	342.000000	38.000000	-60.000000	50.000000
0.750000	24.280000	79.940000	0.000000	0.000000	341.000000	37.000000	-44.000000	51.000000
0.760000	24.050000	80.160000	0.000000	0.000000	338.000000	39.000000	-23.000000	22.000000
0.770000	23.960000	80.320000	0.000000	0.000000	336.000000	41.000000	-9.000000	16.000000
0.780000	23.760000	80.440000	0.000000	0.000000	333.000000	44.000000	-20.000000	12.000000
0.790000	23.540000	80.440000	0.000000	0.000000	332.000000	46.000000	-22.000000	0.000000
0.800000	23.280000	80.440000	0.000000	0.000000	333.000000	49.000000	-26.000000	0.000000
0.810000	23.100000	80.490000	0.000000	0.000000	333.000000	51.000000	-18.000000	5.000000
0.820000	22.980000	80.610000	0.000000	0.000000	334.000000	52.000000	-12.000000	12.000000
0.830000	22.930000	80.770000	0.000000	0.000000	336.000000	53.000000	-5.000000	16.000000
0.840000	22.930000	80.980000	0.000000	0.000000	336.000000	55.000000	0.000000	21.000000
0.850000	23.010000	81.240000	0.000000	0.000000	335.000000	55.000000	8.000000	26.000000
0.860000	22.930000	81.380000	0.000000	0.000000	335.000000	55.000000	-8.000000	14.000000
0.870000	22.860000	81.460000	0.000000	0.000000	336.000000	57.000000	-7.000000	8.000000
0.880000	22.790000	81.460000	0.000000	0.000000	336.000000	57.000000	-7.000000	0.000000
0.890000	22.790000	81.840000	0.000000	0.000000	335.000000	58.000000	0.000000	38.000000
0.900000	22.790000	81.770000	0.000000	0.000000	335.000000	58.000000	0.000000	-7.000000
0.910000	22.920000	81.830000	0.000000	0.000000	334.000000	58.000000	13.000000	6.000000
0.920000	23.170000	82.120000	0.000000	0.000000	334.000000	58.000000	25.000000	29.000000
0.930000	23.170000	82.120000	132.000000	1.000000	336.000000	59.000000	0.000000	0.000000
0.940000	23.940000	82.560000	239.000000	0.000000	335.000000	60.000000	77.000000	44.000000
0.950000	24.250000	82.740000	270.000000	0.000000	335.000000	60.000000	31.000000	18.000000
0.960000	24.560000	82.890000	367.000000	0.000000	335.000000	60.000000	31.000000	15.000000
0.970000	24.880000	83.080000	433.000000	0.000000	335.000000	60.000000	32.000000	19.000000
0.980000	24.880000	83.190000	469.000000	0.000000	334.000000	60.000000	0.000000	11.000000
0.990000	24.880000	83.240000	490.000000	0.000000	332.000000	60.000000	0.000000	5.000000
1.000000	24.880000	83.240000	515.000000	0.000000	331.000000	60.000000	0.000000	0.000000
1.010000	24.560000	83.240000	561.000000	0.000000	331.000000	60.000000	-32.000000	0.000000
1.020000	24.140000	83.080000	578.000000	0.000000	329.000000	59.000000	-42.000000	-16.000000
1.030000	23.570000	82.750000	594.000000	0.000000	327.000000	59.000000	-57.000000	-33.000000
1.040000	23.050000	82.370000	614.000000	0.000000	327.000000	59.000000	-52.000000	-38.000000
1.050000	22.550000	81.970000	653.000000	0.000000	327.000000	59.000000	-50.000000	-40.000000
1.060000	22.220000	81.670000	655.000000	0.000000	327.000000	59.000000	-33.000000	-30.000000
1.070000	22.030000	81.400000	671.000000	0.000000	326.000000	60.000000	-19.000000	-27.000000
1.080000	21.920000	81.170000	662.000000	0.000000	328.000000	60.000000	-11.000000	-23.000000
1.090000	21.980000	81.100000	661.000000	0.000000	328.000000	60.000000	6.000000	-7.000000
1.100000	22.240000	81.150000	634.000000	0.000000	328.000000	60.000000	26.000000	5.000000
1.110000	22.640000	81.350000	595.000000	0.000000	328.000000	60.000000	40.000000	20.000000
1.120000	23.320000	81.710000	561.000000	0.000000	328.000000	60.000000	68.000000	36.000000
1.130000	23.850000	82.180000	551.000000	0.000000	328.000000	60.000000	53.000000	47.000000
1.140000	24.280000	82.640000	522.000000	0.000000	328.000000	60.000000	43.000000	46.000000
1.150000	24.590000	82.880000	521.000000	0.000000	328.000000	60.000000	31.000000	24.000000
1.160000	24.680000	82.980000	527.000000	0.000000	326.000000	60.000000	9.000000	10.000000
1.170000	24.610000	82.980000	543.000000	0.000000	326.000000	60.000000	-7.000000	0.000000
1.180000	24.510000	82.830000	548.000000	0.000000	326.000000	60.000000	-10.000000	-15.000000
1.190000	24.380000	82.640000	551.000000	0.000000	326.000000	58.000000	-13.000000	-19.000000
1.200000	24.180000	82.320000	569.000000	0.000000	326.000000	58.000000	-20.000000	-32.000000
1.210000	23.980000	81.990000	572.000000	0.000000	326.000000	58.000000	-20.000000	-33.000000
1.220000	23.800000	81.660000	580.000000	0.000000	326.000000	58.000000	-18.000000	-33.000000
1.230000	23.690000	81.530000	568.000000	0.000000	325.000000	59.000000	-11.000000	-13.000000
1.240000	23.690000	81.460000	530.000000	0.000000	325.000000	59.000000	0.000000	-7.000000
1.250000	23.810000	81.520000	491.000000	0.000000	325.000000	59.000000	12.000000	6.000000
1.260000	24.090000	81.790000	483.000000	0.000000	325.000000	59.000000	28.000000	27.000000
1.270000	24.430000	82.200000	465.000000	0.000000	325.000000	59.000000	34.000000	41.000000
1.280000	24.820000	82.650000	469.000000	0.000000	325.000000	59.000000	39.000000	45.000000
1.290000	25.020000	82.890000	471.000000	0.000000	325.000000	59.000000	20.000000	24.000000
1.300000	25.170000	82.990000	483.000000	0.000000	325.000000	59.000000	15.000000	10.000000
1.310000	25.220000	82.990000	485.000000	0.000000	325.000000	59.000000	5.000000	0.000000
1.320000	25.220000	82.860000	504.000000	0.000000	325.000000	59.000000	0.000000	-13.000000
1.330000	25.150000	82.710000	509.000000	0.000000	324.000000	58.000000	-7.000000	-15.000000
1.340000	25.040000	82.480000	519.000000	0.000000	324.000000	58.000000	-11.000000	-23.000000
1.350000	24.900000	82.250000	522.000000	0.000000	324.000000	58.000000	-14.000000	-23.000000
1.360000	24.730000	82.010000	520.000000	0.000000	324.000000	58.000000	-17.000000	-24.000000
1.370000	24.680000	81.950000	509.000000	0.000000	324.000000	58.000000	-5.000000	-6.000000
1.380000	24.680000	81.950000	501.000000	0.000000	324.000000	58.000000	0.000000	0.000000
1.390000	24.800000	82.030000	497.000000	0.000000	323.000000	59.000000	12.000000	8.000000
1.400000	25.000000	82.200000	494.000000	0.000000	323.000000	59.000000	20.000000	17.000000
1.410000	25.270000	82.430000	494.000000	0.000000	323.000000	59.000000	27.000000	23.000000
1.420000	25.580000	82.600000	496.000000	0.000000	323.000000	59.000000	31.000000	17.000000
1.430000	25.830000	82.720000	499.000000	0.000000	323.000000	59.000000	25.000000	12.000000
1.440000	25.940000	82.720000	499.000000	0.000000	323.000000	59.000000	11.000000	0.000000
1.450000	25.940000	82.660000	504.000000	0.000000	323.000000	59.000000	0.000000	-6.000000
1.460000	25.940000	82.580000	509.000000	0.000000	324.000000	58.000000	0.000000	-8.000000
1.470000	25.870000	82.480000	510.000000	0.000000	323.000000	57.000000	-7.000000	-10.000000
1.480000	25.690000	82.320000	509.000000	0.000000	323.000000	57.000000	-18.000000	-16.000000
1.490000	25.550000	82.130000	519.000000	0.000000	323.000000	57.000000	-14.000000	-19.000000
1.500000	25.450000	82.080000	519.000000	0.000000	323.000000	57.000000	-10.000000	-5.000000
1.510000	25.390000	82.080000	510.000000	0.000000	322.000000	58.000000	-6.000000	0.000000
1.520000	25.390000	82.080000	497.000000	0.000000	322.000000	58.000000	0.000000	0.000000
1.530000	25.390000	82.150000	496.000000	0.000000	322.000000	58.000000	0.000000	7.000000
1.540000	25.630000	82.260000	498.000000	0.000000	322.000000	58.000000	24.000000	11.000000
1.550000	25.870000	82.410000	496.000000	0.000000	322.000000	58.000000	24.000000	15.000000
1.560000	26.140000	82.560000	496.000000	0.000000	322.000000	58.000000	27.000000	15.000000
1.570000	26.400000	82.690000	491.000000	0.000000	322.000000	58.000000	26.000000	13.000000
1.580000	26.620000	82.770000	486.000000	0.000000	323.000000	57.000000	22.000000	8.000000
1.590000	26.670000	82.830000	481.000000	0.000000	323.000000	57.000000	5.000000	6.000000
1.600000	26.620000	82.830000	480.000000	0.000000	323.000000	57.000000	-5.000000	0.000000
1.610000	26.540000	82.830000	485.000000	0.000000	323.000000	57.000000	-8.000000	0.000000
1.620000	26.450000	82.830000	488.000000	0.000000	323.000000	57.000000	-9.000000	0.000000
1.630000	26.340000	82.700000	491.000000	0.000000	323.000000	57.000000	-11.000000	-13.000000
1.640000	26.230000	82.610000	501.000000	0.000000	323.000000	57.000000	-11.000000	-9.000000
1.650000	26.100000	82.520000	520.000000	0.000000	323.000000	57.000000	-13.000000	-9.000000
1.660000	26.040000	82.450000	519.000000	0.000000	323.000000	57.000000	-6.000000	-7.000000
1.670000	26.040000	82.450000	520.000000	0.000000	323.000000	57.000000	0.000000	0.000000
1.680000	26.040000	82.450000	519.000000	0.000000	322.000000	57.000000	0.000000	0.000000
1.690000	26.090000	82.450000	515.000000	0.000000	322.000000	57.000000	5.000000	0.000000
1.700000	26.160000	82.500000	514.000000	0.000000	322.000000	57.000000	7.000000	5.000000
1.710000	26.260000	82.560000	517.000000	0.000000	322.000000	57.000000	10.000000	6.000000
1.720000	26.340000	82.630000	519.000000	0.000000	322.000000	57.000000	8.000000	7.000000
1.730000	26.340000	82.630000	527.000000	0.000000	322.000000	57.000000	0.000000	0.000000
1.740000	26.340000	82.630000	542.000000	0.000000	322.000000	57.000000	0.000000	0.000000
1.750000	26.340000	82.630000	556.000000	0.000000	322.000000	57.000000	0.000000	0.000000
1.760000	26.340000	82.630000	574.000000	0.000000	322.000000	57.000000	0.000000	0.000000
1.770000	26.340000	82.630000	578.000000	0.000000	322.000000	57.000000	0.000000	0.000000
1.780000	26.560000	82.630000	580.000000	0.000000	323.000000	57.000000	22.000000	0.000000
1.790000	26.840000	82.810000	586.000000	0.000000	323.000000	57.000000	28.000000	18.000000
1.800000	27.440000	83.110000	578.000000	0.000000	323.000000	57.000000	60.000000	30.000000
1.810000	28.250000	83.540000	572.000000	0.000000	323.000000	57.000000	81.000000	43.000000
1.820000	29.210000	84.090000	567.000000	0.000000	323.000000	57.000000	96.000000	55.000000
1.830000	30.200000	84.720000	550.000000	0.000000	324.000000	57.000000	99.000000	63.000000
1.840000	31.100000	85.330000	551.000000	0.000000	324.000000	57.000000	90.000000	61.000000
1.850000	31.440000	85.730000	551.000000	0.000000	326.000000	57.000000	34.000000	40.000000
1.860000	31.440000	86.000000	537.000000	0.000000	326.000000	57.000000	0.000000	27.000000
1.870000	31.880000	86.000000	545.000000	0.000000	326.000000	57.000000	44.000000	0.000000
1.880000	31.600000	85.830000	565.000000	0.000000	326.000000	57.000000	-28.000000	-17.000000
1.890000	30.820000	85.450000	566.000000	0.000000	327.000000	56.000000	-78.000000	-38.000000
1.900000	29.680000	84.720000	574.000000	0.000000	327.000000	56.000000	-114.000000	-73.000000
1.910000	28.590000	83.820000	603.000000	0.000000	327.000000	56.000000	-109.000000	-90.000000
1.920000	27.520000	82.800000	636.000000	0.000000	326.000000	57.000000	-107.000000	-102.000000
1.930000	26.660000	81.760000	634.000000	0.000000	326.000000	57.000000	-86.000000	-104.000000
1.940000	26.170000	80.980000	602.000000	0.000000	326.000000	57.000000	-49.000000	-78.000000
1.950000	25.920000	80.370000	543.000000	0.000000	324.000000	58.000000	-25.000000	-61.000000
1.960000	25.920000	80.210000	407.000000	0.000000	324.000000	58.000000	0.000000	-16.000000
1.970000	26.190000	80.350000	129.000000	0.000000	323.000000	59.000000	27.000000	14.000000
1.980000	26.630000	80.700000	46.000000	0.000000	323.000000	59.000000	44.000000	35.000000
1.990000	26.630000	80.700000	0.000000	1.000000	322.000000	59.000000	0.000000	0.000000
2.000000	28.730000	82.260000	0.000000	0.000000	321.000000	59.000000	210.000000	156.000000
2.010000	29.960000	83.270000	0.000000	0.000000	321.000000	59.000000	123.000000	101.000000
2.020000	31.130000	84.300000	0.000000	0.000000	322.000000	58.000000	117.000000	103.000000
2.030000	32.280000	85.290000	0.000000	0.000000	322.000000	58.000000	115.000000	99.000000
2.040000	33.390000	86.260000	0.000000	0.000000	323.000000	57.000000	111.000000	97.000000
2.050000	34.220000	87.200000	0.000000	0.000000	324.000000	58.000000	83.000000	94.000000
2.060000	34.870000	88.090000	0.000000	0.000000	326.000000	57.000000	65.000000	89.000000
2.070000	34.870000	88.090000	131.000000	1.000000	326.000000	57.000000	0.000000	0.000000
2.080000	36.010000	89.600000	239.000000	0.000000	327.000000	56.000000	114.000000	151.000000
2.090000	36.600000	90.070000	269.000000	0.000000	327.000000	56.000000	59.000000	47.000000
2.100000	37.280000	90.420000	387.000000	0.000000	327.000000	56.000000	68.000000	35.000000
2.110000	37.950000	90.850000	440.000000	0.000000	325.000000	56.000000	67.000000	43.000000
2.120000	38.620000	91.060000	522.000000	0.000000	325.000000	56.000000	67.000000	21.000000
2.130000	38.780000	91.130000	570.000000	0.000000	324.000000	57.000000	16.000000	7.000000
2.140000	38.620000	91.060000	594.000000	0.000000	324.000000	57.000000	-16.000000	-7.000000
2.150000	38.240000	90.660000	595.000000	0.000000	323.000000	57.000000	-38.000000	-40.000000
2.160000	36.760000	90.050000	595.000000	0.000000	322.000000	58.000000	-148.000000	-61.000000
2.170000	34.910000	88.860000	591.000000	0.000000	322.000000	58.000000	-185.000000	-119.000000
2.180000	32.800000	87.420000	594.000000	0.000000	322.000000	58.000000	-211.000000	-144.000000
2.190000	30.700000	85.820000	606.000000	0.000000	322.000000	58.000000	-210.000000	-160.000000
2.200000	29.170000	85.030000	667.000000	0.000000	323.000000	57.000000	-153.000000	-79.000000
