t	x	y	pressure	penup	azimuth	inclination	v_x	v_y
0.000000	12.470000	25.420000	512.000000	1.000000	130.000000	73.000000	0.000000	0.000000
0.010000	12.200000	24.470000	670.000000	0.000000	130.000000	73.000000	-27.000000	-95.000000
0.020000	12.050000	24.270000	796.000000	0.000000	127.000000	74.000000	-15.000000	-20.000000
0.030000	11.950000	24.110000	897.000000	0.000000	122.000000	74.000000	-10.000000	-16.000000
0.040000	11.890000	24.110000	937.000000	0.000000	119.000000	74.000000	-6.000000	0.000000
0.050000	11.980000	24.240000	979.000000	0.000000	116.000000	74.000000	9.000000	13.000000
0.060000	12.070000	24.420000	1023.000000	0.000000	113.000000	75.000000	9.000000	18.000000
0.070000	12.340000	25.020000	1023.000000	0.000000	111.000000	74.000000	27.000000	60.000000
0.080000	12.710000	25.900000	1023.000000	0.000000	111.000000	74.000000	37.000000	88.000000
0.090000	13.290000	27.320000	1023.000000	0.000000	111.000000	74.000000	58.000000	142.000000
0.100000	13.870000	29.090000	1023.000000	0.000000	111.000000	74.000000	58.000000	177.000000
0.110000	14.410000	31.100000	1023.000000	0.000000	111.000000	74.000000	54.000000	201.000000
0.120000	14.710000	32.450000	1023.000000	0.000000	111.000000	74.000000	30.000000	135.000000
0.130000	14.880000	33.290000	1023.000000	0.000000	115.000000	74.000000	17.000000	84.000000
0.140000	15.070000	33.780000	1023.000000	0.000000	118.000000	73.000000	19.000000	49.000000
0.150000	15.160000	33.780000	1023.000000	0.000000	118.000000	73.000000	9.000000	0.000000
0.160000	15.160000	33.780000	1023.000000	0.000000	119.000000	72.000000	0.000000	0.000000
0.170000	15.230000	33.000000	1023.000000	0.000000	122.000000	71.000000	7.000000	-78.000000
0.180000	15.430000	31.700000	1023.000000	0.000000	122.000000	71.000000	20.000000	-130.000000
0.190000	15.630000	29.800000	1023.000000	0.000000	124.000000	71.000000	20.000000	-190.000000
0.200000	15.950000	27.890000	1023.000000	0.000000	122.000000	71.000000	32.000000	-191.000000
0.210000	16.350000	26.350000	1023.000000	0.000000	120.000000	71.000000	40.000000	-154.000000
0.220000	16.860000	25.070000	1023.000000	0.000000	117.000000	71.000000	51.000000	-128.000000
0.230000	17.150000	24.250000	1023.000000	0.000000	113.000000	71.000000	29.000000	-82.000000
0.240000	17.280000	23.790000	1023.000000	0.000000	110.000000	70.000000	13.000000	-46.000000
0.250000	17.280000	23.580000	1023.000000	0.000000	106.000000	69.000000	0.000000	-21.000000
0.260000	17.030000	23.580000	1023.000000	0.000000	106.000000	69.000000	-25.000000	0.000000
0.270000	16.540000	23.890000	1023.000000	0.000000	104.000000	69.000000	-49.000000	31.000000
0.280000	15.340000	24.380000	1023.000000	0.000000	104.000000	69.000000	-120.000000	49.000000
0.290000	13.960000	25.190000	1023.000000	0.000000	104.000000	69.000000	-138.000000	81.000000
0.300000	12.450000	26.010000	1023.000000	0.000000	104.000000	70.000000	-151.000000	82.000000
0.310000	10.960000	26.840000	1023.000000	0.000000	105.000000	71.000000	-149.000000	83.000000
0.320000	9.800000	27.740000	1023.000000	0.000000	108.000000	71.000000	-116.000000	90.000000
0.330000	8.860000	28.360000	1023.000000	0.000000	109.000000	72.000000	-94.000000	62.000000
0.340000	8.490000	28.790000	1023.000000	0.000000	112.000000	72.000000	-37.000000	43.000000
0.350000	8.490000	29.020000	1023.000000	0.000000	112.000000	72.000000	0.000000	23.000000
0.360000	8.730000	29.250000	1023.000000	0.000000	115.000000	71.000000	24.000000	23.000000
0.370000	9.470000	29.470000	1023.000000	0.000000	115.000000	71.000000	74.000000	22.000000
0.380000	10.880000	29.720000	1023.000000	0.000000	115.000000	71.000000	141.000000	25.000000
0.390000	12.730000	29.990000	1023.000000	0.000000	116.000000	70.000000	185.000000	27.000000
0.400000	14.620000	30.300000	1023.000000	0.000000	116.000000	70.000000	189.000000	31.000000
0.410000	16.100000	30.580000	1023.000000	0.000000	116.000000	70.000000	148.000000	28.000000
0.420000	17.300000	30.770000	1023.000000	0.000000	118.000000	70.000000	120.000000	19.000000
0.430000	17.780000	30.870000	1023.000000	0.000000	118.000000	70.000000	48.000000	10.000000
0.440000	18.020000	30.740000	1023.000000	0.000000	119.000000	68.000000	24.000000	-13.000000
0.450000	18.110000	30.460000	1023.000000	0.000000	119.000000	68.000000	9.000000	-28.000000
0.460000	18.160000	29.710000	1023.000000	0.000000	119.000000	68.000000	5.000000	-75.000000
0.470000	18.160000	28.820000	1023.000000	0.000000	122.000000	68.000000	0.000000	-89.000000
0.480000	18.040000	27.840000	1023.000000	0.000000	122.000000	68.000000	-12.000000	-98.000000
0.490000	17.960000	27.090000	1023.000000	0.000000	118.000000	68.000000	-8.000000	-75.000000
0.500000	18.010000	26.610000	1023.000000	0.000000	118.000000	68.000000	5.000000	-48.000000
0.510000	18.140000	26.300000	1023.000000	0.000000	116.000000	68.000000	13.000000	-31.000000
0.520000	18.200000	26.300000	1023.000000	0.000000	114.000000	68.000000	6.000000	0.000000
0.530000	18.150000	26.430000	1023.000000	0.000000	111.000000	69.000000	-5.000000	13.000000
0.540000	18.030000	26.740000	1023.000000	0.000000	111.000000	69.000000	-12.000000	31.000000
0.550000	17.700000	27.660000	1023.000000	0.000000	111.000000	69.000000	-33.000000	92.000000
0.560000	17.390000	28.710000	1023.000000	0.000000	111.000000	69.000000	-31.000000	105.000000
0.570000	17.080000	29.840000	1023.000000	0.000000	111.000000	69.000000	-31.000000	113.000000
0.580000	17.190000	30.770000	1023.000000	0.000000	111.000000	69.000000	11.000000	93.000000
0.590000	17.550000	31.410000	1023.000000	0.000000	114.000000	68.000000	36.000000	64.000000
0.600000	18.070000	31.860000	1023.000000	0.000000	116.000000	68.000000	52.000000	45.000000
0.610000	18.910000	32.070000	1023.000000	0.000000	118.000000	68.000000	84.000000	21.000000
0.620000	19.550000	31.980000	1023.000000	0.000000	118.000000	68.000000	64.000000	-9.000000
0.630000	20.050000	31.700000	1023.000000	0.000000	122.000000	68.000000	50.000000	-28.000000
0.640000	20.270000	31.240000	1023.000000	0.000000	122.000000	68.000000	22.000000	-46.000000
0.650000	20.350000	30.670000	1023.000000	0.000000	122.000000	68.000000	8.000000	-57.000000
0.660000	20.350000	30.030000	1023.000000	0.000000	124.000000	67.000000	0.000000	-64.000000
0.670000	20.210000	29.480000	1023.000000	0.000000	124.000000	67.000000	-14.000000	-55.000000
0.680000	19.910000	29.060000	1023.000000	0.000000	124.000000	67.000000	-30.000000	-42.000000
0.690000	19.500000	28.730000	1023.000000	0.000000	122.000000	68.000000	-41.000000	-33.000000
0.700000	19.080000	28.560000	1023.000000	0.000000	122.000000	68.000000	-42.000000	-17.000000
0.710000	18.710000	28.560000	1023.000000	0.000000	122.000000	68.000000	-37.000000	0.000000
0.720000	18.660000	28.610000	1023.000000	0.000000	122.000000	68.000000	-5.000000	5.000000
0.730000	18.810000	28.660000	1023.000000	0.000000	122.000000	68.000000	15.000000	5.000000
0.740000	18.900000	28.730000	1023.000000	0.000000	122.000000	68.000000	9.000000	7.000000
0.750000	19.460000	28.860000	1023.000000	0.000000	119.000000	68.000000	56.000000	13.000000
0.760000	20.320000	29.020000	1023.000000	0.000000	118.000000	68.000000	86.000000	16.000000
0.770000	20.830000	28.830000	1023.000000	0.000000	119.000000	68.000000	51.000000	-19.000000
0.780000	21.110000	28.610000	1023.000000	0.000000	119.000000	68.000000	28.000000	-22.000000
0.790000	21.230000	28.230000	1023.000000	0.000000	119.000000	68.000000	12.000000	-38.000000
0.800000	21.050000	27.740000	1023.000000	0.000000	119.000000	68.000000	-18.000000	-49.000000
0.810000	20.600000	27.220000	1023.000000	0.000000	119.000000	68.000000	-45.000000	-52.000000
0.820000	19.970000	26.650000	1023.000000	0.000000	117.000000	69.000000	-63.000000	-57.000000
0.830000	19.380000	26.310000	1023.000000	0.000000	117.000000	69.000000	-59.000000	-34.000000
0.840000	19.140000	26.140000	1023.000000	0.000000	117.000000	69.000000	-24.000000	-17.000000
0.850000	19.140000	26.040000	1023.000000	0.000000	115.000000	69.000000	0.000000	-10.000000
0.860000	19.080000	26.040000	899.000000	0.000000	112.000000	70.000000	-6.000000	0.000000
0.870000	19.080000	26.110000	634.000000	0.000000	112.000000	70.000000	0.000000	7.000000
0.880000	19.460000	26.260000	127.000000	0.000000	110.000000	70.000000	38.000000	15.000000
0.890000	19.460000	26.260000	0.000000	1.000000	110.000000	70.000000	0.000000	0.000000
0.900000	20.530000	27.110000	0.000000	0.000000	109.000000	69.000000	107.000000	85.000000
0.910000	20.900000	27.560000	0.000000	0.000000	109.000000	69.000000	37.000000	45.000000
0.920000	21.160000	28.010000	0.000000	0.000000	109.000000	69.000000	26.000000	45.000000
0.930000	21.300000	28.460000	0.000000	0.000000	109.000000	69.000000	14.000000	45.000000
0.940000	21.410000	28.790000	0.000000	0.000000	108.000000	68.000000	11.000000	33.000000
0.950000	21.490000	29.040000	0.000000	0.000000	108.000000	68.000000	8.000000	25.000000
0.960000	21.540000	29.150000	0.000000	0.000000	110.000000	68.000000	5.000000	11.000000
0.970000	21.540000	29.150000	273.000000	1.000000	109.000000	67.000000	0.000000	0.000000
0.980000	21.540000	29.150000	636.000000	0.000000	109.000000	67.000000	0.000000	0.000000
0.990000	21.540000	29.150000	750.000000	0.000000	111.000000	67.000000	0.000000	0.000000
1.000000	21.540000	29.150000	855.000000	0.000000	112.000000	67.000000	0.000000	0.000000
1.010000	21.540000	29.150000	976.000000	0.000000	115.000000	67.000000	0.000000	0.000000
1.020000	21.800000	28.950000	1023.000000	0.000000	115.000000	67.000000	26.000000	-20.000000
1.030000	21.920000	28.730000	1023.000000	0.000000	116.000000	68.000000	12.000000	-22.000000
1.040000	21.920000	28.420000	1023.000000	0.000000	116.000000	68.000000	0.000000	-31.000000
1.050000	21.920000	28.250000	1023.000000	0.000000	117.000000	69.000000	0.000000	-17.000000
1.060000	21.870000	28.170000	1023.000000	0.000000	117.000000	69.000000	-5.000000	-8.000000
1.070000	21.870000	28.170000	1023.000000	0.000000	117.000000	69.000000	0.000000	0.000000
1.080000	21.870000	28.270000	1023.000000	0.000000	117.000000	69.000000	0.000000	10.000000
1.090000	21.870000	28.470000	1023.000000	0.000000	117.000000	69.000000	0.000000	20.000000
1.100000	21.990000	29.020000	1023.000000	0.000000	117.000000	69.000000	12.000000	55.000000
1.110000	22.170000	29.660000	1023.000000	0.000000	117.000000	69.000000	18.000000	64.000000
1.120000	22.250000	30.350000	1023.000000	0.000000	117.000000	69.000000	8.000000	69.000000
1.130000	22.330000	30.880000	1023.000000	0.000000	117.000000	69.000000	8.000000	53.000000
1.140000	22.410000	31.240000	1023.000000	0.000000	117.000000	69.000000	8.000000	36.000000
1.150000	22.480000	31.480000	1023.000000	0.000000	117.000000	69.000000	7.000000	24.000000
1.160000	22.590000	31.760000	1023.000000	0.000000	117.000000	69.000000	11.000000	28.000000
1.170000	22.850000	32.040000	1023.000000	0.000000	119.000000	68.000000	26.000000	28.000000
1.180000	23.220000	32.170000	1023.000000	0.000000	119.000000	68.000000	37.000000	13.000000
1.190000	23.550000	32.170000	1023.000000	0.000000	119.000000	68.000000	33.000000	0.000000
1.200000	23.830000	32.120000	1023.000000	0.000000	119.000000	68.000000	28.000000	-5.000000
1.210000	24.000000	32.040000	1023.000000	0.000000	119.000000	68.000000	17.000000	-8.000000
1.220000	24.120000	31.760000	991.000000	0.000000	121.000000	69.000000	12.000000	-28.000000
1.230000	24.030000	31.350000	809.000000	0.000000	121.000000	69.000000	-9.000000	-41.000000
1.240000	23.690000	30.760000	591.000000	0.000000	121.000000	69.000000	-34.000000	-59.000000
1.250000	23.180000	30.170000	362.000000	0.000000	121.000000	69.000000	-51.000000	-59.000000
1.260000	22.710000	29.680000	327.000000	0.000000	121.000000	69.000000	-47.000000	-49.000000
1.270000	22.250000	29.270000	397.000000	0.000000	121.000000	69.000000	-46.000000	-41.000000
1.280000	21.780000	28.910000	585.000000	0.000000	121.000000	69.000000	-47.000000	-36.000000
1.290000	21.670000	28.780000	760.000000	0.000000	121.000000	69.000000	-11.000000	-13.000000
1.300000	21.810000	28.780000	861.000000	0.000000	121.000000	69.000000	14.000000	0.000000
1.310000	22.040000	28.840000	939.000000	0.000000	121.000000	69.000000	23.000000	6.000000
1.320000	22.320000	28.940000	994.000000	0.000000	121.000000	69.000000	28.000000	10.000000
1.330000	22.820000	29.100000	1023.000000	0.000000	121.000000	69.000000	50.000000	16.000000
1.340000	23.440000	29.240000	1023.000000	0.000000	121.000000	69.000000	62.000000	14.000000
1.350000	24.040000	29.350000	1023.000000	0.000000	121.000000	69.000000	60.000000	11.000000
1.360000	24.360000	29.350000	1023.000000	0.000000	121.000000	69.000000	32.000000	0.000000
1.370000	24.480000	29.350000	1023.000000	0.000000	122.000000	70.000000	12.000000	0.000000
1.380000	24.480000	29.350000	1023.000000	0.000000	122.000000	70.000000	0.000000	0.000000
1.390000	24.410000	29.270000	1023.000000	0.000000	122.000000	70.000000	-7.000000	-8.000000
1.400000	24.280000	29.180000	1023.000000	0.000000	122.000000	70.000000	-13.000000	-9.000000
1.410000	23.780000	28.920000	1023.000000	0.000000	122.000000	70.000000	-50.000000	-26.000000
1.420000	23.190000	28.560000	1023.000000	0.000000	122.000000	70.000000	-59.000000	-36.000000
1.430000	22.550000	28.250000	993.000000	0.000000	122.000000	70.000000	-64.000000	-31.000000
1.440000	22.400000	28.000000	977.000000	0.000000	122.000000	70.000000	-15.000000	-25.000000
1.450000	22.500000	27.800000	965.000000	0.000000	120.000000	71.000000	10.000000	-20.000000
1.460000	22.770000	27.550000	962.000000	0.000000	120.000000	71.000000	27.000000	-25.000000
1.470000	23.380000	27.550000	964.000000	0.000000	120.000000	71.000000	61.000000	0.000000
1.480000	23.980000	27.630000	971.000000	0.000000	120.000000	71.000000	60.000000	8.000000
1.490000	24.560000	27.950000	983.000000	0.000000	118.000000	70.000000	58.000000	32.000000
1.500000	25.090000	28.340000	995.000000	0.000000	120.000000	71.000000	53.000000	39.000000
1.510000	25.590000	28.780000	982.000000	0.000000	120.000000	71.000000	50.000000	44.000000
1.520000	26.080000	29.380000	990.000000	0.000000	120.000000	71.000000	49.000000	60.000000
1.530000	26.730000	30.190000	1023.000000	0.000000	120.000000	71.000000	65.000000	81.000000
1.540000	27.190000	31.130000	1023.000000	0.000000	120.000000	71.000000	46.000000	94.000000
1.550000	27.530000	31.840000	1023.000000	0.000000	120.000000	71.000000	34.000000	71.000000
1.560000	27.790000	32.170000	1023.000000	0.000000	122.000000	70.000000	26.000000	33.000000
1.570000	27.890000	32.240000	1023.000000	0.000000	122.000000	70.000000	10.000000	7.000000
1.580000	27.890000	32.170000	1023.000000	0.000000	122.000000	70.000000	0.000000	-7.000000
1.590000	27.970000	31.800000	1023.000000	0.000000	123.000000	69.000000	8.000000	-37.000000
1.600000	28.060000	31.220000	1023.000000	0.000000	123.000000	69.000000	9.000000	-58.000000
1.610000	28.140000	30.080000	1023.000000	0.000000	123.000000	69.000000	8.000000	-114.000000
1.620000	28.280000	29.050000	1023.000000	0.000000	122.000000	68.000000	14.000000	-103.000000
1.630000	28.490000	28.100000	1023.000000	0.000000	119.000000	68.000000	21.000000	-95.000000
1.640000	28.990000	27.310000	1023.000000	0.000000	119.000000	68.000000	50.000000	-79.000000
1.650000	29.490000	26.720000	1023.000000	0.000000	117.000000	69.000000	50.000000	-59.000000
1.660000	29.990000	26.260000	1023.000000	0.000000	114.000000	68.000000	50.000000	-46.000000
1.670000	30.140000	26.180000	1023.000000	0.000000	111.000000	69.000000	15.000000	-8.000000
1.680000	30.080000	26.250000	1023.000000	0.000000	109.000000	69.000000	-6.000000	7.000000
1.690000	29.730000	26.410000	1023.000000	0.000000	106.000000	69.000000	-35.000000	16.000000
1.700000	28.700000	26.930000	1023.000000	0.000000	104.000000	69.000000	-103.000000	52.000000
1.710000	27.210000	27.390000	1023.000000	0.000000	104.000000	70.000000	-149.000000	46.000000
1.720000	24.620000	27.490000	1023.000000	0.000000	104.000000	70.000000	-259.000000	10.000000
1.730000	21.860000	27.370000	1023.000000	0.000000	104.000000	70.000000	-276.000000	-12.000000
1.740000	18.990000	27.040000	1023.000000	0.000000	105.000000	71.000000	-287.000000	-33.000000
1.750000	16.910000	26.670000	1023.000000	0.000000	105.000000	71.000000	-208.000000	-37.000000
1.760000	15.590000	26.380000	1023.000000	0.000000	109.000000	72.000000	-132.000000	-29.000000
1.770000	14.780000	26.170000	1023.000000	0.000000	110.000000	73.000000	-81.000000	-21.000000
1.780000	14.910000	26.170000	1023.000000	0.000000	111.000000	74.000000	13.000000	0.000000
1.790000	15.870000	26.280000	1023.000000	0.000000	111.000000	74.000000	96.000000	11.000000
1.800000	17.390000	26.430000	1023.000000	0.000000	111.000000	74.000000	152.000000	15.000000
1.810000	20.140000	26.640000	1023.000000	0.000000	113.000000	75.000000	275.000000	21.000000
1.820000	23.540000	26.640000	1023.000000	0.000000	109.000000	75.000000	340.000000	0.000000
1.830000	27.380000	26.500000	1023.000000	0.000000	109.000000	75.000000	384.000000	-14.000000
1.840000	30.710000	25.930000	1023.000000	0.000000	111.000000	76.000000	333.000000	-57.000000
1.850000	33.580000	25.280000	894.000000	0.000000	107.000000	76.000000	287.000000	-65.000000
