t	x	y	pressure	penup	azimuth	inclination	v_x	v_y
0.000000	7.130000	43.430000	113.000000	1.000000	143.000000	59.000000	0.000000	0.000000
0.010000	7.130000	43.430000	137.000000	0.000000	142.000000	59.000000	0.000000	0.000000
0.020000	7.280000	43.770000	212.000000	0.000000	142.000000	59.000000	15.000000	34.000000
0.030000	7.800000	43.980000	286.000000	0.000000	142.000000	59.000000	52.000000	21.000000
0.040000	8.560000	44.250000	371.000000	0.000000	141.000000	59.000000	76.000000	27.000000
0.050000	9.900000	44.620000	465.000000	0.000000	138.000000	59.000000	134.000000	37.000000
0.060000	11.630000	45.150000	527.000000	0.000000	136.000000	58.000000	173.000000	53.000000
0.070000	13.620000	45.780000	586.000000	0.000000	136.000000	58.000000	199.000000	63.000000
0.080000	15.570000	46.200000	597.000000	0.000000	134.000000	58.000000	195.000000	42.000000
0.090000	17.670000	46.600000	597.000000	0.000000	134.000000	58.000000	210.000000	40.000000
0.100000	19.860000	46.790000	613.000000	0.000000	135.000000	59.000000	219.000000	19.000000
0.110000	21.880000	46.850000	594.000000	0.000000	135.000000	59.000000	202.000000	6.000000
0.120000	23.290000	46.710000	584.000000	0.000000	135.000000	59.000000	141.000000	-14.000000
0.130000	24.280000	46.350000	570.000000	0.000000	136.000000	60.000000	99.000000	-36.000000
0.140000	24.510000	45.840000	575.000000	0.000000	136.000000	60.000000	23.000000	-51.000000
0.150000	23.920000	45.140000	586.000000	0.000000	136.000000	60.000000	-59.000000	-70.000000
0.160000	22.770000	44.100000	577.000000	0.000000	136.000000	60.000000	-115.000000	-104.000000
0.170000	20.700000	42.830000	553.000000	0.000000	136.000000	60.000000	-207.000000	-127.000000
0.180000	18.090000	41.500000	551.000000	0.000000	136.000000	60.000000	-261.000000	-133.000000
0.190000	15.120000	40.250000	560.000000	0.000000	136.000000	60.000000	-297.000000	-125.000000
0.200000	12.690000	39.060000	580.000000	0.000000	136.000000	60.000000	-243.000000	-119.000000
0.210000	10.510000	38.220000	588.000000	0.000000	135.000000	59.000000	-218.000000	-84.000000
0.220000	8.490000	37.690000	670.000000	0.000000	135.000000	59.000000	-202.000000	-53.000000
0.230000	7.250000	37.370000	721.000000	0.000000	136.000000	58.000000	-124.000000	-32.000000
0.240000	7.250000	37.370000	733.000000	0.000000	135.000000	58.000000	0.000000	0.000000
0.250000	8.170000	38.000000	759.000000	0.000000	135.000000	58.000000	92.000000	63.000000
0.260000	10.010000	38.880000	777.000000	0.000000	135.000000	58.000000	184.000000	88.000000
0.270000	12.480000	40.260000	797.000000	0.000000	135.000000	58.000000	247.000000	138.000000
0.280000	15.380000	41.770000	791.000000	0.000000	135.000000	58.000000	290.000000	151.000000
0.290000	18.970000	43.360000	799.000000	0.000000	135.000000	58.000000	359.000000	159.000000
0.300000	22.900000	44.940000	800.000000	0.000000	135.000000	58.000000	393.000000	158.000000
0.310000	27.050000	46.260000	797.000000	0.000000	135.000000	58.000000	415.000000	132.000000
0.320000	30.890000	47.420000	784.000000	0.000000	136.000000	58.000000	384.000000	116.000000
0.330000	34.340000	48.290000	714.000000	0.000000	136.000000	58.000000	345.000000	87.000000
0.340000	37.520000	48.840000	586.000000	0.000000	136.000000	58.000000	318.000000	55.000000
0.350000	39.470000	49.190000	103.000000	0.000000	138.000000	58.000000	195.000000	35.000000
0.360000	39.470000	49.190000	0.000000	1.000000	138.000000	58.000000	0.000000	0.000000
0.370000	40.230000	49.120000	0.000000	0.000000	138.000000	58.000000	76.000000	-7.000000
0.380000	39.200000	48.870000	0.000000	0.000000	139.000000	57.000000	-103.000000	-25.000000
0.390000	37.560000	48.570000	0.000000	0.000000	139.000000	57.000000	-164.000000	-30.000000
0.400000	35.480000	48.250000	0.000000	0.000000	139.000000	57.000000	-208.000000	-32.000000
0.410000	33.090000	47.750000	0.000000	0.000000	139.000000	57.000000	-239.000000	-50.000000
0.420000	30.810000	47.140000	0.000000	0.000000	139.000000	56.000000	-228.000000	-61.000000
0.430000	28.610000	46.500000	0.000000	0.000000	138.000000	55.000000	-220.000000	-64.000000
0.440000	27.140000	46.040000	0.000000	0.000000	136.000000	54.000000	-147.000000	-46.000000
0.450000	25.930000	45.710000	0.000000	0.000000	136.000000	54.000000	-121.000000	-33.000000
0.460000	24.890000	45.280000	0.000000	0.000000	136.000000	52.000000	-104.000000	-43.000000
0.470000	24.430000	44.930000	0.000000	0.000000	136.000000	52.000000	-46.000000	-35.000000
0.480000	24.430000	44.830000	0.000000	0.000000	139.000000	52.000000	0.000000	-10.000000
0.490000	24.750000	44.830000	0.000000	0.000000	137.000000	53.000000	32.000000	0.000000
0.500000	25.120000	44.980000	0.000000	0.000000	139.000000	54.000000	37.000000	15.000000
0.510000	25.540000	45.130000	0.000000	0.000000	139.000000	55.000000	42.000000	15.000000
0.520000	26.040000	45.300000	0.000000	0.000000	141.000000	56.000000	50.000000	17.000000
0.530000	26.560000	45.480000	0.000000	0.000000	140.000000	56.000000	52.000000	18.000000
0.540000	27.050000	45.640000	0.000000	0.000000	139.000000	57.000000	49.000000	16.000000
0.550000	27.230000	45.800000	0.000000	0.000000	139.000000	57.000000	18.000000	16.000000
0.560000	27.230000	45.800000	0.000000	0.000000	136.000000	57.000000	0.000000	0.000000
0.570000	27.110000	45.870000	0.000000	0.000000	136.000000	57.000000	-12.000000	7.000000
0.580000	26.940000	45.870000	0.000000	0.000000	135.000000	57.000000	-17.000000	0.000000
0.590000	26.740000	45.920000	0.000000	0.000000	132.000000	57.000000	-20.000000	5.000000
0.600000	26.520000	45.990000	0.000000	0.000000	132.000000	57.000000	-22.000000	7.000000
0.610000	26.520000	45.990000	0.000000	0.000000	131.000000	57.000000	0.000000	0.000000
0.620000	26.170000	46.200000	0.000000	0.000000	131.000000	57.000000	-35.000000	21.000000
0.630000	26.090000	46.310000	0.000000	0.000000	131.000000	57.000000	-8.000000	11.000000
0.640000	26.000000	46.430000	0.000000	0.000000	132.000000	58.000000	-9.000000	12.000000
0.650000	25.900000	46.550000	0.000000	0.000000	132.000000	58.000000	-10.000000	12.000000
0.660000	25.790000	46.670000	0.000000	0.000000	134.000000	58.000000	-11.000000	12.000000
0.670000	25.710000	46.770000	0.000000	0.000000	134.000000	58.000000	-8.000000	10.000000
0.680000	25.660000	46.870000	0.000000	0.000000	134.000000	60.000000	-5.000000	10.000000
0.690000	25.660000	46.940000	0.000000	0.000000	134.000000	60.000000	0.000000	7.000000
0.700000	25.660000	47.000000	0.000000	0.000000	134.000000	60.000000	0.000000	6.000000
0.710000	25.660000	47.000000	0.000000	0.000000	134.000000	60.000000	0.000000	0.000000
0.720000	25.840000	47.080000	0.000000	0.000000	132.000000	59.000000	18.000000	8.000000
0.730000	26.050000	47.080000	0.000000	0.000000	132.000000	59.000000	21.000000	0.000000
0.740000	26.310000	47.130000	0.000000	0.000000	132.000000	59.000000	26.000000	5.000000
0.750000	26.600000	47.130000	0.000000	0.000000	132.000000	59.000000	29.000000	0.000000
0.760000	26.840000	47.080000	0.000000	0.000000	131.000000	58.000000	24.000000	-5.000000
0.770000	27.090000	47.080000	0.000000	0.000000	131.000000	58.000000	25.000000	0.000000
0.780000	27.320000	47.080000	0.000000	0.000000	131.000000	58.000000	23.000000	0.000000
0.790000	27.450000	47.080000	0.000000	0.000000	130.000000	58.000000	13.000000	0.000000
0.800000	27.530000	47.080000	0.000000	0.000000	131.000000	57.000000	8.000000	0.000000
0.810000	27.530000	47.080000	0.000000	0.000000	131.000000	57.000000	0.000000	0.000000
0.820000	27.530000	47.080000	48.000000	1.000000	131.000000	57.000000	0.000000	0.000000
0.830000	27.530000	47.080000	73.000000	0.000000	130.000000	56.000000	0.000000	0.000000
0.840000	27.260000	47.210000	139.000000	0.000000	130.000000	56.000000	-27.000000	13.000000
0.850000	27.130000	47.330000	163.000000	0.000000	130.000000	56.000000	-13.000000	12.000000
0.860000	26.940000	47.460000	208.000000	0.000000	130.000000	56.000000	-19.000000	13.000000
0.870000	26.690000	47.530000	269.000000	0.000000	130.000000	56.000000	-25.000000	7.000000
0.880000	26.470000	47.580000	284.000000	0.000000	130.000000	56.000000	-22.000000	5.000000
0.890000	26.220000	47.580000	329.000000	0.000000	131.000000	57.000000	-25.000000	0.000000
0.900000	25.950000	47.530000	373.000000	0.000000	131.000000	57.000000	-27.000000	-5.000000
0.910000	25.740000	47.460000	391.000000	0.000000	132.000000	57.000000	-21.000000	-7.000000
0.920000	25.590000	47.350000	397.000000	0.000000	132.000000	57.000000	-15.000000	-11.000000
0.930000	25.590000	47.220000	407.000000	0.000000	132.000000	57.000000	0.000000	-13.000000
0.940000	25.590000	47.040000	409.000000	0.000000	134.000000	57.000000	0.000000	-18.000000
0.950000	25.590000	46.750000	407.000000	0.000000	134.000000	57.000000	0.000000	-29.000000
0.960000	25.700000	46.390000	400.000000	0.000000	132.000000	58.000000	11.000000	-36.000000
0.970000	25.830000	46.080000	389.000000	0.000000	132.000000	58.000000	13.000000	-31.000000
0.980000	26.040000	45.830000	387.000000	0.000000	132.000000	58.000000	21.000000	-25.000000
0.990000	26.310000	45.710000	376.000000	0.000000	131.000000	58.000000	27.000000	-12.000000
1.000000	26.590000	45.710000	367.000000	0.000000	129.000000	59.000000	28.000000	0.000000
1.010000	26.870000	45.810000	362.000000	0.000000	129.000000	59.000000	28.000000	10.000000
1.020000	27.100000	46.040000	363.000000	0.000000	128.000000	58.000000	23.000000	23.000000
1.030000	27.320000	46.340000	354.000000	0.000000	128.000000	58.000000	22.000000	30.000000
1.040000	27.440000	46.680000	341.000000	0.000000	128.000000	58.000000	12.000000	34.000000
1.050000	27.520000	46.930000	341.000000	0.000000	128.000000	58.000000	8.000000	25.000000
1.060000	27.520000	47.200000	356.000000	0.000000	128.000000	58.000000	0.000000	27.000000
1.070000	27.520000	47.480000	369.000000	0.000000	127.000000	57.000000	0.000000	28.000000
1.080000	27.520000	47.580000	389.000000	0.000000	128.000000	57.000000	0.000000	10.000000
1.090000	27.420000	47.650000	412.000000	0.000000	128.000000	57.000000	-10.000000	7.000000
1.100000	27.420000	47.650000	435.000000	0.000000	130.000000	56.000000	0.000000	0.000000
1.110000	27.420000	47.650000	440.000000	0.000000	130.000000	56.000000	0.000000	0.000000
1.120000	27.420000	47.650000	450.000000	0.000000	130.000000	56.000000	0.000000	0.000000
1.130000	27.420000	47.530000	456.000000	0.000000	131.000000	56.000000	0.000000	-12.000000
1.140000	27.490000	47.360000	448.000000	0.000000	131.000000	56.000000	7.000000	-17.000000
1.150000	27.550000	47.170000	433.000000	0.000000	131.000000	56.000000	6.000000	-19.000000
1.160000	27.620000	46.970000	324.000000	0.000000	131.000000	56.000000	7.000000	-20.000000
1.170000	27.720000	46.760000	63.000000	0.000000	130.000000	55.000000	10.000000	-21.000000
1.180000	27.720000	46.760000	0.000000	1.000000	130.000000	56.000000	0.000000	0.000000
1.190000	28.050000	46.670000	0.000000	0.000000	130.000000	56.000000	33.000000	-9.000000
1.200000	28.280000	46.820000	0.000000	0.000000	130.000000	56.000000	23.000000	15.000000
1.210000	28.550000	47.030000	0.000000	0.000000	130.000000	56.000000	27.000000	21.000000
1.220000	28.850000	47.260000	0.000000	0.000000	130.000000	56.000000	30.000000	23.000000
1.230000	29.110000	47.440000	0.000000	0.000000	130.000000	56.000000	26.000000	18.000000
1.240000	29.330000	47.620000	0.000000	0.000000	130.000000	56.000000	22.000000	18.000000
1.250000	29.470000	47.690000	0.000000	0.000000	130.000000	56.000000	14.000000	7.000000
1.260000	29.470000	47.690000	0.000000	0.000000	130.000000	56.000000	0.000000	0.000000
1.270000	29.320000	47.690000	0.000000	0.000000	130.000000	56.000000	-15.000000	0.000000
1.280000	29.140000	47.600000	0.000000	0.000000	129.000000	56.000000	-18.000000	-9.000000
1.290000	28.960000	47.550000	0.000000	0.000000	130.000000	55.000000	-18.000000	-5.000000
1.300000	28.780000	47.550000	0.000000	0.000000	130.000000	55.000000	-18.000000	0.000000
1.310000	28.600000	47.550000	0.000000	0.000000	131.000000	56.000000	-18.000000	0.000000
1.320000	28.510000	47.550000	0.000000	0.000000	131.000000	56.000000	-9.000000	0.000000
1.330000	28.450000	47.700000	0.000000	0.000000	131.000000	56.000000	-6.000000	15.000000
1.340000	28.450000	47.820000	0.000000	0.000000	132.000000	57.000000	0.000000	12.000000
1.350000	28.450000	47.980000	0.000000	0.000000	132.000000	57.000000	0.000000	16.000000
1.360000	28.450000	47.980000	44.000000	1.000000	132.000000	57.000000	0.000000	0.000000
1.370000	28.450000	48.260000	91.000000	0.000000	132.000000	57.000000	0.000000	28.000000
1.380000	28.390000	48.260000	170.000000	0.000000	132.000000	57.000000	-6.000000	0.000000
1.390000	28.390000	48.260000	223.000000	0.000000	132.000000	57.000000	0.000000	0.000000
1.400000	28.390000	48.260000	255.000000	0.000000	132.000000	57.000000	0.000000	0.000000
1.410000	28.390000	48.150000	285.000000	0.000000	132.000000	57.000000	0.000000	-11.000000
1.420000	28.390000	47.990000	292.000000	0.000000	132.000000	57.000000	0.000000	-16.000000
1.430000	28.390000	47.760000	311.000000	0.000000	132.000000	57.000000	0.000000	-23.000000
1.440000	28.490000	47.500000	314.000000	0.000000	132.000000	57.000000	10.000000	-26.000000
1.450000	28.620000	47.220000	307.000000	0.000000	131.000000	56.000000	13.000000	-28.000000
1.460000	28.740000	46.950000	307.000000	0.000000	130.000000	56.000000	12.000000	-27.000000
1.470000	28.860000	46.810000	310.000000	0.000000	130.000000	56.000000	12.000000	-14.000000
1.480000	28.860000	46.810000	315.000000	0.000000	130.000000	56.000000	0.000000	0.000000
1.490000	29.130000	46.810000	327.000000	0.000000	130.000000	56.000000	27.000000	0.000000
1.500000	29.250000	46.900000	339.000000	0.000000	130.000000	56.000000	12.000000	9.000000
1.510000	29.400000	47.130000	368.000000	0.000000	130.000000	56.000000	15.000000	23.000000
1.520000	29.510000	47.320000	366.000000	0.000000	130.000000	56.000000	11.000000	19.000000
1.530000	29.590000	47.590000	379.000000	0.000000	130.000000	56.000000	8.000000	27.000000
1.540000	29.660000	47.920000	394.000000	0.000000	130.000000	56.000000	7.000000	33.000000
1.550000	29.710000	48.200000	413.000000	0.000000	130.000000	56.000000	5.000000	28.000000
1.560000	29.710000	48.440000	423.000000	0.000000	130.000000	56.000000	0.000000	24.000000
1.570000	29.760000	48.570000	413.000000	0.000000	131.000000	56.000000	5.000000	13.000000
1.580000	29.760000	48.620000	369.000000	0.000000	131.000000	56.000000	0.000000	5.000000
1.590000	29.760000	48.620000	233.000000	0.000000	131.000000	56.000000	0.000000	0.000000
1.600000	29.760000	48.620000	0.000000	1.000000	132.000000	55.000000	0.000000	0.000000
1.610000	29.760000	48.300000	0.000000	0.000000	134.000000	56.000000	0.000000	-32.000000
1.620000	29.760000	48.160000	0.000000	0.000000	134.000000	56.000000	0.000000	-14.000000
1.630000	29.760000	48.060000	0.000000	0.000000	134.000000	56.000000	0.000000	-10.000000
1.640000	29.820000	48.060000	0.000000	0.000000	132.000000	57.000000	6.000000	0.000000
1.650000	29.930000	48.210000	0.000000	0.000000	132.000000	57.000000	11.000000	15.000000
1.660000	30.110000	48.410000	0.000000	0.000000	132.000000	57.000000	18.000000	20.000000
1.670000	30.300000	48.620000	0.000000	0.000000	131.000000	56.000000	19.000000	21.000000
1.680000	30.430000	48.790000	0.000000	0.000000	131.000000	56.000000	13.000000	17.000000
1.690000	30.510000	48.870000	0.000000	0.000000	131.000000	56.000000	8.000000	8.000000
1.700000	30.560000	48.940000	0.000000	0.000000	131.000000	56.000000	5.000000	7.000000
1.710000	30.560000	49.010000	0.000000	0.000000	131.000000	56.000000	0.000000	7.000000
1.720000	30.560000	49.010000	207.000000	1.000000	132.000000	57.000000	0.000000	0.000000
1.730000	30.560000	49.010000	262.000000	0.000000	132.000000	57.000000	0.000000	0.000000
1.740000	30.560000	49.010000	343.000000	0.000000	134.000000	56.000000	0.000000	0.000000
1.750000	30.560000	49.010000	374.000000	0.000000	134.000000	56.000000	0.000000	0.000000
1.760000	30.560000	49.010000	388.000000	0.000000	134.000000	56.000000	0.000000	0.000000
1.770000	30.560000	49.010000	420.000000	0.000000	135.000000	55.000000	0.000000	0.000000
1.780000	30.350000	48.700000	418.000000	0.000000	135.000000	55.000000	-21.000000	-31.000000
1.790000	30.350000	48.360000	430.000000	0.000000	135.000000	55.000000	0.000000	-34.000000
1.800000	30.290000	47.950000	428.000000	0.000000	134.000000	56.000000	-6.000000	-41.000000
1.810000	30.290000	47.600000	393.000000	0.000000	132.000000	55.000000	0.000000	-35.000000
1.820000	30.290000	47.280000	223.000000	0.000000	132.000000	55.000000	0.000000	-32.000000
1.830000	30.290000	47.280000	0.000000	1.000000	131.000000	56.000000	0.000000	0.000000
1.840000	30.470000	47.380000	0.000000	0.000000	131.000000	56.000000	18.000000	10.000000
1.850000	30.690000	47.660000	0.000000	0.000000	131.000000	56.000000	22.000000	28.000000
1.860000	30.900000	48.160000	0.000000	0.000000	131.000000	56.000000	21.000000	50.000000
1.870000	31.080000	48.720000	0.000000	0.000000	131.000000	56.000000	18.000000	56.000000
1.880000	31.320000	49.330000	0.000000	0.000000	131.000000	56.000000	24.000000	61.000000
1.890000	31.540000	49.770000	0.000000	0.000000	131.000000	56.000000	22.000000	44.000000
1.900000	31.660000	50.190000	0.000000	0.000000	131.000000	56.000000	12.000000	42.000000
1.910000	31.710000	50.410000	0.000000	0.000000	132.000000	55.000000	5.000000	22.000000
1.920000	31.710000	50.510000	0.000000	0.000000	132.000000	55.000000	0.000000	10.000000
1.930000	31.710000	50.510000	344.000000	1.000000	134.000000	55.000000	0.000000	0.000000
1.940000	31.710000	50.510000	376.000000	0.000000	135.000000	55.000000	0.000000	0.000000
1.950000	31.370000	50.660000	418.000000	0.000000	135.000000	55.000000	-34.000000	15.000000
1.960000	31.310000	50.660000	422.000000	0.000000	136.000000	55.000000	-6.000000	0.000000
1.970000	31.310000	50.660000	367.000000	0.000000	136.000000	55.000000	0.000000	0.000000
1.980000	31.310000	50.660000	193.000000	0.000000	136.000000	55.000000	0.000000	0.000000
1.990000	31.310000	50.660000	0.000000	1.000000	137.000000	54.000000	0.000000	0.000000
2.000000	31.740000	50.610000	0.000000	0.000000	136.000000	55.000000	43.000000	-5.000000
2.010000	31.980000	50.670000	0.000000	0.000000	136.000000	55.000000	24.000000	6.000000
2.020000	32.190000	50.790000	0.000000	0.000000	136.000000	55.000000	21.000000	12.000000
2.030000	32.380000	50.940000	0.000000	0.000000	136.000000	55.000000	19.000000	15.000000
2.040000	32.710000	51.140000	0.000000	0.000000	136.000000	55.000000	33.000000	20.000000
2.050000	33.000000	51.380000	0.000000	0.000000	136.000000	55.000000	29.000000	24.000000
2.060000	33.270000	51.580000	0.000000	0.000000	136.000000	55.000000	27.000000	20.000000
2.070000	33.480000	51.730000	0.000000	0.000000	136.000000	55.000000	21.000000	15.000000
2.080000	33.550000	51.800000	0.000000	0.000000	136.000000	55.000000	7.000000	7.000000
2.090000	33.550000	51.800000	178.000000	1.000000	136.000000	55.000000	0.000000	0.000000
2.100000	33.550000	51.800000	223.000000	0.000000	136.000000	55.000000	0.000000	0.000000
2.110000	33.550000	51.800000	279.000000	0.000000	136.000000	55.000000	0.000000	0.000000
2.120000	33.210000	51.610000	314.000000	0.000000	138.000000	55.000000	-34.000000	-19.000000
2.130000	33.080000	51.400000	327.000000	0.000000	139.000000	55.000000	-13.000000	-21.000000
2.140000	32.970000	51.070000	340.000000	0.000000	139.000000	55.000000	-11.000000	-33.000000
2.150000	32.910000	50.670000	344.000000	0.000000	139.000000	55.000000	-6.000000	-40.000000
2.160000	32.910000	50.140000	345.000000	0.000000	138.000000	55.000000	0.000000	-53.000000
2.170000	32.910000	49.610000	334.000000	0.000000	138.000000	55.000000	0.000000	-53.000000
2.180000	32.910000	49.190000	334.000000	0.000000	138.000000	55.000000	0.000000	-42.000000
2.190000	33.030000	48.840000	336.000000	0.000000	138.000000	55.000000	12.000000	-35.000000
2.200000	33.110000	48.550000	334.000000	0.000000	136.000000	56.000000	8.000000	-29.000000
2.210000	33.190000	48.460000	339.000000	0.000000	136.000000	56.000000	8.000000	-9.000000
2.220000	33.190000	48.460000	337.000000	0.000000	136.000000	56.000000	0.000000	0.000000
2.230000	33.190000	48.560000	324.000000	0.000000	135.000000	57.000000	0.000000	10.000000
