t	x	y	pressure	penup	azimuth	inclination	v_x	v_y
0.000000	8.460000	62.170000	54.000000	1.000000	149.000000	52.000000	0.000000	0.000000
0.010000	8.460000	62.170000	107.000000	0.000000	148.000000	53.000000	0.000000	0.000000
0.020000	8.980000	62.540000	216.000000	0.000000	147.000000	52.000000	52.000000	37.000000
0.030000	9.720000	62.850000	317.000000	0.000000	146.000000	52.000000	74.000000	31.000000
0.040000	10.750000	63.330000	404.000000	0.000000	144.000000	51.000000	103.000000	48.000000
0.050000	12.250000	63.920000	472.000000	0.000000	143.000000	51.000000	150.000000	59.000000
0.060000	14.020000	64.720000	520.000000	0.000000	141.000000	51.000000	177.000000	80.000000
0.070000	15.970000	65.330000	535.000000	0.000000	141.000000	51.000000	195.000000	61.000000
0.080000	18.120000	65.820000	551.000000	0.000000	141.000000	51.000000	215.000000	49.000000
0.090000	20.110000	66.170000	556.000000	0.000000	140.000000	52.000000	199.000000	35.000000
0.100000	21.990000	66.220000	553.000000	0.000000	141.000000	52.000000	188.000000	5.000000
0.110000	23.300000	66.080000	537.000000	0.000000	141.000000	53.000000	131.000000	-14.000000
0.120000	23.860000	65.710000	537.000000	0.000000	142.000000	54.000000	56.000000	-37.000000
0.130000	23.910000	65.050000	563.000000	0.000000	144.000000	54.000000	5.000000	-66.000000
0.140000	23.350000	64.190000	586.000000	0.000000	145.000000	55.000000	-56.000000	-86.000000
0.150000	22.120000	63.200000	617.000000	0.000000	147.000000	55.000000	-123.000000	-99.000000
0.160000	20.430000	62.080000	628.000000	0.000000	147.000000	55.000000	-169.000000	-112.000000
0.170000	18.220000	60.870000	622.000000	0.000000	147.000000	55.000000	-221.000000	-121.000000
0.180000	15.850000	59.580000	638.000000	0.000000	147.000000	53.000000	-237.000000	-129.000000
0.190000	13.380000	58.480000	639.000000	0.000000	147.000000	53.000000	-247.000000	-110.000000
0.200000	11.320000	57.500000	647.000000	0.000000	146.000000	53.000000	-206.000000	-98.000000
0.210000	9.810000	56.840000	643.000000	0.000000	143.000000	53.000000	-151.000000	-66.000000
0.220000	8.670000	56.570000	671.000000	0.000000	142.000000	53.000000	-114.000000	-27.000000
0.230000	8.600000	56.570000	675.000000	0.000000	140.000000	53.000000	-7.000000	0.000000
0.240000	9.310000	56.770000	688.000000	0.000000	137.000000	53.000000	71.000000	20.000000
0.250000	10.530000	57.490000	716.000000	0.000000	136.000000	52.000000	122.000000	72.000000
0.260000	12.740000	58.550000	737.000000	0.000000	136.000000	52.000000	221.000000	106.000000
0.270000	15.600000	59.970000	760.000000	0.000000	136.000000	52.000000	286.000000	142.000000
0.280000	18.890000	61.420000	763.000000	0.000000	136.000000	52.000000	329.000000	145.000000
0.290000	23.320000	62.900000	767.000000	0.000000	139.000000	52.000000	443.000000	148.000000
0.300000	27.920000	64.450000	770.000000	0.000000	140.000000	53.000000	460.000000	155.000000
0.310000	32.630000	65.720000	751.000000	0.000000	142.000000	53.000000	471.000000	127.000000
0.320000	36.870000	66.810000	736.000000	0.000000	145.000000	53.000000	424.000000	109.000000
0.330000	40.170000	67.510000	679.000000	0.000000	146.000000	53.000000	330.000000	70.000000
0.340000	42.830000	67.830000	554.000000	0.000000	147.000000	53.000000	266.000000	32.000000
0.350000	44.200000	67.890000	120.000000	0.000000	148.000000	53.000000	137.000000	6.000000
0.360000	44.200000	67.890000	0.000000	1.000000	148.000000	53.000000	0.000000	0.000000
0.370000	43.430000	67.350000	0.000000	0.000000	148.000000	53.000000	-77.000000	-54.000000
0.380000	41.810000	66.890000	0.000000	0.000000	148.000000	53.000000	-162.000000	-46.000000
0.390000	39.560000	66.480000	0.000000	0.000000	148.000000	53.000000	-225.000000	-41.000000
0.400000	36.900000	66.060000	0.000000	0.000000	148.000000	53.000000	-266.000000	-42.000000
0.410000	33.780000	65.570000	0.000000	0.000000	148.000000	51.000000	-312.000000	-49.000000
0.420000	31.110000	65.090000	0.000000	0.000000	148.000000	51.000000	-267.000000	-48.000000
0.430000	28.730000	64.660000	0.000000	0.000000	147.000000	51.000000	-238.000000	-43.000000
0.440000	27.170000	64.390000	0.000000	0.000000	146.000000	50.000000	-156.000000	-27.000000
0.450000	26.380000	64.210000	0.000000	0.000000	145.000000	50.000000	-79.000000	-18.000000
0.460000	26.100000	64.080000	0.000000	0.000000	146.000000	49.000000	-28.000000	-13.000000
0.470000	26.420000	64.020000	0.000000	0.000000	145.000000	48.000000	32.000000	-6.000000
0.480000	26.750000	64.020000	0.000000	0.000000	146.000000	48.000000	33.000000	0.000000
0.490000	27.080000	64.020000	0.000000	0.000000	146.000000	48.000000	33.000000	0.000000
0.500000	27.320000	63.970000	0.000000	0.000000	146.000000	48.000000	24.000000	-5.000000
0.510000	27.520000	63.970000	0.000000	0.000000	145.000000	48.000000	20.000000	0.000000
0.520000	27.750000	63.910000	0.000000	0.000000	146.000000	49.000000	23.000000	-6.000000
0.530000	27.870000	63.910000	0.000000	0.000000	146.000000	49.000000	12.000000	0.000000
0.540000	27.920000	63.910000	0.000000	0.000000	146.000000	49.000000	5.000000	0.000000
0.550000	27.790000	63.910000	0.000000	0.000000	145.000000	50.000000	-13.000000	0.000000
0.560000	27.510000	63.910000	0.000000	0.000000	144.000000	49.000000	-28.000000	0.000000
0.570000	27.120000	63.860000	0.000000	0.000000	144.000000	49.000000	-39.000000	-5.000000
0.580000	26.630000	63.860000	0.000000	0.000000	144.000000	49.000000	-49.000000	0.000000
0.590000	26.170000	63.860000	0.000000	0.000000	144.000000	50.000000	-46.000000	0.000000
0.600000	25.770000	63.860000	0.000000	0.000000	144.000000	50.000000	-40.000000	0.000000
0.610000	25.460000	63.860000	0.000000	0.000000	144.000000	50.000000	-31.000000	0.000000
0.620000	25.210000	63.640000	0.000000	0.000000	143.000000	51.000000	-25.000000	-22.000000
0.630000	25.080000	63.330000	0.000000	0.000000	143.000000	51.000000	-13.000000	-31.000000
0.640000	24.980000	64.060000	0.000000	0.000000	143.000000	51.000000	-10.000000	73.000000
0.650000	24.910000	64.340000	0.000000	0.000000	143.000000	51.000000	-7.000000	28.000000
0.660000	24.840000	64.340000	0.000000	0.000000	142.000000	50.000000	-7.000000	0.000000
0.670000	24.760000	64.340000	0.000000	0.000000	142.000000	50.000000	-8.000000	0.000000
0.680000	24.670000	64.390000	0.000000	0.000000	142.000000	50.000000	-9.000000	5.000000
0.690000	24.620000	64.390000	0.000000	0.000000	142.000000	50.000000	-5.000000	0.000000
0.700000	24.620000	64.390000	0.000000	0.000000	142.000000	50.000000	0.000000	0.000000
0.710000	24.620000	64.390000	0.000000	0.000000	141.000000	51.000000	0.000000	0.000000
0.720000	24.770000	64.460000	0.000000	0.000000	141.000000	51.000000	15.000000	7.000000
0.730000	24.940000	64.560000	0.000000	0.000000	141.000000	51.000000	17.000000	10.000000
0.740000	25.140000	64.670000	0.000000	0.000000	141.000000	51.000000	20.000000	11.000000
0.750000	25.370000	64.790000	0.000000	0.000000	141.000000	51.000000	23.000000	12.000000
0.760000	25.600000	64.890000	0.000000	0.000000	141.000000	51.000000	23.000000	10.000000
0.770000	25.850000	64.990000	0.000000	0.000000	142.000000	52.000000	25.000000	10.000000
0.780000	26.050000	65.090000	0.000000	0.000000	141.000000	52.000000	20.000000	10.000000
0.790000	26.220000	65.090000	0.000000	0.000000	141.000000	52.000000	17.000000	0.000000
0.800000	26.360000	65.170000	0.000000	0.000000	142.000000	53.000000	14.000000	8.000000
0.810000	26.440000	65.220000	0.000000	0.000000	142.000000	53.000000	8.000000	5.000000
0.820000	26.440000	65.220000	46.000000	1.000000	142.000000	53.000000	0.000000	0.000000
0.830000	26.440000	65.220000	91.000000	0.000000	142.000000	53.000000	0.000000	0.000000
0.840000	26.440000	65.220000	139.000000	0.000000	142.000000	53.000000	0.000000	0.000000
0.850000	26.440000	65.220000	185.000000	0.000000	142.000000	53.000000	0.000000	0.000000
0.860000	26.440000	65.220000	256.000000	0.000000	142.000000	53.000000	0.000000	0.000000
0.870000	26.440000	65.220000	292.000000	0.000000	142.000000	53.000000	0.000000	0.000000
0.880000	26.440000	65.220000	325.000000	0.000000	142.000000	53.000000	0.000000	0.000000
0.890000	26.440000	65.220000	333.000000	0.000000	142.000000	53.000000	0.000000	0.000000
0.900000	26.010000	65.280000	398.000000	0.000000	142.000000	53.000000	-43.000000	6.000000
0.910000	25.810000	65.220000	417.000000	0.000000	142.000000	53.000000	-20.000000	-6.000000
0.920000	25.570000	65.120000	423.000000	0.000000	142.000000	53.000000	-24.000000	-10.000000
0.930000	25.300000	64.980000	414.000000	0.000000	142.000000	53.000000	-27.000000	-14.000000
0.940000	25.060000	64.750000	417.000000	0.000000	142.000000	53.000000	-24.000000	-23.000000
0.950000	24.860000	64.470000	418.000000	0.000000	142.000000	53.000000	-20.000000	-28.000000
0.960000	24.760000	64.190000	420.000000	0.000000	142.000000	53.000000	-10.000000	-28.000000
0.970000	24.760000	63.920000	418.000000	0.000000	142.000000	53.000000	0.000000	-27.000000
0.980000	24.830000	63.650000	423.000000	0.000000	142.000000	53.000000	7.000000	-27.000000
0.990000	24.940000	63.500000	425.000000	0.000000	142.000000	53.000000	11.000000	-15.000000
1.000000	25.140000	63.420000	414.000000	0.000000	142.000000	53.000000	20.000000	-8.000000
1.010000	25.430000	63.420000	417.000000	0.000000	143.000000	52.000000	29.000000	0.000000
1.020000	25.690000	63.420000	418.000000	0.000000	143.000000	52.000000	26.000000	0.000000
1.030000	25.910000	63.600000	418.000000	0.000000	143.000000	52.000000	22.000000	18.000000
1.040000	26.180000	63.840000	423.000000	0.000000	145.000000	53.000000	27.000000	24.000000
1.050000	26.430000	64.110000	418.000000	0.000000	145.000000	53.000000	25.000000	27.000000
1.060000	26.570000	64.400000	423.000000	0.000000	145.000000	53.000000	14.000000	29.000000
1.070000	26.630000	64.660000	422.000000	0.000000	145.000000	53.000000	6.000000	26.000000
1.080000	26.630000	64.860000	425.000000	0.000000	143.000000	52.000000	0.000000	20.000000
1.090000	26.630000	64.970000	414.000000	0.000000	142.000000	53.000000	0.000000	11.000000
1.100000	26.580000	65.050000	418.000000	0.000000	142.000000	53.000000	-5.000000	8.000000
1.110000	26.490000	65.050000	427.000000	0.000000	141.000000	52.000000	-9.000000	0.000000
1.120000	26.420000	65.100000	440.000000	0.000000	141.000000	52.000000	-7.000000	5.000000
1.130000	26.420000	65.100000	440.000000	0.000000	141.000000	52.000000	0.000000	0.000000
1.140000	26.420000	65.100000	441.000000	0.000000	141.000000	52.000000	0.000000	0.000000
1.150000	26.420000	65.000000	441.000000	0.000000	141.000000	52.000000	0.000000	-10.000000
1.160000	26.530000	64.890000	441.000000	0.000000	142.000000	53.000000	11.000000	-11.000000
1.170000	26.640000	64.740000	423.000000	0.000000	142.000000	53.000000	11.000000	-15.000000
1.180000	26.750000	64.520000	377.000000	0.000000	142.000000	53.000000	11.000000	-22.000000
1.190000	26.890000	64.330000	218.000000	0.000000	141.000000	52.000000	14.000000	-19.000000
1.200000	27.000000	64.160000	36.000000	0.000000	141.000000	52.000000	11.000000	-17.000000
1.210000	27.000000	64.160000	0.000000	1.000000	140.000000	52.000000	0.000000	0.000000
1.220000	27.210000	64.040000	0.000000	0.000000	141.000000	51.000000	21.000000	-12.000000
1.230000	27.360000	64.180000	0.000000	0.000000	140.000000	51.000000	15.000000	14.000000
1.240000	27.540000	64.330000	0.000000	0.000000	140.000000	51.000000	18.000000	15.000000
1.250000	27.750000	64.500000	0.000000	0.000000	140.000000	51.000000	21.000000	17.000000
1.260000	27.990000	64.650000	0.000000	0.000000	141.000000	51.000000	24.000000	15.000000
1.270000	28.130000	64.770000	0.000000	0.000000	141.000000	51.000000	14.000000	12.000000
1.280000	28.200000	64.830000	0.000000	0.000000	143.000000	51.000000	7.000000	6.000000
1.290000	28.200000	64.830000	0.000000	0.000000	143.000000	51.000000	0.000000	0.000000
1.300000	28.200000	64.830000	0.000000	0.000000	144.000000	51.000000	0.000000	0.000000
1.310000	28.110000	64.830000	0.000000	0.000000	144.000000	51.000000	-9.000000	0.000000
1.320000	27.990000	64.830000	0.000000	0.000000	144.000000	51.000000	-12.000000	0.000000
1.330000	27.890000	64.890000	0.000000	0.000000	144.000000	51.000000	-10.000000	6.000000
1.340000	27.820000	64.940000	0.000000	0.000000	144.000000	51.000000	-7.000000	5.000000
1.350000	27.820000	65.030000	0.000000	0.000000	143.000000	52.000000	0.000000	9.000000
1.360000	27.760000	65.140000	0.000000	0.000000	142.000000	52.000000	-6.000000	11.000000
1.370000	27.760000	65.270000	0.000000	0.000000	142.000000	52.000000	0.000000	13.000000
1.380000	27.760000	65.270000	46.000000	1.000000	141.000000	52.000000	0.000000	0.000000
1.390000	27.760000	65.270000	103.000000	0.000000	141.000000	52.000000	0.000000	0.000000
1.400000	27.700000	65.590000	137.000000	0.000000	141.000000	52.000000	-6.000000	32.000000
1.410000	27.700000	65.670000	176.000000	0.000000	140.000000	52.000000	0.000000	8.000000
1.420000	27.750000	65.720000	217.000000	0.000000	139.000000	52.000000	5.000000	5.000000
1.430000	27.750000	65.720000	228.000000	0.000000	139.000000	52.000000	0.000000	0.000000
1.440000	27.800000	65.650000	241.000000	0.000000	137.000000	52.000000	5.000000	-7.000000
1.450000	27.850000	65.540000	255.000000	0.000000	137.000000	52.000000	5.000000	-11.000000
1.460000	27.850000	65.360000	260.000000	0.000000	137.000000	52.000000	0.000000	-18.000000
1.470000	27.930000	65.120000	264.000000	0.000000	137.000000	52.000000	8.000000	-24.000000
1.480000	27.930000	64.900000	267.000000	0.000000	137.000000	52.000000	0.000000	-22.000000
1.490000	28.040000	64.710000	269.000000	0.000000	138.000000	51.000000	11.000000	-19.000000
1.500000	28.120000	64.540000	269.000000	0.000000	138.000000	51.000000	8.000000	-17.000000
1.510000	28.210000	64.540000	262.000000	0.000000	138.000000	51.000000	9.000000	0.000000
1.520000	28.300000	64.540000	260.000000	0.000000	138.000000	51.000000	9.000000	0.000000
1.530000	28.380000	64.540000	260.000000	0.000000	138.000000	51.000000	8.000000	0.000000
1.540000	28.540000	64.760000	265.000000	0.000000	138.000000	51.000000	16.000000	22.000000
1.550000	28.680000	64.950000	277.000000	0.000000	140.000000	51.000000	14.000000	19.000000
1.560000	28.750000	65.130000	279.000000	0.000000	140.000000	51.000000	7.000000	18.000000
1.570000	28.750000	65.310000	284.000000	0.000000	138.000000	51.000000	0.000000	18.000000
1.580000	28.750000	65.490000	311.000000	0.000000	138.000000	51.000000	0.000000	18.000000
1.590000	28.800000	65.640000	316.000000	0.000000	138.000000	51.000000	5.000000	15.000000
1.600000	28.800000	65.780000	317.000000	0.000000	138.000000	51.000000	0.000000	14.000000
1.610000	28.800000	65.860000	279.000000	0.000000	138.000000	51.000000	0.000000	8.000000
1.620000	28.800000	65.860000	195.000000	0.000000	139.000000	52.000000	0.000000	0.000000
1.630000	28.800000	65.860000	0.000000	1.000000	139.000000	52.000000	0.000000	0.000000
1.640000	28.880000	65.860000	0.000000	0.000000	139.000000	52.000000	8.000000	0.000000
1.650000	28.940000	65.800000	0.000000	0.000000	140.000000	53.000000	6.000000	-6.000000
1.660000	29.020000	65.800000	0.000000	0.000000	140.000000	53.000000	8.000000	0.000000
1.670000	29.090000	65.800000	0.000000	0.000000	140.000000	53.000000	7.000000	0.000000
1.680000	29.220000	65.890000	0.000000	0.000000	140.000000	53.000000	13.000000	9.000000
1.690000	29.410000	65.980000	0.000000	0.000000	141.000000	52.000000	19.000000	9.000000
1.700000	29.620000	66.070000	0.000000	0.000000	141.000000	52.000000	21.000000	9.000000
1.710000	29.780000	66.170000	0.000000	0.000000	141.000000	52.000000	16.000000	10.000000
1.720000	29.900000	66.260000	0.000000	0.000000	142.000000	52.000000	12.000000	9.000000
1.730000	29.950000	66.370000	0.000000	0.000000	142.000000	52.000000	5.000000	11.000000
1.740000	29.950000	66.470000	0.000000	0.000000	142.000000	52.000000	0.000000	10.000000
1.750000	29.950000	66.540000	0.000000	0.000000	141.000000	51.000000	0.000000	7.000000
1.760000	29.900000	66.600000	0.000000	0.000000	141.000000	51.000000	-5.000000	6.000000
1.770000	29.900000	66.600000	131.000000	1.000000	142.000000	52.000000	0.000000	0.000000
1.780000	29.900000	66.600000	172.000000	0.000000	141.000000	52.000000	0.000000	0.000000
1.790000	29.900000	66.600000	202.000000	0.000000	141.000000	52.000000	0.000000	0.000000
1.800000	29.900000	66.600000	218.000000	0.000000	140.000000	53.000000	0.000000	0.000000
1.810000	29.900000	66.600000	212.000000	0.000000	140.000000	53.000000	0.000000	0.000000
1.820000	29.900000	66.600000	232.000000	0.000000	140.000000	53.000000	0.000000	0.000000
1.830000	29.900000	66.600000	247.000000	0.000000	140.000000	53.000000	0.000000	0.000000
1.840000	29.750000	66.060000	245.000000	0.000000	140.000000	53.000000	-15.000000	-54.000000
1.850000	29.670000	65.680000	245.000000	0.000000	140.000000	53.000000	-8.000000	-38.000000
1.860000	29.600000	65.430000	251.000000	0.000000	140.000000	53.000000	-7.000000	-25.000000
1.870000	29.600000	65.220000	143.000000	0.000000	140.000000	53.000000	0.000000	-21.000000
1.880000	29.600000	65.220000	0.000000	1.000000	140.000000	53.000000	0.000000	0.000000
1.890000	29.600000	65.050000	0.000000	0.000000	139.000000	52.000000	0.000000	-17.000000
1.900000	29.790000	65.300000	0.000000	0.000000	139.000000	52.000000	19.000000	25.000000
1.910000	30.020000	65.660000	0.000000	0.000000	140.000000	52.000000	23.000000	36.000000
1.920000	30.200000	66.020000	0.000000	0.000000	140.000000	52.000000	18.000000	36.000000
1.930000	30.370000	66.400000	0.000000	0.000000	140.000000	52.000000	17.000000	38.000000
1.940000	30.540000	66.800000	0.000000	0.000000	140.000000	52.000000	17.000000	40.000000
1.950000	30.710000	67.220000	0.000000	0.000000	140.000000	52.000000	17.000000	42.000000
1.960000	30.770000	67.600000	0.000000	0.000000	140.000000	52.000000	6.000000	38.000000
1.970000	30.770000	67.780000	0.000000	0.000000	140.000000	52.000000	0.000000	18.000000
1.980000	30.710000	67.840000	0.000000	0.000000	140.000000	52.000000	-6.000000	6.000000
1.990000	30.710000	67.840000	210.000000	1.000000	140.000000	52.000000	0.000000	0.000000
2.000000	30.710000	67.840000	209.000000	0.000000	141.000000	51.000000	0.000000	0.000000
2.010000	30.440000	67.840000	211.000000	0.000000	141.000000	51.000000	-27.000000	0.000000
2.020000	30.440000	67.840000	170.000000	0.000000	142.000000	52.000000	0.000000	0.000000
2.030000	30.440000	67.840000	53.000000	0.000000	142.000000	52.000000	0.000000	0.000000
2.040000	30.440000	67.840000	0.000000	1.000000	142.000000	52.000000	0.000000	0.000000
2.050000	30.710000	67.660000	0.000000	0.000000	142.000000	52.000000	27.000000	-18.000000
2.060000	30.920000	67.660000	0.000000	0.000000	142.000000	52.000000	21.000000	0.000000
2.070000	31.120000	67.660000	0.000000	0.000000	142.000000	52.000000	20.000000	0.000000
2.080000	31.370000	67.840000	0.000000	0.000000	142.000000	52.000000	25.000000	18.000000
2.090000	31.660000	68.030000	0.000000	0.000000	142.000000	52.000000	29.000000	19.000000
2.100000	31.940000	68.170000	0.000000	0.000000	142.000000	52.000000	28.000000	14.000000
2.110000	32.200000	68.330000	0.000000	0.000000	142.000000	52.000000	26.000000	16.000000
2.120000	32.460000	68.510000	0.000000	0.000000	141.000000	51.000000	26.000000	18.000000
2.130000	32.590000	68.700000	0.000000	0.000000	141.000000	51.000000	13.000000	19.000000
2.140000	32.590000	68.820000	0.000000	0.000000	141.000000	51.000000	0.000000	12.000000
2.150000	32.660000	68.910000	0.000000	0.000000	142.000000	50.000000	7.000000	9.000000
2.160000	32.660000	68.910000	0.000000	0.000000	142.000000	50.000000	0.000000	0.000000
2.170000	32.600000	68.910000	0.000000	0.000000	142.000000	50.000000	-6.000000	0.000000
2.180000	32.660000	68.910000	0.000000	0.000000	143.000000	50.000000	6.000000	0.000000
2.190000	32.660000	68.910000	25.000000	1.000000	143.000000	50.000000	0.000000	0.000000
2.200000	32.660000	68.910000	61.000000	0.000000	143.000000	50.000000	0.000000	0.000000
2.210000	32.660000	68.510000	106.000000	0.000000	142.000000	50.000000	0.000000	-40.000000
2.220000	32.660000	68.200000	105.000000	0.000000	143.000000	51.000000	0.000000	-31.000000
2.230000	32.660000	67.880000	142.000000	0.000000	143.000000	51.000000	0.000000	-32.000000
