t	x	y	pressure	penup	azimuth	inclination	v_x	v_y
0.000000	14.850000	82.790000	361.000000	1.000000	105.000000	71.000000	0.000000	0.000000
0.010000	14.950000	83.180000	461.000000	0.000000	108.000000	71.000000	10.000000	39.000000
0.020000	14.950000	83.180000	564.000000	0.000000	111.000000	71.000000	0.000000	0.000000
0.030000	14.900000	83.060000	638.000000	0.000000	113.000000	71.000000	-5.000000	-12.000000
0.040000	14.710000	82.570000	727.000000	0.000000	113.000000	71.000000	-19.000000	-49.000000
0.050000	14.400000	81.830000	812.000000	0.000000	112.000000	70.000000	-31.000000	-74.000000
0.060000	13.860000	80.460000	857.000000	0.000000	112.000000	70.000000	-54.000000	-137.000000
0.070000	13.330000	79.060000	921.000000	0.000000	111.000000	69.000000	-53.000000	-140.000000
0.080000	12.810000	77.610000	964.000000	0.000000	109.000000	69.000000	-52.000000	-145.000000
0.090000	12.340000	76.560000	985.000000	0.000000	108.000000	68.000000	-47.000000	-105.000000
0.100000	12.050000	75.780000	973.000000	0.000000	105.000000	67.000000	-29.000000	-78.000000
0.110000	11.880000	75.230000	980.000000	0.000000	104.000000	66.000000	-17.000000	-55.000000
0.120000	11.730000	74.960000	950.000000	0.000000	101.000000	66.000000	-15.000000	-27.000000
0.130000	11.730000	74.870000	896.000000	0.000000	101.000000	65.000000	0.000000	-9.000000
0.140000	11.800000	75.010000	836.000000	0.000000	99.000000	65.000000	7.000000	14.000000
0.150000	11.980000	75.760000	784.000000	0.000000	99.000000	65.000000	18.000000	75.000000
0.160000	12.320000	76.930000	754.000000	0.000000	98.000000	64.000000	34.000000	117.000000
0.170000	12.760000	78.650000	743.000000	0.000000	98.000000	64.000000	44.000000	172.000000
0.180000	13.200000	80.470000	751.000000	0.000000	99.000000	65.000000	44.000000	182.000000
0.190000	13.680000	82.370000	763.000000	0.000000	101.000000	65.000000	48.000000	190.000000
0.200000	14.250000	83.150000	776.000000	0.000000	101.000000	66.000000	57.000000	78.000000
0.210000	14.840000	83.600000	797.000000	0.000000	103.000000	65.000000	59.000000	45.000000
0.220000	15.290000	83.840000	814.000000	0.000000	104.000000	66.000000	45.000000	24.000000
0.230000	15.660000	83.680000	845.000000	0.000000	107.000000	67.000000	37.000000	-16.000000
0.240000	15.910000	83.320000	876.000000	0.000000	107.000000	67.000000	25.000000	-36.000000
0.250000	15.910000	82.820000	905.000000	0.000000	110.000000	68.000000	0.000000	-50.000000
0.260000	15.800000	82.010000	933.000000	0.000000	110.000000	68.000000	-11.000000	-81.000000
0.270000	15.420000	81.160000	940.000000	0.000000	110.000000	68.000000	-38.000000	-85.000000
0.280000	15.030000	80.360000	947.000000	0.000000	110.000000	68.000000	-39.000000	-80.000000
0.290000	14.620000	79.610000	961.000000	0.000000	110.000000	68.000000	-41.000000	-75.000000
0.300000	14.350000	79.020000	965.000000	0.000000	110.000000	68.000000	-27.000000	-59.000000
0.310000	14.280000	78.700000	968.000000	0.000000	110.000000	68.000000	-7.000000	-32.000000
0.320000	14.350000	78.560000	967.000000	0.000000	110.000000	68.000000	7.000000	-14.000000
0.330000	14.460000	78.480000	964.000000	0.000000	110.000000	68.000000	11.000000	-8.000000
0.340000	14.600000	78.400000	958.000000	0.000000	111.000000	69.000000	14.000000	-8.000000
0.350000	14.810000	78.310000	951.000000	0.000000	111.000000	69.000000	21.000000	-9.000000
0.360000	15.080000	78.310000	867.000000	0.000000	111.000000	69.000000	27.000000	0.000000
0.370000	15.350000	78.310000	737.000000	0.000000	111.000000	69.000000	27.000000	0.000000
0.380000	15.640000	78.410000	400.000000	0.000000	111.000000	69.000000	29.000000	10.000000
0.390000	15.640000	78.410000	0.000000	1.000000	110.000000	68.000000	0.000000	0.000000
0.400000	16.230000	78.660000	0.000000	0.000000	110.000000	68.000000	59.000000	25.000000
0.410000	16.320000	78.660000	0.000000	0.000000	109.000000	67.000000	9.000000	0.000000
0.420000	16.320000	78.660000	0.000000	0.000000	109.000000	67.000000	0.000000	0.000000
0.430000	16.320000	78.570000	0.000000	0.000000	111.000000	67.000000	0.000000	-9.000000
0.440000	16.420000	78.520000	0.000000	0.000000	110.000000	66.000000	10.000000	-5.000000
0.450000	16.570000	78.520000	0.000000	0.000000	110.000000	66.000000	15.000000	0.000000
0.460000	16.760000	78.390000	0.000000	0.000000	110.000000	66.000000	19.000000	-13.000000
0.470000	16.760000	78.390000	391.000000	1.000000	110.000000	66.000000	0.000000	0.000000
0.480000	17.050000	78.260000	519.000000	0.000000	110.000000	66.000000	29.000000	-13.000000
0.490000	17.050000	78.260000	652.000000	0.000000	111.000000	67.000000	0.000000	0.000000
0.500000	17.180000	78.260000	761.000000	0.000000	111.000000	67.000000	13.000000	0.000000
0.510000	17.180000	78.170000	787.000000	0.000000	109.000000	67.000000	0.000000	-9.000000
0.520000	17.230000	78.170000	785.000000	0.000000	110.000000	68.000000	5.000000	0.000000
0.530000	17.230000	78.170000	725.000000	0.000000	110.000000	68.000000	0.000000	0.000000
0.540000	17.230000	78.170000	581.000000	0.000000	110.000000	68.000000	0.000000	0.000000
0.550000	17.330000	78.260000	226.000000	0.000000	110.000000	68.000000	10.000000	9.000000
0.560000	17.330000	78.260000	0.000000	1.000000	111.000000	69.000000	0.000000	0.000000
0.570000	17.640000	78.490000	0.000000	0.000000	111.000000	69.000000	31.000000	23.000000
0.580000	17.800000	78.570000	0.000000	0.000000	114.000000	68.000000	16.000000	8.000000
0.590000	17.940000	78.640000	0.000000	0.000000	114.000000	68.000000	14.000000	7.000000
0.600000	18.280000	78.640000	0.000000	0.000000	112.000000	67.000000	34.000000	0.000000
0.610000	18.670000	78.710000	0.000000	0.000000	115.000000	67.000000	39.000000	7.000000
0.620000	19.040000	78.760000	0.000000	0.000000	116.000000	66.000000	37.000000	5.000000
0.630000	19.380000	78.760000	0.000000	0.000000	116.000000	66.000000	34.000000	0.000000
0.640000	19.650000	78.850000	0.000000	0.000000	117.000000	65.000000	27.000000	9.000000
0.650000	19.820000	78.920000	0.000000	0.000000	116.000000	64.000000	17.000000	7.000000
0.660000	19.920000	79.000000	0.000000	0.000000	116.000000	64.000000	10.000000	8.000000
0.670000	20.120000	79.110000	0.000000	0.000000	115.000000	63.000000	20.000000	11.000000
0.680000	20.280000	79.240000	0.000000	0.000000	113.000000	63.000000	16.000000	13.000000
0.690000	20.420000	79.360000	0.000000	0.000000	111.000000	64.000000	14.000000	12.000000
0.700000	20.560000	79.510000	0.000000	0.000000	108.000000	63.000000	14.000000	15.000000
0.710000	20.670000	79.670000	0.000000	0.000000	106.000000	63.000000	11.000000	16.000000
0.720000	20.760000	79.790000	0.000000	0.000000	104.000000	63.000000	9.000000	12.000000
0.730000	20.890000	79.890000	0.000000	0.000000	102.000000	63.000000	13.000000	10.000000
0.740000	21.000000	79.940000	0.000000	0.000000	102.000000	63.000000	11.000000	5.000000
0.750000	21.000000	79.940000	222.000000	1.000000	100.000000	64.000000	0.000000	0.000000
0.760000	20.940000	79.510000	538.000000	0.000000	101.000000	65.000000	-6.000000	-43.000000
0.770000	20.650000	79.040000	611.000000	0.000000	103.000000	64.000000	-29.000000	-47.000000
0.780000	20.240000	78.220000	728.000000	0.000000	103.000000	64.000000	-41.000000	-82.000000
0.790000	19.850000	77.160000	788.000000	0.000000	103.000000	65.000000	-39.000000	-106.000000
0.800000	19.470000	76.410000	854.000000	0.000000	105.000000	65.000000	-38.000000	-75.000000
0.810000	19.300000	75.860000	867.000000	0.000000	106.000000	66.000000	-17.000000	-55.000000
0.820000	19.250000	75.450000	857.000000	0.000000	106.000000	66.000000	-5.000000	-41.000000
0.830000	19.250000	75.230000	857.000000	0.000000	108.000000	66.000000	0.000000	-22.000000
0.840000	19.250000	75.230000	854.000000	0.000000	108.000000	66.000000	0.000000	0.000000
0.850000	19.310000	75.280000	855.000000	0.000000	106.000000	66.000000	6.000000	5.000000
0.860000	19.400000	75.620000	860.000000	0.000000	106.000000	66.000000	9.000000	34.000000
0.870000	19.570000	76.290000	869.000000	0.000000	106.000000	66.000000	17.000000	67.000000
0.880000	19.910000	77.190000	876.000000	0.000000	106.000000	66.000000	34.000000	90.000000
0.890000	20.350000	78.510000	875.000000	0.000000	106.000000	66.000000	44.000000	132.000000
0.900000	20.970000	79.810000	872.000000	0.000000	106.000000	66.000000	62.000000	130.000000
0.910000	21.490000	80.400000	881.000000	0.000000	108.000000	66.000000	52.000000	59.000000
0.920000	21.930000	80.520000	888.000000	0.000000	108.000000	66.000000	44.000000	12.000000
0.930000	22.130000	80.520000	899.000000	0.000000	111.000000	67.000000	20.000000	0.000000
0.940000	22.240000	80.420000	908.000000	0.000000	111.000000	67.000000	11.000000	-10.000000
0.950000	22.290000	80.030000	905.000000	0.000000	111.000000	67.000000	5.000000	-39.000000
0.960000	22.170000	79.460000	860.000000	0.000000	114.000000	66.000000	-12.000000	-57.000000
0.970000	22.010000	78.920000	731.000000	0.000000	114.000000	66.000000	-16.000000	-54.000000
0.980000	21.810000	78.560000	415.000000	0.000000	114.000000	66.000000	-20.000000	-36.000000
0.990000	21.810000	78.560000	0.000000	1.000000	114.000000	66.000000	0.000000	0.000000
1.000000	21.740000	78.260000	0.000000	0.000000	114.000000	66.000000	-7.000000	-30.000000
1.010000	21.740000	78.310000	0.000000	0.000000	114.000000	66.000000	0.000000	5.000000
1.020000	21.860000	78.450000	0.000000	0.000000	114.000000	66.000000	12.000000	14.000000
1.030000	22.090000	78.590000	0.000000	0.000000	113.000000	65.000000	23.000000	14.000000
1.040000	22.420000	78.760000	0.000000	0.000000	113.000000	65.000000	33.000000	17.000000
1.050000	22.790000	78.960000	0.000000	0.000000	113.000000	65.000000	37.000000	20.000000
1.060000	23.160000	79.110000	0.000000	0.000000	112.000000	64.000000	37.000000	15.000000
1.070000	23.470000	79.220000	0.000000	0.000000	112.000000	64.000000	31.000000	11.000000
1.080000	23.750000	79.220000	0.000000	0.000000	110.000000	65.000000	28.000000	0.000000
1.090000	23.910000	79.120000	0.000000	0.000000	110.000000	65.000000	16.000000	-10.000000
1.100000	23.970000	78.900000	0.000000	0.000000	110.000000	65.000000	6.000000	-22.000000
1.110000	23.970000	78.900000	101.000000	1.000000	110.000000	65.000000	0.000000	0.000000
1.120000	23.970000	78.580000	649.000000	0.000000	108.000000	65.000000	0.000000	-32.000000
1.130000	23.970000	78.500000	753.000000	0.000000	108.000000	66.000000	0.000000	-8.000000
1.140000	23.970000	78.500000	864.000000	0.000000	110.000000	66.000000	0.000000	0.000000
1.150000	24.030000	78.690000	903.000000	0.000000	110.000000	66.000000	6.000000	19.000000
1.160000	24.190000	78.920000	939.000000	0.000000	114.000000	66.000000	16.000000	23.000000
1.170000	24.440000	79.250000	938.000000	0.000000	114.000000	66.000000	25.000000	33.000000
1.180000	24.770000	79.660000	940.000000	0.000000	114.000000	66.000000	33.000000	41.000000
1.190000	25.100000	80.130000	944.000000	0.000000	116.000000	66.000000	33.000000	47.000000
1.200000	25.330000	80.390000	893.000000	0.000000	117.000000	67.000000	23.000000	26.000000
1.210000	25.510000	80.630000	767.000000	0.000000	117.000000	67.000000	18.000000	24.000000
1.220000	25.610000	80.800000	379.000000	0.000000	117.000000	67.000000	10.000000	17.000000
1.230000	25.610000	80.800000	0.000000	1.000000	117.000000	67.000000	0.000000	0.000000
1.240000	25.610000	80.870000	0.000000	0.000000	117.000000	67.000000	0.000000	7.000000
1.250000	25.360000	80.820000	0.000000	0.000000	117.000000	67.000000	-25.000000	-5.000000
1.260000	25.360000	80.730000	0.000000	0.000000	117.000000	67.000000	0.000000	-9.000000
1.270000	25.440000	80.580000	0.000000	0.000000	117.000000	67.000000	8.000000	-15.000000
1.280000	25.680000	80.420000	0.000000	0.000000	116.000000	68.000000	24.000000	-16.000000
1.290000	25.940000	80.230000	0.000000	0.000000	116.000000	68.000000	26.000000	-19.000000
1.300000	26.230000	80.050000	0.000000	0.000000	116.000000	68.000000	29.000000	-18.000000
1.310000	26.490000	79.890000	0.000000	0.000000	114.000000	68.000000	26.000000	-16.000000
1.320000	26.640000	79.750000	0.000000	0.000000	111.000000	69.000000	15.000000	-14.000000
1.330000	26.720000	79.630000	0.000000	0.000000	110.000000	68.000000	8.000000	-12.000000
1.340000	26.640000	79.510000	0.000000	0.000000	107.000000	67.000000	-8.000000	-12.000000
1.350000	26.530000	79.390000	0.000000	0.000000	107.000000	67.000000	-11.000000	-12.000000
1.360000	26.390000	79.220000	0.000000	0.000000	107.000000	67.000000	-14.000000	-17.000000
1.370000	26.280000	79.050000	0.000000	0.000000	106.000000	66.000000	-11.000000	-17.000000
1.380000	26.280000	79.050000	183.000000	1.000000	108.000000	66.000000	0.000000	0.000000
1.390000	26.440000	78.780000	372.000000	0.000000	108.000000	66.000000	16.000000	-27.000000
1.400000	26.540000	78.780000	466.000000	0.000000	111.000000	67.000000	10.000000	0.000000
1.410000	26.860000	78.780000	561.000000	0.000000	114.000000	66.000000	32.000000	0.000000
1.420000	27.330000	78.970000	636.000000	0.000000	117.000000	67.000000	47.000000	19.000000
1.430000	27.850000	79.270000	697.000000	0.000000	118.000000	68.000000	52.000000	30.000000
1.440000	28.330000	79.640000	746.000000	0.000000	118.000000	68.000000	48.000000	37.000000
1.450000	28.790000	80.010000	765.000000	0.000000	120.000000	67.000000	46.000000	37.000000
1.460000	29.130000	80.420000	779.000000	0.000000	120.000000	67.000000	34.000000	41.000000
1.470000	29.320000	80.870000	784.000000	0.000000	119.000000	66.000000	19.000000	45.000000
1.480000	29.410000	81.270000	785.000000	0.000000	119.000000	66.000000	9.000000	40.000000
1.490000	29.330000	81.430000	794.000000	0.000000	120.000000	67.000000	-8.000000	16.000000
1.500000	29.020000	81.430000	797.000000	0.000000	120.000000	67.000000	-31.000000	0.000000
1.510000	28.560000	81.140000	800.000000	0.000000	120.000000	67.000000	-46.000000	-29.000000
1.520000	28.060000	80.700000	842.000000	0.000000	120.000000	67.000000	-50.000000	-44.000000
1.530000	27.600000	80.150000	861.000000	0.000000	120.000000	67.000000	-46.000000	-55.000000
1.540000	27.410000	79.580000	891.000000	0.000000	120.000000	67.000000	-19.000000	-57.000000
1.550000	27.410000	79.130000	891.000000	0.000000	120.000000	67.000000	0.000000	-45.000000
1.560000	27.630000	78.770000	864.000000	0.000000	120.000000	67.000000	22.000000	-36.000000
1.570000	27.940000	78.590000	785.000000	0.000000	120.000000	67.000000	31.000000	-18.000000
1.580000	28.380000	78.590000	605.000000	0.000000	119.000000	66.000000	44.000000	0.000000
1.590000	28.920000	78.740000	91.000000	0.000000	119.000000	66.000000	54.000000	15.000000
1.600000	28.920000	78.740000	0.000000	1.000000	119.000000	66.000000	0.000000	0.000000
1.610000	29.900000	79.420000	0.000000	0.000000	119.000000	66.000000	98.000000	68.000000
1.620000	30.070000	79.650000	0.000000	0.000000	118.000000	65.000000	17.000000	23.000000
1.630000	30.070000	79.820000	0.000000	0.000000	116.000000	66.000000	0.000000	17.000000
1.640000	30.150000	79.980000	0.000000	0.000000	116.000000	66.000000	8.000000	16.000000
1.650000	30.150000	80.100000	0.000000	0.000000	116.000000	66.000000	0.000000	12.000000
1.660000	30.150000	80.270000	0.000000	0.000000	114.000000	66.000000	0.000000	17.000000
1.670000	30.200000	80.470000	0.000000	0.000000	114.000000	66.000000	5.000000	20.000000
1.680000	30.400000	80.690000	0.000000	0.000000	114.000000	66.000000	20.000000	22.000000
1.690000	30.710000	80.890000	0.000000	0.000000	114.000000	66.000000	31.000000	20.000000
1.700000	30.710000	80.890000	346.000000	1.000000	114.000000	66.000000	0.000000	0.000000
1.710000	31.440000	81.170000	490.000000	0.000000	114.000000	66.000000	73.000000	28.000000
1.720000	31.700000	81.270000	614.000000	0.000000	116.000000	66.000000	26.000000	10.000000
1.730000	32.130000	81.340000	676.000000	0.000000	117.000000	67.000000	43.000000	7.000000
1.740000	32.470000	81.340000	728.000000	0.000000	119.000000	66.000000	34.000000	0.000000
1.750000	32.630000	81.270000	776.000000	0.000000	119.000000	66.000000	16.000000	-7.000000
1.760000	32.630000	81.160000	799.000000	0.000000	121.000000	66.000000	0.000000	-11.000000
1.770000	32.550000	80.860000	817.000000	0.000000	121.000000	66.000000	-8.000000	-30.000000
1.780000	32.190000	80.440000	858.000000	0.000000	121.000000	66.000000	-36.000000	-42.000000
1.790000	31.670000	79.970000	909.000000	0.000000	121.000000	66.000000	-52.000000	-47.000000
1.800000	31.230000	79.540000	936.000000	0.000000	121.000000	66.000000	-44.000000	-43.000000
1.810000	31.170000	79.150000	934.000000	0.000000	121.000000	66.000000	-6.000000	-39.000000
1.820000	31.360000	78.880000	973.000000	0.000000	121.000000	66.000000	19.000000	-27.000000
1.830000	31.690000	78.710000	971.000000	0.000000	121.000000	66.000000	33.000000	-17.000000
1.840000	32.210000	78.570000	950.000000	0.000000	121.000000	66.000000	52.000000	-14.000000
1.850000	32.850000	78.660000	891.000000	0.000000	121.000000	66.000000	64.000000	9.000000
1.860000	33.610000	78.900000	734.000000	0.000000	121.000000	66.000000	76.000000	24.000000
1.870000	34.230000	79.050000	256.000000	0.000000	123.000000	65.000000	62.000000	15.000000
1.880000	34.230000	79.050000	0.000000	1.000000	123.000000	65.000000	0.000000	0.000000
1.890000	34.100000	79.200000	0.000000	0.000000	124.000000	66.000000	-13.000000	15.000000
1.900000	33.230000	79.080000	0.000000	0.000000	124.000000	66.000000	-87.000000	-12.000000
1.910000	32.020000	78.810000	0.000000	0.000000	124.000000	66.000000	-121.000000	-27.000000
1.920000	30.580000	78.540000	0.000000	0.000000	123.000000	65.000000	-144.000000	-27.000000
1.930000	28.140000	78.080000	0.000000	0.000000	123.000000	65.000000	-244.000000	-46.000000
1.940000	26.210000	77.490000	0.000000	0.000000	125.000000	65.000000	-193.000000	-59.000000
1.950000	24.610000	76.870000	0.000000	0.000000	124.000000	64.000000	-160.000000	-62.000000
1.960000	23.860000	76.250000	0.000000	0.000000	125.000000	64.000000	-75.000000	-62.000000
1.970000	23.310000	75.680000	0.000000	0.000000	125.000000	64.000000	-55.000000	-57.000000
1.980000	22.890000	75.140000	0.000000	0.000000	125.000000	64.000000	-42.000000	-54.000000
1.990000	22.520000	74.570000	0.000000	0.000000	125.000000	64.000000	-37.000000	-57.000000
2.000000	22.090000	74.070000	0.000000	0.000000	125.000000	64.000000	-43.000000	-50.000000
2.010000	21.530000	73.620000	0.000000	0.000000	124.000000	64.000000	-56.000000	-45.000000
2.020000	20.890000	73.210000	0.000000	0.000000	122.000000	65.000000	-64.000000	-41.000000
2.030000	20.260000	72.940000	0.000000	0.000000	120.000000	65.000000	-63.000000	-27.000000
2.040000	19.830000	72.760000	0.000000	0.000000	117.000000	65.000000	-43.000000	-18.000000
2.050000	19.530000	72.690000	0.000000	0.000000	114.000000	64.000000	-30.000000	-7.000000
2.060000	19.530000	72.690000	387.000000	1.000000	112.000000	64.000000	0.000000	0.000000
2.070000	19.720000	73.090000	559.000000	0.000000	112.000000	64.000000	19.000000	40.000000
2.080000	19.720000	73.560000	595.000000	0.000000	112.000000	64.000000	0.000000	47.000000
2.090000	20.220000	74.410000	658.000000	0.000000	110.000000	66.000000	50.000000	85.000000
2.100000	21.390000	75.520000	693.000000	0.000000	110.000000	66.000000	117.000000	111.000000
2.110000	23.000000	76.940000	754.000000	0.000000	111.000000	67.000000	161.000000	142.000000
2.120000	24.770000	78.800000	794.000000	0.000000	112.000000	67.000000	177.000000	186.000000
2.130000	26.270000	80.960000	818.000000	0.000000	115.000000	67.000000	150.000000	216.000000
2.140000	27.580000	82.650000	860.000000	0.000000	116.000000	68.000000	131.000000	169.000000
2.150000	28.180000	83.780000	905.000000	0.000000	119.000000	68.000000	60.000000	113.000000
2.160000	28.180000	84.540000	924.000000	0.000000	119.000000	68.000000	0.000000	76.000000
2.170000	27.770000	84.870000	945.000000	0.000000	123.000000	69.000000	-41.000000	33.000000
2.180000	27.030000	84.870000	956.000000	0.000000	123.000000	69.000000	-74.000000	0.000000
2.190000	25.980000	84.590000	983.000000	0.000000	125.000000	70.000000	-105.000000	-28.000000
2.200000	24.720000	83.920000	987.000000	0.000000	127.000000	69.000000	-126.000000	-67.000000
2.210000	24.090000	83.240000	999.000000	0.000000	127.000000	69.000000	-63.000000	-68.000000
