t	x	y	pressure	penup	azimuth	inclination	v_x	v_y
0.000000	11.970000	44.530000	241.000000	1.000000	137.000000	66.000000	0.000000	0.000000
0.010000	11.970000	44.530000	443.000000	0.000000	137.000000	66.000000	0.000000	0.000000
0.020000	11.970000	44.530000	591.000000	0.000000	137.000000	66.000000	0.000000	0.000000
0.030000	11.970000	44.530000	671.000000	0.000000	137.000000	66.000000	0.000000	0.000000
0.040000	12.500000	44.940000	700.000000	0.000000	137.000000	66.000000	53.000000	41.000000
0.050000	13.020000	45.280000	702.000000	0.000000	139.000000	67.000000	52.000000	34.000000
0.060000	13.970000	45.790000	697.000000	0.000000	139.000000	67.000000	95.000000	51.000000
0.070000	15.100000	46.250000	699.000000	0.000000	139.000000	67.000000	113.000000	46.000000
0.080000	16.340000	46.420000	697.000000	0.000000	140.000000	67.000000	124.000000	17.000000
0.090000	17.280000	46.420000	676.000000	0.000000	140.000000	67.000000	94.000000	0.000000
0.100000	17.670000	46.120000	675.000000	0.000000	140.000000	67.000000	39.000000	-30.000000
0.110000	17.670000	45.830000	690.000000	0.000000	142.000000	68.000000	0.000000	-29.000000
0.120000	17.310000	45.400000	684.000000	0.000000	142.000000	68.000000	-36.000000	-43.000000
0.130000	16.560000	44.880000	679.000000	0.000000	142.000000	68.000000	-75.000000	-52.000000
0.140000	15.560000	44.410000	641.000000	0.000000	142.000000	68.000000	-100.000000	-47.000000
0.150000	14.780000	44.060000	480.000000	0.000000	142.000000	68.000000	-78.000000	-35.000000
0.160000	14.320000	43.800000	15.000000	0.000000	142.000000	68.000000	-46.000000	-26.000000
0.170000	14.320000	43.800000	0.000000	1.000000	142.000000	68.000000	0.000000	0.000000
0.180000	14.120000	43.530000	0.000000	0.000000	142.000000	68.000000	-20.000000	-27.000000
0.190000	14.350000	43.450000	0.000000	0.000000	142.000000	68.000000	23.000000	-8.000000
0.200000	14.700000	43.390000	0.000000	0.000000	142.000000	68.000000	35.000000	-6.000000
0.210000	15.100000	43.310000	0.000000	0.000000	144.000000	67.000000	40.000000	-8.000000
0.220000	15.510000	43.230000	0.000000	0.000000	144.000000	67.000000	41.000000	-8.000000
0.230000	15.770000	43.230000	0.000000	0.000000	144.000000	67.000000	26.000000	0.000000
0.240000	15.920000	43.180000	0.000000	0.000000	144.000000	67.000000	15.000000	-5.000000
0.250000	16.050000	43.240000	0.000000	0.000000	146.000000	67.000000	13.000000	6.000000
0.260000	16.160000	43.310000	0.000000	0.000000	146.000000	67.000000	11.000000	7.000000
0.270000	16.250000	43.370000	0.000000	0.000000	146.000000	67.000000	9.000000	6.000000
0.280000	16.330000	43.450000	0.000000	0.000000	146.000000	67.000000	8.000000	8.000000
0.290000	16.330000	43.450000	34.000000	1.000000	146.000000	67.000000	0.000000	0.000000
0.300000	16.580000	43.610000	247.000000	0.000000	142.000000	68.000000	25.000000	16.000000
0.310000	16.670000	43.750000	472.000000	0.000000	142.000000	68.000000	9.000000	14.000000
0.320000	16.670000	43.810000	655.000000	0.000000	142.000000	68.000000	0.000000	6.000000
0.330000	16.670000	43.810000	796.000000	0.000000	140.000000	67.000000	0.000000	0.000000
0.340000	16.570000	43.810000	853.000000	0.000000	140.000000	67.000000	-10.000000	0.000000
0.350000	16.450000	43.750000	912.000000	0.000000	139.000000	68.000000	-12.000000	-6.000000
0.360000	16.130000	43.610000	924.000000	0.000000	137.000000	67.000000	-32.000000	-14.000000
0.370000	15.700000	43.260000	939.000000	0.000000	139.000000	68.000000	-43.000000	-35.000000
0.380000	15.190000	42.790000	917.000000	0.000000	139.000000	68.000000	-51.000000	-47.000000
0.390000	14.890000	42.480000	900.000000	0.000000	139.000000	68.000000	-30.000000	-31.000000
0.400000	14.820000	42.210000	818.000000	0.000000	140.000000	67.000000	-7.000000	-27.000000
0.410000	14.890000	41.980000	728.000000	0.000000	140.000000	67.000000	7.000000	-23.000000
0.420000	15.070000	41.870000	592.000000	0.000000	140.000000	67.000000	18.000000	-11.000000
0.430000	15.460000	41.990000	363.000000	0.000000	140.000000	67.000000	39.000000	12.000000
0.440000	16.000000	42.270000	170.000000	0.000000	140.000000	67.000000	54.000000	28.000000
0.450000	16.440000	42.650000	139.000000	0.000000	140.000000	67.000000	44.000000	38.000000
0.460000	16.790000	43.040000	149.000000	0.000000	140.000000	67.000000	35.000000	39.000000
0.470000	17.070000	43.390000	233.000000	0.000000	140.000000	67.000000	28.000000	35.000000
0.480000	17.200000	43.680000	392.000000	0.000000	140.000000	67.000000	13.000000	29.000000
0.490000	17.200000	43.740000	522.000000	0.000000	140.000000	67.000000	0.000000	6.000000
0.500000	17.020000	43.680000	617.000000	0.000000	140.000000	67.000000	-18.000000	-6.000000
0.510000	16.890000	43.500000	667.000000	0.000000	140.000000	67.000000	-13.000000	-18.000000
0.520000	16.720000	43.070000	669.000000	0.000000	140.000000	67.000000	-17.000000	-43.000000
0.530000	16.510000	42.470000	665.000000	0.000000	140.000000	67.000000	-21.000000	-60.000000
0.540000	16.560000	42.100000	591.000000	0.000000	140.000000	67.000000	5.000000	-37.000000
0.550000	16.860000	41.840000	356.000000	0.000000	140.000000	67.000000	30.000000	-26.000000
0.560000	16.860000	41.840000	0.000000	1.000000	140.000000	67.000000	0.000000	0.000000
0.570000	17.820000	41.770000	0.000000	0.000000	140.000000	67.000000	96.000000	-7.000000
0.580000	18.300000	41.960000	0.000000	0.000000	140.000000	67.000000	48.000000	19.000000
0.590000	18.650000	42.200000	0.000000	0.000000	140.000000	67.000000	35.000000	24.000000
0.600000	18.910000	42.420000	0.000000	0.000000	142.000000	68.000000	26.000000	22.000000
0.610000	19.100000	42.610000	0.000000	0.000000	142.000000	68.000000	19.000000	19.000000
0.620000	19.190000	42.730000	0.000000	0.000000	142.000000	68.000000	9.000000	12.000000
0.630000	19.190000	42.730000	281.000000	1.000000	145.000000	68.000000	0.000000	0.000000
0.640000	19.190000	42.730000	475.000000	0.000000	145.000000	68.000000	0.000000	0.000000
0.650000	19.100000	43.000000	588.000000	0.000000	145.000000	68.000000	-9.000000	27.000000
0.660000	19.100000	43.120000	664.000000	0.000000	145.000000	68.000000	0.000000	12.000000
0.670000	19.020000	43.120000	754.000000	0.000000	145.000000	68.000000	-8.000000	0.000000
0.680000	18.940000	43.120000	793.000000	0.000000	145.000000	68.000000	-8.000000	0.000000
0.690000	18.830000	43.040000	825.000000	0.000000	145.000000	68.000000	-11.000000	-8.000000
0.700000	18.510000	42.770000	861.000000	0.000000	145.000000	68.000000	-32.000000	-27.000000
0.710000	18.200000	42.350000	857.000000	0.000000	145.000000	68.000000	-31.000000	-42.000000
0.720000	18.080000	42.040000	845.000000	0.000000	145.000000	68.000000	-12.000000	-31.000000
0.730000	18.080000	41.700000	803.000000	0.000000	145.000000	68.000000	0.000000	-34.000000
0.740000	18.280000	41.500000	770.000000	0.000000	145.000000	68.000000	20.000000	-20.000000
0.750000	18.520000	41.390000	716.000000	0.000000	142.000000	68.000000	24.000000	-11.000000
0.760000	18.820000	41.390000	628.000000	0.000000	142.000000	68.000000	30.000000	0.000000
0.770000	19.110000	41.480000	535.000000	0.000000	142.000000	68.000000	29.000000	9.000000
0.780000	19.270000	41.700000	522.000000	0.000000	145.000000	68.000000	16.000000	22.000000
0.790000	19.360000	41.980000	515.000000	0.000000	145.000000	68.000000	9.000000	28.000000
0.800000	19.360000	42.250000	539.000000	0.000000	145.000000	68.000000	0.000000	27.000000
0.810000	19.210000	42.510000	586.000000	0.000000	145.000000	68.000000	-15.000000	26.000000
0.820000	19.060000	42.640000	614.000000	0.000000	145.000000	68.000000	-15.000000	13.000000
0.830000	19.000000	42.690000	630.000000	0.000000	145.000000	68.000000	-6.000000	5.000000
0.840000	19.000000	42.690000	638.000000	0.000000	145.000000	68.000000	0.000000	0.000000
0.850000	19.160000	42.690000	638.000000	0.000000	145.000000	68.000000	16.000000	0.000000
0.860000	19.460000	42.690000	624.000000	0.000000	145.000000	68.000000	30.000000	0.000000
0.870000	19.920000	42.820000	614.000000	0.000000	145.000000	68.000000	46.000000	13.000000
0.880000	20.390000	42.990000	574.000000	0.000000	145.000000	68.000000	47.000000	17.000000
0.890000	20.760000	43.230000	541.000000	0.000000	145.000000	68.000000	37.000000	24.000000
0.900000	21.050000	43.530000	489.000000	0.000000	147.000000	69.000000	29.000000	30.000000
0.910000	21.250000	43.850000	441.000000	0.000000	147.000000	69.000000	20.000000	32.000000
0.920000	21.350000	44.280000	435.000000	0.000000	147.000000	69.000000	10.000000	43.000000
0.930000	21.350000	44.780000	443.000000	0.000000	149.000000	69.000000	0.000000	50.000000
0.940000	21.410000	45.400000	505.000000	0.000000	149.000000	69.000000	6.000000	62.000000
0.950000	21.350000	45.990000	613.000000	0.000000	149.000000	69.000000	-6.000000	59.000000
0.960000	21.230000	46.190000	696.000000	0.000000	149.000000	69.000000	-12.000000	20.000000
0.970000	21.080000	46.130000	751.000000	0.000000	149.000000	69.000000	-15.000000	-6.000000
0.980000	20.830000	45.730000	793.000000	0.000000	149.000000	69.000000	-25.000000	-40.000000
0.990000	20.500000	44.940000	824.000000	0.000000	149.000000	69.000000	-33.000000	-79.000000
1.000000	20.040000	43.890000	854.000000	0.000000	149.000000	69.000000	-46.000000	-105.000000
1.010000	19.600000	42.690000	860.000000	0.000000	149.000000	69.000000	-44.000000	-120.000000
1.020000	19.450000	41.910000	825.000000	0.000000	149.000000	69.000000	-15.000000	-78.000000
1.030000	19.450000	41.410000	728.000000	0.000000	149.000000	69.000000	0.000000	-50.000000
1.040000	19.740000	41.180000	496.000000	0.000000	149.000000	69.000000	29.000000	-23.000000
1.050000	20.190000	41.240000	6.000000	1.000000	149.000000	69.000000	0.000000	0.000000
1.060000	20.190000	41.240000	0.000000	0.000000	149.000000	69.000000	0.000000	0.000000
1.070000	21.240000	41.870000	0.000000	0.000000	147.000000	69.000000	105.000000	63.000000
1.080000	21.640000	42.250000	0.000000	0.000000	147.000000	69.000000	40.000000	38.000000
1.090000	22.000000	42.630000	0.000000	0.000000	147.000000	69.000000	36.000000	38.000000
1.100000	22.220000	42.830000	0.000000	0.000000	147.000000	69.000000	22.000000	20.000000
1.110000	22.220000	42.830000	299.000000	1.000000	147.000000	69.000000	0.000000	0.000000
1.120000	22.220000	42.830000	564.000000	0.000000	147.000000	69.000000	0.000000	0.000000
1.130000	22.220000	42.830000	730.000000	0.000000	149.000000	69.000000	0.000000	0.000000
1.140000	22.220000	42.830000	827.000000	0.000000	149.000000	69.000000	0.000000	0.000000
1.150000	22.220000	42.830000	896.000000	0.000000	149.000000	69.000000	0.000000	0.000000
1.160000	21.960000	42.980000	949.000000	0.000000	152.000000	70.000000	-26.000000	15.000000
1.170000	21.830000	42.980000	995.000000	0.000000	152.000000	70.000000	-13.000000	0.000000
1.180000	21.680000	42.850000	997.000000	0.000000	154.000000	70.000000	-15.000000	-13.000000
1.190000	21.360000	42.600000	1018.000000	0.000000	154.000000	70.000000	-32.000000	-25.000000
1.200000	21.100000	42.260000	1003.000000	0.000000	154.000000	70.000000	-26.000000	-34.000000
1.210000	20.930000	42.000000	974.000000	0.000000	154.000000	70.000000	-17.000000	-26.000000
1.220000	20.930000	41.800000	909.000000	0.000000	154.000000	70.000000	0.000000	-20.000000
1.230000	21.060000	41.650000	845.000000	0.000000	152.000000	70.000000	13.000000	-15.000000
1.240000	21.230000	41.520000	757.000000	0.000000	152.000000	70.000000	17.000000	-13.000000
1.250000	21.430000	41.520000	696.000000	0.000000	152.000000	70.000000	20.000000	0.000000
1.260000	21.670000	41.650000	667.000000	0.000000	149.000000	69.000000	24.000000	13.000000
1.270000	21.910000	41.830000	662.000000	0.000000	149.000000	69.000000	24.000000	18.000000
1.280000	22.070000	42.020000	673.000000	0.000000	149.000000	69.000000	16.000000	19.000000
1.290000	22.180000	42.210000	719.000000	0.000000	152.000000	70.000000	11.000000	19.000000
1.300000	22.180000	42.260000	757.000000	0.000000	152.000000	70.000000	0.000000	5.000000
1.310000	22.180000	42.260000	768.000000	0.000000	152.000000	70.000000	0.000000	0.000000
1.320000	22.180000	42.200000	777.000000	0.000000	152.000000	70.000000	0.000000	-6.000000
1.330000	22.180000	42.090000	773.000000	0.000000	154.000000	70.000000	0.000000	-11.000000
1.340000	22.230000	41.940000	728.000000	0.000000	154.000000	70.000000	5.000000	-15.000000
1.350000	22.330000	41.800000	546.000000	0.000000	154.000000	70.000000	10.000000	-14.000000
1.360000	22.550000	41.670000	1.000000	1.000000	154.000000	70.000000	0.000000	0.000000
1.370000	22.550000	41.670000	0.000000	0.000000	154.000000	70.000000	0.000000	0.000000
1.380000	23.210000	41.540000	0.000000	0.000000	152.000000	70.000000	66.000000	-13.000000
1.390000	23.540000	41.680000	0.000000	0.000000	152.000000	70.000000	33.000000	14.000000
1.400000	24.320000	41.790000	0.000000	0.000000	149.000000	69.000000	78.000000	11.000000
1.410000	25.400000	41.900000	0.000000	0.000000	149.000000	69.000000	108.000000	11.000000
1.420000	26.500000	42.090000	0.000000	0.000000	147.000000	69.000000	110.000000	19.000000
1.430000	27.120000	42.330000	0.000000	0.000000	147.000000	69.000000	62.000000	24.000000
1.440000	27.430000	42.540000	0.000000	0.000000	145.000000	68.000000	31.000000	21.000000
1.450000	27.160000	42.750000	0.000000	0.000000	145.000000	68.000000	-27.000000	21.000000
1.460000	26.720000	42.920000	0.000000	0.000000	146.000000	67.000000	-44.000000	17.000000
1.470000	26.170000	42.990000	0.000000	0.000000	146.000000	67.000000	-55.000000	7.000000
1.480000	25.840000	42.990000	0.000000	0.000000	146.000000	67.000000	-33.000000	0.000000
1.490000	25.700000	43.060000	0.000000	0.000000	146.000000	67.000000	-14.000000	7.000000
1.500000	25.700000	43.110000	0.000000	0.000000	148.000000	68.000000	0.000000	5.000000
1.510000	25.870000	43.170000	0.000000	0.000000	150.000000	67.000000	17.000000	6.000000
1.520000	26.200000	43.370000	0.000000	0.000000	152.000000	68.000000	33.000000	20.000000
1.530000	26.640000	43.540000	0.000000	0.000000	152.000000	68.000000	44.000000	17.000000
1.540000	27.000000	43.690000	0.000000	0.000000	152.000000	68.000000	36.000000	15.000000
1.550000	27.280000	43.840000	0.000000	0.000000	152.000000	68.000000	28.000000	15.000000
1.560000	27.510000	43.990000	0.000000	0.000000	151.000000	68.000000	23.000000	15.000000
1.570000	27.510000	43.990000	324.000000	1.000000	151.000000	68.000000	0.000000	0.000000
1.580000	27.630000	44.250000	530.000000	0.000000	148.000000	68.000000	12.000000	26.000000
1.590000	27.580000	44.400000	694.000000	0.000000	148.000000	68.000000	-5.000000	15.000000
1.600000	27.580000	44.400000	796.000000	0.000000	146.000000	67.000000	0.000000	0.000000
1.610000	27.580000	44.480000	861.000000	0.000000	146.000000	67.000000	0.000000	8.000000
1.620000	27.450000	44.530000	921.000000	0.000000	144.000000	67.000000	-13.000000	5.000000
1.630000	27.290000	44.590000	983.000000	0.000000	142.000000	68.000000	-16.000000	6.000000
1.640000	27.160000	44.590000	1015.000000	0.000000	142.000000	68.000000	-13.000000	0.000000
1.650000	26.900000	44.590000	1023.000000	0.000000	145.000000	68.000000	-26.000000	0.000000
1.660000	26.540000	44.500000	1023.000000	0.000000	145.000000	68.000000	-36.000000	-9.000000
1.670000	26.230000	44.350000	1023.000000	0.000000	145.000000	68.000000	-31.000000	-15.000000
1.680000	25.930000	43.980000	1023.000000	0.000000	147.000000	69.000000	-30.000000	-37.000000
1.690000	25.670000	43.480000	1023.000000	0.000000	149.000000	69.000000	-26.000000	-50.000000
1.700000	25.460000	42.870000	1023.000000	0.000000	149.000000	69.000000	-21.000000	-61.000000
1.710000	25.460000	42.340000	1023.000000	0.000000	152.000000	70.000000	0.000000	-53.000000
1.720000	25.630000	41.970000	968.000000	0.000000	152.000000	70.000000	17.000000	-37.000000
1.730000	25.960000	41.670000	891.000000	0.000000	155.000000	69.000000	33.000000	-30.000000
1.740000	26.300000	41.520000	836.000000	0.000000	154.000000	70.000000	34.000000	-15.000000
1.750000	26.600000	41.520000	818.000000	0.000000	154.000000	70.000000	30.000000	0.000000
1.760000	26.860000	41.590000	815.000000	0.000000	152.000000	70.000000	26.000000	7.000000
1.770000	26.940000	41.660000	832.000000	0.000000	152.000000	70.000000	8.000000	7.000000
1.780000	26.940000	41.490000	860.000000	0.000000	152.000000	70.000000	0.000000	-17.000000
1.790000	26.770000	41.170000	884.000000	0.000000	149.000000	69.000000	-17.000000	-32.000000
1.800000	26.330000	40.380000	894.000000	0.000000	149.000000	69.000000	-44.000000	-79.000000
1.810000	25.720000	39.410000	902.000000	0.000000	148.000000	70.000000	-61.000000	-97.000000
1.820000	24.990000	38.330000	906.000000	0.000000	148.000000	70.000000	-73.000000	-108.000000
1.830000	24.420000	37.560000	906.000000	0.000000	146.000000	71.000000	-57.000000	-77.000000
1.840000	24.200000	37.190000	796.000000	0.000000	146.000000	71.000000	-22.000000	-37.000000
1.850000	24.200000	37.090000	306.000000	0.000000	144.000000	72.000000	0.000000	-10.000000
1.860000	24.200000	37.090000	0.000000	1.000000	144.000000	72.000000	0.000000	0.000000
1.870000	24.830000	38.200000	0.000000	0.000000	142.000000	72.000000	63.000000	111.000000
1.880000	25.370000	39.140000	0.000000	0.000000	142.000000	72.000000	54.000000	94.000000
1.890000	25.870000	39.880000	0.000000	0.000000	142.000000	72.000000	50.000000	74.000000
1.900000	26.380000	40.610000	0.000000	0.000000	140.000000	72.000000	51.000000	73.000000
1.910000	26.830000	41.160000	0.000000	0.000000	140.000000	72.000000	45.000000	55.000000
1.920000	27.230000	41.610000	0.000000	0.000000	142.000000	71.000000	40.000000	45.000000
1.930000	27.460000	41.820000	0.000000	0.000000	143.000000	70.000000	23.000000	21.000000
1.940000	27.630000	41.990000	0.000000	0.000000	141.000000	70.000000	17.000000	17.000000
1.950000	27.760000	42.090000	0.000000	0.000000	143.000000	69.000000	13.000000	10.000000
1.960000	27.930000	42.160000	0.000000	0.000000	145.000000	70.000000	17.000000	7.000000
1.970000	28.080000	42.220000	0.000000	0.000000	145.000000	70.000000	15.000000	6.000000
1.980000	28.080000	42.220000	103.000000	1.000000	147.000000	69.000000	0.000000	0.000000
1.990000	28.390000	42.410000	244.000000	0.000000	147.000000	69.000000	31.000000	19.000000
2.000000	28.530000	42.530000	389.000000	0.000000	145.000000	68.000000	14.000000	12.000000
2.010000	28.630000	42.640000	541.000000	0.000000	145.000000	68.000000	10.000000	11.000000
2.020000	28.690000	42.730000	664.000000	0.000000	145.000000	68.000000	6.000000	9.000000
2.030000	28.760000	42.810000	784.000000	0.000000	145.000000	68.000000	7.000000	8.000000
2.040000	28.760000	42.860000	870.000000	0.000000	145.000000	68.000000	0.000000	5.000000
2.050000	28.760000	42.860000	944.000000	0.000000	145.000000	68.000000	0.000000	0.000000
2.060000	28.760000	42.860000	1002.000000	0.000000	145.000000	68.000000	0.000000	0.000000
2.070000	28.690000	42.860000	1023.000000	0.000000	145.000000	68.000000	-7.000000	0.000000
2.080000	28.610000	42.790000	1023.000000	0.000000	145.000000	68.000000	-8.000000	-7.000000
2.090000	28.490000	42.670000	1023.000000	0.000000	145.000000	68.000000	-12.000000	-12.000000
2.100000	28.320000	42.540000	1023.000000	0.000000	145.000000	68.000000	-17.000000	-13.000000
2.110000	28.120000	42.410000	1023.000000	0.000000	145.000000	68.000000	-20.000000	-13.000000
2.120000	27.840000	42.040000	1023.000000	0.000000	145.000000	68.000000	-28.000000	-37.000000
2.130000	27.740000	41.760000	1023.000000	0.000000	145.000000	68.000000	-10.000000	-28.000000
2.140000	27.740000	41.530000	982.000000	0.000000	145.000000	68.000000	0.000000	-23.000000
2.150000	27.850000	41.340000	918.000000	0.000000	145.000000	68.000000	11.000000	-19.000000
2.160000	27.970000	41.250000	854.000000	0.000000	145.000000	68.000000	12.000000	-9.000000
2.170000	28.180000	41.250000	823.000000	0.000000	145.000000	68.000000	21.000000	0.000000
2.180000	28.420000	41.310000	782.000000	0.000000	145.000000	68.000000	24.000000	6.000000
2.190000	28.630000	41.500000	768.000000	0.000000	145.000000	68.000000	21.000000	19.000000
2.200000	28.810000	41.760000	768.000000	0.000000	145.000000	68.000000	18.000000	26.000000
2.210000	28.980000	42.050000	796.000000	0.000000	145.000000	68.000000	17.000000	29.000000
