t	x	y	pressure	penup	azimuth	inclination	v_x	v_y
0.000000	52.480000	31.240000	67.000000	1.000000	123.000000	49.000000	0.000000	0.000000
0.010000	52.480000	31.240000	112.000000	0.000000	123.000000	49.000000	0.000000	0.000000
0.020000	52.220000	31.350000	170.000000	0.000000	123.000000	49.000000	-26.000000	11.000000
0.030000	52.220000	31.470000	203.000000	0.000000	123.000000	49.000000	0.000000	12.000000
0.040000	52.220000	31.790000	244.000000	0.000000	123.000000	49.000000	0.000000	32.000000
0.050000	52.390000	32.240000	270.000000	0.000000	123.000000	49.000000	17.000000	45.000000
0.060000	52.650000	32.790000	304.000000	0.000000	123.000000	49.000000	26.000000	55.000000
0.070000	53.000000	33.330000	353.000000	0.000000	123.000000	49.000000	35.000000	54.000000
0.080000	53.410000	33.670000	387.000000	0.000000	122.000000	50.000000	41.000000	34.000000
0.090000	53.860000	33.890000	399.000000	0.000000	122.000000	50.000000	45.000000	22.000000
0.100000	54.310000	33.960000	405.000000	0.000000	122.000000	50.000000	45.000000	7.000000
0.110000	54.740000	33.740000	414.000000	0.000000	122.000000	50.000000	43.000000	-22.000000
0.120000	55.100000	33.330000	428.000000	0.000000	122.000000	50.000000	36.000000	-41.000000
0.130000	55.410000	32.710000	445.000000	0.000000	122.000000	50.000000	31.000000	-62.000000
0.140000	55.660000	31.890000	468.000000	0.000000	122.000000	50.000000	25.000000	-82.000000
0.150000	55.660000	30.930000	475.000000	0.000000	123.000000	51.000000	0.000000	-96.000000
0.160000	55.600000	29.790000	495.000000	0.000000	125.000000	51.000000	-6.000000	-114.000000
0.170000	55.350000	28.650000	501.000000	0.000000	125.000000	51.000000	-25.000000	-114.000000
0.180000	55.010000	27.500000	514.000000	0.000000	125.000000	51.000000	-34.000000	-115.000000
0.190000	54.600000	26.650000	518.000000	0.000000	125.000000	51.000000	-41.000000	-85.000000
0.200000	54.240000	25.990000	545.000000	0.000000	126.000000	50.000000	-36.000000	-66.000000
0.210000	53.990000	25.840000	597.000000	0.000000	126.000000	50.000000	-25.000000	-15.000000
0.220000	53.820000	25.940000	622.000000	0.000000	126.000000	50.000000	-17.000000	10.000000
0.230000	53.530000	26.210000	630.000000	0.000000	126.000000	50.000000	-29.000000	27.000000
0.240000	53.280000	27.080000	633.000000	0.000000	126.000000	50.000000	-25.000000	87.000000
0.250000	53.180000	28.160000	630.000000	0.000000	126.000000	50.000000	-10.000000	108.000000
0.260000	53.180000	29.370000	614.000000	0.000000	125.000000	51.000000	0.000000	121.000000
0.270000	53.390000	30.060000	553.000000	0.000000	125.000000	51.000000	21.000000	69.000000
0.280000	53.680000	30.470000	311.000000	0.000000	125.000000	51.000000	29.000000	41.000000
0.290000	53.680000	30.470000	0.000000	1.000000	125.000000	51.000000	0.000000	0.000000
0.300000	54.430000	30.700000	0.000000	0.000000	125.000000	51.000000	75.000000	23.000000
0.310000	54.770000	30.700000	0.000000	0.000000	125.000000	51.000000	34.000000	0.000000
0.320000	55.140000	30.700000	0.000000	0.000000	125.000000	51.000000	37.000000	0.000000
0.330000	55.340000	30.650000	0.000000	0.000000	124.000000	50.000000	20.000000	-5.000000
0.340000	55.420000	30.650000	0.000000	0.000000	124.000000	50.000000	8.000000	0.000000
0.350000	55.350000	30.740000	0.000000	0.000000	125.000000	51.000000	-7.000000	9.000000
0.360000	55.650000	30.800000	0.000000	0.000000	125.000000	51.000000	30.000000	6.000000
0.370000	56.200000	30.890000	0.000000	0.000000	125.000000	51.000000	55.000000	9.000000
0.380000	56.850000	31.010000	0.000000	0.000000	126.000000	51.000000	65.000000	12.000000
0.390000	57.340000	31.080000	0.000000	0.000000	125.000000	51.000000	49.000000	7.000000
0.400000	57.720000	31.150000	0.000000	0.000000	125.000000	50.000000	38.000000	7.000000
0.410000	58.350000	31.200000	0.000000	0.000000	123.000000	48.000000	63.000000	5.000000
0.420000	58.760000	31.200000	0.000000	0.000000	122.000000	46.000000	41.000000	0.000000
0.430000	59.020000	31.110000	0.000000	0.000000	121.000000	46.000000	26.000000	-9.000000
0.440000	59.110000	31.000000	0.000000	0.000000	120.000000	44.000000	9.000000	-11.000000
0.450000	59.040000	30.890000	0.000000	0.000000	119.000000	42.000000	-7.000000	-11.000000
0.460000	58.870000	30.780000	0.000000	0.000000	118.000000	41.000000	-17.000000	-11.000000
0.470000	58.660000	30.710000	0.000000	0.000000	117.000000	41.000000	-21.000000	-7.000000
0.480000	58.390000	30.610000	0.000000	0.000000	117.000000	41.000000	-27.000000	-10.000000
0.490000	58.090000	30.500000	0.000000	0.000000	119.000000	42.000000	-30.000000	-11.000000
0.500000	57.810000	30.400000	0.000000	0.000000	119.000000	43.000000	-28.000000	-10.000000
0.510000	57.550000	30.310000	0.000000	0.000000	120.000000	45.000000	-26.000000	-9.000000
0.520000	57.300000	30.230000	0.000000	0.000000	121.000000	46.000000	-25.000000	-8.000000
0.530000	57.010000	30.150000	0.000000	0.000000	122.000000	47.000000	-29.000000	-8.000000
0.540000	56.780000	30.150000	0.000000	0.000000	123.000000	48.000000	-23.000000	0.000000
0.550000	56.630000	30.150000	0.000000	0.000000	124.000000	49.000000	-15.000000	0.000000
0.560000	56.710000	30.150000	0.000000	0.000000	125.000000	50.000000	8.000000	0.000000
0.570000	56.610000	30.150000	0.000000	0.000000	126.000000	50.000000	-10.000000	0.000000
0.580000	56.390000	30.210000	0.000000	0.000000	127.000000	51.000000	-22.000000	6.000000
0.590000	56.390000	30.210000	0.000000	0.000000	127.000000	51.000000	0.000000	0.000000
0.600000	56.340000	30.290000	0.000000	0.000000	128.000000	52.000000	-5.000000	8.000000
0.610000	56.340000	30.290000	0.000000	0.000000	128.000000	52.000000	0.000000	0.000000
0.620000	56.340000	30.370000	0.000000	0.000000	128.000000	52.000000	0.000000	8.000000
0.630000	56.340000	30.370000	0.000000	0.000000	128.000000	52.000000	0.000000	0.000000
0.640000	56.390000	30.480000	0.000000	0.000000	128.000000	52.000000	5.000000	11.000000
0.650000	56.460000	30.590000	0.000000	0.000000	128.000000	52.000000	7.000000	11.000000
0.660000	56.540000	30.720000	0.000000	0.000000	128.000000	52.000000	8.000000	13.000000
0.670000	56.640000	30.820000	0.000000	0.000000	128.000000	52.000000	10.000000	10.000000
0.680000	56.730000	30.930000	0.000000	0.000000	129.000000	51.000000	9.000000	11.000000
0.690000	56.820000	31.030000	0.000000	0.000000	129.000000	51.000000	9.000000	10.000000
0.700000	56.890000	31.090000	0.000000	0.000000	129.000000	51.000000	7.000000	6.000000
0.710000	56.940000	31.090000	0.000000	0.000000	129.000000	51.000000	5.000000	0.000000
0.720000	56.940000	31.090000	0.000000	0.000000	129.000000	51.000000	0.000000	0.000000
0.730000	56.940000	31.090000	0.000000	0.000000	129.000000	51.000000	0.000000	0.000000
0.740000	56.890000	31.090000	0.000000	0.000000	129.000000	51.000000	-5.000000	0.000000
0.750000	56.810000	31.040000	0.000000	0.000000	129.000000	51.000000	-8.000000	-5.000000
0.760000	56.740000	30.980000	0.000000	0.000000	129.000000	51.000000	-7.000000	-6.000000
0.770000	56.660000	30.920000	0.000000	0.000000	129.000000	51.000000	-8.000000	-6.000000
0.780000	56.570000	30.870000	0.000000	0.000000	129.000000	51.000000	-9.000000	-5.000000
0.790000	56.490000	30.780000	0.000000	0.000000	129.000000	51.000000	-8.000000	-9.000000
0.800000	56.430000	30.710000	0.000000	0.000000	129.000000	51.000000	-6.000000	-7.000000
0.810000	56.380000	30.650000	0.000000	0.000000	129.000000	51.000000	-5.000000	-6.000000
0.820000	56.380000	30.590000	0.000000	0.000000	129.000000	51.000000	0.000000	-6.000000
0.830000	56.330000	30.590000	0.000000	0.000000	128.000000	50.000000	-5.000000	0.000000
0.840000	56.330000	30.590000	0.000000	0.000000	128.000000	50.000000	0.000000	0.000000
0.850000	56.400000	30.670000	0.000000	0.000000	128.000000	50.000000	7.000000	8.000000
0.860000	56.450000	30.750000	0.000000	0.000000	128.000000	50.000000	5.000000	8.000000
0.870000	56.520000	30.830000	0.000000	0.000000	128.000000	50.000000	7.000000	8.000000
0.880000	56.590000	30.940000	0.000000	0.000000	128.000000	50.000000	7.000000	11.000000
0.890000	56.690000	31.090000	0.000000	0.000000	128.000000	50.000000	10.000000	15.000000
0.900000	56.810000	31.250000	0.000000	0.000000	128.000000	50.000000	12.000000	16.000000
0.910000	56.940000	31.380000	0.000000	0.000000	129.000000	51.000000	13.000000	13.000000
0.920000	57.130000	31.500000	0.000000	0.000000	129.000000	51.000000	19.000000	12.000000
0.930000	57.130000	31.620000	0.000000	0.000000	129.000000	51.000000	0.000000	12.000000
0.940000	57.130000	31.620000	108.000000	1.000000	129.000000	51.000000	0.000000	0.000000
0.950000	57.130000	31.620000	182.000000	0.000000	129.000000	51.000000	0.000000	0.000000
0.960000	56.760000	31.770000	222.000000	0.000000	129.000000	51.000000	-37.000000	15.000000
0.970000	56.590000	31.670000	245.000000	0.000000	129.000000	51.000000	-17.000000	-10.000000
0.980000	56.370000	31.440000	260.000000	0.000000	129.000000	51.000000	-22.000000	-23.000000
0.990000	56.120000	31.130000	274.000000	0.000000	129.000000	51.000000	-25.000000	-31.000000
1.000000	55.860000	30.560000	314.000000	0.000000	128.000000	50.000000	-26.000000	-57.000000
1.010000	55.570000	29.830000	332.000000	0.000000	127.000000	51.000000	-29.000000	-73.000000
1.020000	55.460000	29.120000	340.000000	0.000000	127.000000	51.000000	-11.000000	-71.000000
1.030000	55.460000	28.480000	337.000000	0.000000	127.000000	51.000000	0.000000	-64.000000
1.040000	55.660000	27.900000	319.000000	0.000000	125.000000	51.000000	20.000000	-58.000000
1.050000	55.880000	27.530000	316.000000	0.000000	125.000000	51.000000	22.000000	-37.000000
1.060000	56.150000	27.400000	297.000000	0.000000	125.000000	51.000000	27.000000	-13.000000
1.070000	56.430000	27.400000	311.000000	0.000000	125.000000	51.000000	28.000000	0.000000
1.080000	56.720000	27.710000	324.000000	0.000000	125.000000	51.000000	29.000000	31.000000
1.090000	57.030000	28.230000	343.000000	0.000000	125.000000	51.000000	31.000000	52.000000
1.100000	57.340000	28.900000	389.000000	0.000000	125.000000	51.000000	31.000000	67.000000
1.110000	57.680000	29.570000	396.000000	0.000000	125.000000	51.000000	34.000000	67.000000
1.120000	57.860000	30.300000	418.000000	0.000000	125.000000	51.000000	18.000000	73.000000
1.130000	57.930000	31.060000	418.000000	0.000000	125.000000	51.000000	7.000000	76.000000
1.140000	57.930000	31.640000	435.000000	0.000000	125.000000	51.000000	0.000000	58.000000
1.150000	57.930000	31.960000	460.000000	0.000000	124.000000	50.000000	0.000000	32.000000
1.160000	57.930000	32.110000	493.000000	0.000000	124.000000	50.000000	0.000000	15.000000
1.170000	57.850000	32.060000	501.000000	0.000000	124.000000	49.000000	-8.000000	-5.000000
1.180000	57.770000	31.990000	504.000000	0.000000	124.000000	49.000000	-8.000000	-7.000000
1.190000	57.770000	31.880000	504.000000	0.000000	124.000000	49.000000	0.000000	-11.000000
1.200000	57.680000	31.570000	504.000000	0.000000	123.000000	48.000000	-9.000000	-31.000000
1.210000	57.680000	31.140000	504.000000	0.000000	123.000000	48.000000	0.000000	-43.000000
1.220000	57.680000	30.680000	494.000000	0.000000	123.000000	48.000000	0.000000	-46.000000
1.230000	57.830000	30.220000	495.000000	0.000000	123.000000	48.000000	15.000000	-46.000000
1.240000	58.000000	29.830000	480.000000	0.000000	123.000000	48.000000	17.000000	-39.000000
1.250000	58.210000	29.490000	473.000000	0.000000	123.000000	48.000000	21.000000	-34.000000
1.260000	58.440000	29.410000	445.000000	0.000000	123.000000	48.000000	23.000000	-8.000000
1.270000	58.660000	29.480000	439.000000	0.000000	122.000000	48.000000	22.000000	7.000000
1.280000	58.900000	29.650000	439.000000	0.000000	122.000000	48.000000	24.000000	17.000000
1.290000	59.150000	30.020000	440.000000	0.000000	122.000000	48.000000	25.000000	37.000000
1.300000	59.390000	30.510000	442.000000	0.000000	123.000000	49.000000	24.000000	49.000000
1.310000	59.530000	31.080000	445.000000	0.000000	123.000000	49.000000	14.000000	57.000000
1.320000	59.610000	31.570000	447.000000	0.000000	123.000000	49.000000	8.000000	49.000000
1.330000	59.610000	32.040000	445.000000	0.000000	124.000000	49.000000	0.000000	47.000000
1.340000	59.610000	32.230000	465.000000	0.000000	124.000000	49.000000	0.000000	19.000000
1.350000	59.550000	32.230000	474.000000	0.000000	124.000000	49.000000	-6.000000	0.000000
1.360000	59.500000	32.150000	464.000000	0.000000	124.000000	49.000000	-5.000000	-8.000000
1.370000	59.450000	32.010000	474.000000	0.000000	124.000000	49.000000	-5.000000	-14.000000
1.380000	59.450000	31.720000	464.000000	0.000000	124.000000	49.000000	0.000000	-29.000000
1.390000	59.450000	31.350000	464.000000	0.000000	124.000000	49.000000	0.000000	-37.000000
1.400000	59.510000	31.030000	474.000000	0.000000	124.000000	49.000000	6.000000	-32.000000
1.410000	59.630000	30.830000	466.000000	0.000000	124.000000	49.000000	12.000000	-20.000000
1.420000	59.770000	30.700000	443.000000	0.000000	124.000000	49.000000	14.000000	-13.000000
1.430000	59.950000	30.700000	439.000000	0.000000	124.000000	49.000000	18.000000	0.000000
1.440000	60.140000	30.790000	433.000000	0.000000	124.000000	49.000000	19.000000	9.000000
1.450000	60.310000	31.020000	436.000000	0.000000	124.000000	49.000000	17.000000	23.000000
1.460000	60.420000	31.280000	440.000000	0.000000	124.000000	49.000000	11.000000	26.000000
1.470000	60.500000	31.600000	440.000000	0.000000	124.000000	49.000000	8.000000	32.000000
1.480000	60.500000	31.960000	442.000000	0.000000	124.000000	49.000000	0.000000	36.000000
1.490000	60.500000	32.200000	456.000000	0.000000	124.000000	49.000000	0.000000	24.000000
1.500000	60.500000	32.260000	473.000000	0.000000	124.000000	49.000000	0.000000	6.000000
1.510000	60.500000	32.210000	464.000000	0.000000	124.000000	49.000000	0.000000	-5.000000
1.520000	60.430000	32.020000	464.000000	0.000000	124.000000	49.000000	-7.000000	-19.000000
1.530000	60.430000	31.780000	474.000000	0.000000	124.000000	49.000000	0.000000	-24.000000
1.540000	60.350000	31.440000	464.000000	0.000000	124.000000	49.000000	-8.000000	-34.000000
1.550000	60.350000	31.080000	465.000000	0.000000	124.000000	49.000000	0.000000	-36.000000
1.560000	60.350000	30.730000	469.000000	0.000000	124.000000	49.000000	0.000000	-35.000000
1.570000	60.500000	30.540000	465.000000	0.000000	124.000000	49.000000	15.000000	-19.000000
1.580000	60.650000	30.430000	461.000000	0.000000	124.000000	49.000000	15.000000	-11.000000
1.590000	60.820000	30.500000	461.000000	0.000000	124.000000	49.000000	17.000000	7.000000
1.600000	61.040000	30.840000	468.000000	0.000000	125.000000	50.000000	22.000000	34.000000
1.610000	61.300000	31.350000	468.000000	0.000000	125.000000	50.000000	26.000000	51.000000
1.620000	61.560000	32.030000	491.000000	0.000000	124.000000	50.000000	26.000000	68.000000
1.630000	61.770000	32.990000	502.000000	0.000000	124.000000	50.000000	21.000000	96.000000
1.640000	61.940000	34.130000	515.000000	0.000000	124.000000	50.000000	17.000000	114.000000
1.650000	61.990000	35.300000	520.000000	0.000000	124.000000	50.000000	5.000000	117.000000
1.660000	61.990000	36.460000	527.000000	0.000000	125.000000	50.000000	0.000000	116.000000
1.670000	61.990000	37.150000	553.000000	0.000000	125.000000	50.000000	0.000000	69.000000
1.680000	61.840000	37.520000	588.000000	0.000000	125.000000	50.000000	-15.000000	37.000000
1.690000	61.740000	37.630000	586.000000	0.000000	126.000000	49.000000	-10.000000	11.000000
1.700000	61.640000	37.390000	577.000000	0.000000	126.000000	49.000000	-10.000000	-24.000000
1.710000	61.510000	36.930000	570.000000	0.000000	127.000000	49.000000	-13.000000	-46.000000
1.720000	61.360000	35.970000	575.000000	0.000000	127.000000	49.000000	-15.000000	-96.000000
1.730000	61.300000	34.660000	570.000000	0.000000	128.000000	48.000000	-6.000000	-131.000000
1.740000	61.300000	33.130000	546.000000	0.000000	127.000000	49.000000	0.000000	-153.000000
1.750000	61.300000	31.640000	410.000000	0.000000	127.000000	49.000000	0.000000	-149.000000
1.760000	61.300000	31.640000	0.000000	1.000000	126.000000	49.000000	0.000000	0.000000
1.770000	61.750000	29.910000	0.000000	0.000000	126.000000	49.000000	45.000000	-173.000000
1.780000	62.020000	29.640000	0.000000	0.000000	125.000000	50.000000	27.000000	-27.000000
1.790000	62.020000	29.760000	0.000000	0.000000	125.000000	50.000000	0.000000	12.000000
1.800000	61.960000	30.140000	0.000000	0.000000	124.000000	50.000000	-6.000000	38.000000
1.810000	61.790000	30.540000	0.000000	0.000000	124.000000	50.000000	-17.000000	40.000000
1.820000	61.790000	30.820000	0.000000	0.000000	124.000000	50.000000	0.000000	28.000000
1.830000	61.910000	31.370000	0.000000	0.000000	123.000000	49.000000	12.000000	55.000000
1.840000	62.150000	32.140000	0.000000	0.000000	123.000000	49.000000	24.000000	77.000000
1.850000	62.580000	32.390000	0.000000	0.000000	123.000000	48.000000	43.000000	25.000000
1.860000	63.030000	32.600000	0.000000	0.000000	123.000000	47.000000	45.000000	21.000000
1.870000	63.490000	32.720000	0.000000	0.000000	124.000000	47.000000	46.000000	12.000000
1.880000	64.290000	32.810000	0.000000	0.000000	125.000000	46.000000	80.000000	9.000000
1.890000	65.080000	32.890000	0.000000	0.000000	126.000000	46.000000	79.000000	8.000000
1.900000	65.850000	32.890000	0.000000	0.000000	129.000000	46.000000	77.000000	0.000000
1.910000	66.520000	32.790000	0.000000	0.000000	130.000000	47.000000	67.000000	-10.000000
1.920000	67.020000	32.660000	0.000000	0.000000	132.000000	47.000000	50.000000	-13.000000
1.930000	67.400000	32.490000	0.000000	0.000000	134.000000	48.000000	38.000000	-17.000000
1.940000	67.580000	32.300000	0.000000	0.000000	135.000000	49.000000	18.000000	-19.000000
1.950000	67.700000	33.100000	0.000000	0.000000	135.000000	50.000000	12.000000	80.000000
1.960000	67.770000	33.520000	0.000000	0.000000	136.000000	50.000000	7.000000	42.000000
1.970000	67.620000	33.680000	0.000000	0.000000	137.000000	51.000000	-15.000000	16.000000
1.980000	67.420000	33.790000	0.000000	0.000000	136.000000	51.000000	-20.000000	11.000000
1.990000	67.180000	33.840000	0.000000	0.000000	136.000000	51.000000	-24.000000	5.000000
2.000000	66.910000	33.840000	0.000000	0.000000	136.000000	51.000000	-27.000000	0.000000
2.010000	66.680000	33.920000	0.000000	0.000000	136.000000	51.000000	-23.000000	8.000000
2.020000	66.520000	33.980000	0.000000	0.000000	136.000000	51.000000	-16.000000	6.000000
2.030000	66.390000	33.980000	0.000000	0.000000	134.000000	51.000000	-13.000000	0.000000
2.040000	66.330000	34.030000	0.000000	0.000000	133.000000	51.000000	-6.000000	5.000000
2.050000	66.330000	34.030000	0.000000	0.000000	133.000000	51.000000	0.000000	0.000000
2.060000	66.330000	34.030000	0.000000	0.000000	132.000000	51.000000	0.000000	0.000000
2.070000	66.380000	34.030000	0.000000	0.000000	130.000000	51.000000	5.000000	0.000000
2.080000	66.380000	34.030000	0.000000	0.000000	130.000000	51.000000	0.000000	0.000000
2.090000	66.380000	33.920000	0.000000	0.000000	130.000000	51.000000	0.000000	-11.000000
2.100000	66.380000	33.820000	0.000000	0.000000	132.000000	51.000000	0.000000	-10.000000
2.110000	66.290000	33.680000	0.000000	0.000000	132.000000	51.000000	-9.000000	-14.000000
2.120000	66.200000	33.490000	0.000000	0.000000	132.000000	51.000000	-9.000000	-19.000000
2.130000	66.110000	33.300000	0.000000	0.000000	132.000000	51.000000	-9.000000	-19.000000
2.140000	66.020000	33.150000	0.000000	0.000000	132.000000	51.000000	-9.000000	-15.000000
2.150000	65.950000	33.020000	0.000000	0.000000	132.000000	51.000000	-7.000000	-13.000000
2.160000	65.900000	32.890000	0.000000	0.000000	132.000000	51.000000	-5.000000	-13.000000
2.170000	65.850000	32.780000	0.000000	0.000000	130.000000	51.000000	-5.000000	-11.000000
2.180000	65.800000	32.720000	0.000000	0.000000	130.000000	51.000000	-5.000000	-6.000000
2.190000	65.750000	32.720000	0.000000	0.000000	130.000000	51.000000	-5.000000	0.000000
2.200000	65.750000	32.630000	0.000000	0.000000	130.000000	51.000000	0.000000	-9.000000
2.210000	65.640000	32.560000	0.000000	0.000000	130.000000	51.000000	-11.000000	-7.000000
2.220000	65.550000	32.560000	0.000000	0.000000	130.000000	51.000000	-9.000000	0.000000
2.230000	65.490000	32.560000	0.000000	0.000000	129.000000	50.000000	-6.000000	0.000000
