t	x	y	pressure	penup	azimuth	inclination	v_x	v_y
0.000000	51.650000	49.610000	212.000000	1.000000	151.000000	64.000000	0.000000	0.000000
0.010000	51.440000	50.490000	247.000000	0.000000	151.000000	64.000000	-21.000000	88.000000
0.020000	51.300000	50.820000	274.000000	0.000000	153.000000	63.000000	-14.000000	33.000000
0.030000	51.230000	51.000000	292.000000	0.000000	153.000000	63.000000	-7.000000	18.000000
0.040000	51.230000	51.090000	320.000000	0.000000	153.000000	63.000000	0.000000	9.000000
0.050000	51.230000	51.090000	337.000000	0.000000	155.000000	63.000000	0.000000	0.000000
0.060000	51.230000	51.090000	342.000000	0.000000	155.000000	63.000000	0.000000	0.000000
0.070000	51.230000	50.970000	346.000000	0.000000	155.000000	63.000000	0.000000	-12.000000
0.080000	51.350000	50.610000	353.000000	0.000000	156.000000	62.000000	12.000000	-36.000000
0.090000	51.520000	50.090000	363.000000	0.000000	156.000000	62.000000	17.000000	-52.000000
0.100000	51.760000	49.210000	376.000000	0.000000	155.000000	63.000000	24.000000	-88.000000
0.110000	52.080000	48.090000	410.000000	0.000000	155.000000	63.000000	32.000000	-112.000000
0.120000	52.320000	46.810000	425.000000	0.000000	153.000000	63.000000	24.000000	-128.000000
0.130000	52.500000	45.520000	453.000000	0.000000	151.000000	64.000000	18.000000	-129.000000
0.140000	52.550000	44.320000	468.000000	0.000000	150.000000	65.000000	5.000000	-120.000000
0.150000	52.550000	43.180000	522.000000	0.000000	150.000000	65.000000	0.000000	-114.000000
0.160000	52.550000	42.320000	546.000000	0.000000	147.000000	65.000000	0.000000	-86.000000
0.170000	52.550000	41.830000	580.000000	0.000000	146.000000	66.000000	0.000000	-49.000000
0.180000	52.400000	41.600000	614.000000	0.000000	146.000000	66.000000	-15.000000	-23.000000
0.190000	52.230000	41.500000	636.000000	0.000000	144.000000	67.000000	-17.000000	-10.000000
0.200000	52.050000	41.500000	644.000000	0.000000	144.000000	67.000000	-18.000000	0.000000
0.210000	51.780000	41.570000	636.000000	0.000000	144.000000	67.000000	-27.000000	7.000000
0.220000	51.440000	41.770000	630.000000	0.000000	142.000000	66.000000	-34.000000	20.000000
0.230000	51.090000	42.040000	613.000000	0.000000	142.000000	66.000000	-35.000000	27.000000
0.240000	50.790000	42.370000	567.000000	0.000000	142.000000	66.000000	-30.000000	33.000000
0.250000	50.600000	42.690000	515.000000	0.000000	142.000000	66.000000	-19.000000	32.000000
0.260000	50.480000	42.960000	399.000000	0.000000	140.000000	67.000000	-12.000000	27.000000
0.270000	50.480000	43.140000	48.000000	0.000000	140.000000	67.000000	0.000000	18.000000
0.280000	50.480000	43.140000	0.000000	1.000000	140.000000	67.000000	0.000000	0.000000
0.290000	50.770000	43.330000	0.000000	0.000000	140.000000	67.000000	29.000000	19.000000
0.300000	50.900000	43.330000	0.000000	0.000000	140.000000	67.000000	13.000000	0.000000
0.310000	51.030000	43.330000	0.000000	0.000000	140.000000	67.000000	13.000000	0.000000
0.320000	51.170000	43.250000	0.000000	0.000000	140.000000	67.000000	14.000000	-8.000000
0.330000	51.410000	43.250000	0.000000	0.000000	142.000000	66.000000	24.000000	0.000000
0.340000	51.860000	43.200000	0.000000	0.000000	142.000000	66.000000	45.000000	-5.000000
0.350000	52.440000	43.200000	0.000000	0.000000	142.000000	66.000000	58.000000	0.000000
0.360000	53.150000	43.200000	0.000000	0.000000	144.000000	66.000000	71.000000	0.000000
0.370000	53.830000	43.200000	0.000000	0.000000	144.000000	66.000000	68.000000	0.000000
0.380000	54.430000	43.290000	0.000000	0.000000	145.000000	65.000000	60.000000	9.000000
0.390000	54.980000	43.290000	0.000000	0.000000	145.000000	65.000000	55.000000	0.000000
0.400000	55.290000	43.290000	0.000000	0.000000	145.000000	65.000000	31.000000	0.000000
0.410000	55.390000	43.290000	0.000000	0.000000	148.000000	65.000000	10.000000	0.000000
0.420000	55.390000	43.290000	0.000000	0.000000	148.000000	65.000000	0.000000	0.000000
0.430000	55.220000	43.290000	0.000000	0.000000	150.000000	65.000000	-17.000000	0.000000
0.440000	55.030000	43.390000	0.000000	0.000000	150.000000	65.000000	-19.000000	10.000000
0.450000	54.800000	43.500000	0.000000	0.000000	150.000000	65.000000	-23.000000	11.000000
0.460000	54.590000	43.600000	0.000000	0.000000	150.000000	65.000000	-21.000000	10.000000
0.470000	54.440000	43.670000	0.000000	0.000000	149.000000	66.000000	-15.000000	7.000000
0.480000	54.370000	43.750000	0.000000	0.000000	149.000000	66.000000	-7.000000	8.000000
0.490000	54.370000	43.800000	0.000000	0.000000	147.000000	65.000000	0.000000	5.000000
0.500000	54.510000	43.800000	0.000000	0.000000	147.000000	65.000000	14.000000	0.000000
0.510000	54.510000	43.900000	0.000000	0.000000	147.000000	65.000000	0.000000	10.000000
0.520000	54.610000	44.010000	0.000000	0.000000	145.000000	65.000000	10.000000	11.000000
0.530000	54.700000	44.070000	0.000000	0.000000	145.000000	65.000000	9.000000	6.000000
0.540000	54.780000	44.070000	0.000000	0.000000	146.000000	66.000000	8.000000	0.000000
0.550000	54.780000	44.070000	0.000000	0.000000	146.000000	66.000000	0.000000	0.000000
0.560000	54.830000	44.070000	0.000000	0.000000	146.000000	66.000000	5.000000	0.000000
0.570000	54.830000	43.980000	0.000000	0.000000	146.000000	66.000000	0.000000	-9.000000
0.580000	54.830000	43.880000	0.000000	0.000000	146.000000	66.000000	0.000000	-10.000000
0.590000	54.740000	43.760000	0.000000	0.000000	146.000000	66.000000	-9.000000	-12.000000
0.600000	54.620000	43.660000	0.000000	0.000000	146.000000	66.000000	-12.000000	-10.000000
0.610000	54.510000	43.540000	0.000000	0.000000	146.000000	66.000000	-11.000000	-12.000000
0.620000	54.430000	43.420000	0.000000	0.000000	146.000000	66.000000	-8.000000	-12.000000
0.630000	54.380000	43.350000	0.000000	0.000000	146.000000	66.000000	-5.000000	-7.000000
0.640000	54.380000	43.350000	0.000000	0.000000	144.000000	66.000000	0.000000	0.000000
0.650000	54.320000	43.250000	0.000000	0.000000	144.000000	66.000000	-6.000000	-10.000000
0.660000	54.320000	43.250000	0.000000	0.000000	144.000000	66.000000	0.000000	0.000000
0.670000	54.320000	43.250000	0.000000	0.000000	144.000000	66.000000	0.000000	0.000000
0.680000	54.320000	43.250000	0.000000	0.000000	144.000000	66.000000	0.000000	0.000000
0.690000	54.410000	43.200000	0.000000	0.000000	144.000000	66.000000	9.000000	-5.000000
0.700000	54.490000	43.270000	0.000000	0.000000	144.000000	66.000000	8.000000	7.000000
0.710000	54.600000	43.390000	0.000000	0.000000	144.000000	66.000000	11.000000	12.000000
0.720000	54.710000	43.510000	0.000000	0.000000	144.000000	66.000000	11.000000	12.000000
0.730000	54.830000	43.690000	0.000000	0.000000	144.000000	66.000000	12.000000	18.000000
0.740000	54.830000	43.690000	101.000000	1.000000	144.000000	66.000000	0.000000	0.000000
0.750000	54.940000	44.170000	131.000000	0.000000	144.000000	66.000000	11.000000	48.000000
0.760000	54.940000	44.420000	216.000000	0.000000	142.000000	66.000000	0.000000	25.000000
0.770000	54.840000	44.650000	286.000000	0.000000	144.000000	67.000000	-10.000000	23.000000
0.780000	54.710000	44.860000	339.000000	0.000000	144.000000	67.000000	-13.000000	21.000000
0.790000	54.550000	45.020000	405.000000	0.000000	144.000000	67.000000	-16.000000	16.000000
0.800000	54.390000	45.100000	417.000000	0.000000	144.000000	67.000000	-16.000000	8.000000
0.810000	54.210000	45.100000	420.000000	0.000000	144.000000	67.000000	-18.000000	0.000000
0.820000	54.010000	45.040000	422.000000	0.000000	144.000000	67.000000	-20.000000	-6.000000
0.830000	53.820000	44.850000	422.000000	0.000000	144.000000	67.000000	-19.000000	-19.000000
0.840000	53.660000	44.560000	425.000000	0.000000	144.000000	67.000000	-16.000000	-29.000000
0.850000	53.540000	44.180000	423.000000	0.000000	144.000000	67.000000	-12.000000	-38.000000
0.860000	53.460000	43.750000	414.000000	0.000000	144.000000	67.000000	-8.000000	-43.000000
0.870000	53.460000	43.230000	420.000000	0.000000	144.000000	67.000000	0.000000	-52.000000
0.880000	53.570000	42.720000	425.000000	0.000000	144.000000	67.000000	11.000000	-51.000000
0.890000	53.740000	42.370000	427.000000	0.000000	144.000000	67.000000	17.000000	-35.000000
0.900000	53.950000	42.120000	428.000000	0.000000	142.000000	66.000000	21.000000	-25.000000
0.910000	54.170000	42.070000	427.000000	0.000000	142.000000	66.000000	22.000000	-5.000000
0.920000	54.370000	42.190000	422.000000	0.000000	142.000000	66.000000	20.000000	12.000000
0.930000	54.620000	42.430000	407.000000	0.000000	144.000000	66.000000	25.000000	24.000000
0.940000	54.910000	42.860000	396.000000	0.000000	142.000000	66.000000	29.000000	43.000000
0.950000	55.080000	43.370000	386.000000	0.000000	142.000000	66.000000	17.000000	51.000000
0.960000	55.180000	43.940000	374.000000	0.000000	144.000000	67.000000	10.000000	57.000000
0.970000	55.250000	44.370000	376.000000	0.000000	144.000000	67.000000	7.000000	43.000000
0.980000	55.250000	44.750000	379.000000	0.000000	144.000000	67.000000	0.000000	38.000000
0.990000	55.250000	45.030000	394.000000	0.000000	144.000000	67.000000	0.000000	28.000000
1.000000	55.250000	45.230000	425.000000	0.000000	144.000000	67.000000	0.000000	20.000000
1.010000	55.250000	45.280000	439.000000	0.000000	144.000000	67.000000	0.000000	5.000000
1.020000	55.250000	45.280000	447.000000	0.000000	144.000000	67.000000	0.000000	0.000000
1.030000	55.250000	45.210000	456.000000	0.000000	144.000000	67.000000	0.000000	-7.000000
1.040000	55.250000	45.100000	464.000000	0.000000	144.000000	67.000000	0.000000	-11.000000
1.050000	55.320000	44.810000	472.000000	0.000000	144.000000	67.000000	7.000000	-29.000000
1.060000	55.430000	44.420000	481.000000	0.000000	144.000000	67.000000	11.000000	-39.000000
1.070000	55.560000	44.000000	495.000000	0.000000	144.000000	67.000000	13.000000	-42.000000
1.080000	55.700000	43.580000	498.000000	0.000000	144.000000	67.000000	14.000000	-42.000000
1.090000	55.870000	43.180000	488.000000	0.000000	144.000000	67.000000	17.000000	-40.000000
1.100000	56.010000	42.990000	491.000000	0.000000	144.000000	67.000000	14.000000	-19.000000
1.110000	56.130000	42.920000	494.000000	0.000000	144.000000	67.000000	12.000000	-7.000000
1.120000	56.250000	42.920000	491.000000	0.000000	144.000000	67.000000	12.000000	0.000000
1.130000	56.350000	43.070000	490.000000	0.000000	144.000000	67.000000	10.000000	15.000000
1.140000	56.500000	43.320000	474.000000	0.000000	144.000000	67.000000	15.000000	25.000000
1.150000	56.650000	43.660000	436.000000	0.000000	146.000000	67.000000	15.000000	34.000000
1.160000	56.770000	44.040000	428.000000	0.000000	146.000000	67.000000	12.000000	38.000000
1.170000	56.850000	44.440000	418.000000	0.000000	146.000000	67.000000	8.000000	40.000000
1.180000	56.910000	44.770000	418.000000	0.000000	146.000000	67.000000	6.000000	33.000000
1.190000	56.910000	45.080000	425.000000	0.000000	146.000000	67.000000	0.000000	31.000000
1.200000	56.910000	45.300000	447.000000	0.000000	146.000000	67.000000	0.000000	22.000000
1.210000	56.850000	45.400000	468.000000	0.000000	146.000000	67.000000	-6.000000	10.000000
1.220000	56.850000	45.400000	475.000000	0.000000	146.000000	67.000000	0.000000	0.000000
1.230000	56.850000	45.320000	490.000000	0.000000	146.000000	67.000000	0.000000	-8.000000
1.240000	56.850000	45.180000	494.000000	0.000000	146.000000	67.000000	0.000000	-14.000000
1.250000	56.850000	45.180000	499.000000	0.000000	146.000000	67.000000	0.000000	0.000000
1.260000	57.030000	44.620000	510.000000	0.000000	146.000000	67.000000	18.000000	-56.000000
1.270000	57.150000	44.180000	515.000000	0.000000	146.000000	67.000000	12.000000	-44.000000
1.280000	57.310000	43.770000	538.000000	0.000000	146.000000	67.000000	16.000000	-41.000000
1.290000	57.510000	43.390000	546.000000	0.000000	146.000000	67.000000	20.000000	-38.000000
1.300000	57.760000	43.040000	537.000000	0.000000	146.000000	67.000000	25.000000	-35.000000
1.310000	57.950000	42.850000	542.000000	0.000000	146.000000	67.000000	19.000000	-19.000000
1.320000	58.110000	42.800000	543.000000	0.000000	146.000000	67.000000	16.000000	-5.000000
1.330000	58.230000	42.800000	546.000000	0.000000	148.000000	67.000000	12.000000	0.000000
1.340000	58.360000	42.980000	542.000000	0.000000	148.000000	67.000000	13.000000	18.000000
1.350000	58.500000	43.280000	543.000000	0.000000	148.000000	67.000000	14.000000	30.000000
1.360000	58.620000	43.680000	540.000000	0.000000	148.000000	67.000000	12.000000	40.000000
1.370000	58.740000	44.100000	516.000000	0.000000	144.000000	67.000000	12.000000	42.000000
1.380000	58.810000	44.490000	518.000000	0.000000	144.000000	67.000000	7.000000	39.000000
1.390000	58.810000	44.820000	518.000000	0.000000	144.000000	67.000000	0.000000	33.000000
1.400000	58.870000	45.110000	522.000000	0.000000	142.000000	66.000000	6.000000	29.000000
1.410000	58.870000	45.260000	538.000000	0.000000	142.000000	66.000000	0.000000	15.000000
1.420000	58.870000	45.260000	536.000000	0.000000	142.000000	66.000000	0.000000	0.000000
1.430000	58.870000	45.260000	550.000000	0.000000	142.000000	66.000000	0.000000	0.000000
1.440000	58.870000	45.190000	560.000000	0.000000	142.000000	66.000000	0.000000	-7.000000
1.450000	58.870000	44.940000	572.000000	0.000000	142.000000	66.000000	0.000000	-25.000000
1.460000	58.980000	44.580000	577.000000	0.000000	142.000000	66.000000	11.000000	-36.000000
1.470000	59.090000	44.170000	581.000000	0.000000	142.000000	66.000000	11.000000	-41.000000
1.480000	59.200000	43.800000	586.000000	0.000000	142.000000	66.000000	11.000000	-37.000000
1.490000	59.350000	43.540000	584.000000	0.000000	142.000000	66.000000	15.000000	-26.000000
1.500000	59.510000	43.330000	580.000000	0.000000	142.000000	66.000000	16.000000	-21.000000
1.510000	59.640000	43.200000	578.000000	0.000000	142.000000	66.000000	13.000000	-13.000000
1.520000	59.760000	43.200000	580.000000	0.000000	146.000000	66.000000	12.000000	0.000000
1.530000	59.900000	43.260000	575.000000	0.000000	146.000000	66.000000	14.000000	6.000000
1.540000	60.020000	43.380000	570.000000	0.000000	146.000000	66.000000	12.000000	12.000000
1.550000	60.130000	43.600000	561.000000	0.000000	146.000000	66.000000	11.000000	22.000000
1.560000	60.270000	43.890000	542.000000	0.000000	144.000000	67.000000	14.000000	29.000000
1.570000	60.410000	44.200000	524.000000	0.000000	144.000000	67.000000	14.000000	31.000000
1.580000	60.530000	44.510000	512.000000	0.000000	144.000000	67.000000	12.000000	31.000000
1.590000	60.610000	44.830000	510.000000	0.000000	144.000000	67.000000	8.000000	32.000000
1.600000	60.610000	45.020000	509.000000	0.000000	144.000000	67.000000	0.000000	19.000000
1.610000	60.610000	45.160000	522.000000	0.000000	146.000000	67.000000	0.000000	14.000000
1.620000	60.610000	45.220000	522.000000	0.000000	146.000000	67.000000	0.000000	6.000000
1.630000	60.610000	45.220000	526.000000	0.000000	146.000000	67.000000	0.000000	0.000000
1.640000	60.610000	45.170000	535.000000	0.000000	146.000000	67.000000	0.000000	-5.000000
1.650000	60.610000	45.080000	544.000000	0.000000	146.000000	67.000000	0.000000	-9.000000
1.660000	60.610000	44.920000	536.000000	0.000000	146.000000	67.000000	0.000000	-16.000000
1.670000	60.610000	44.720000	540.000000	0.000000	146.000000	67.000000	0.000000	-20.000000
1.680000	60.690000	44.500000	551.000000	0.000000	146.000000	67.000000	8.000000	-22.000000
1.690000	60.750000	44.290000	556.000000	0.000000	146.000000	67.000000	6.000000	-21.000000
1.700000	60.840000	44.060000	570.000000	0.000000	146.000000	67.000000	9.000000	-23.000000
1.710000	60.970000	43.840000	570.000000	0.000000	146.000000	67.000000	13.000000	-22.000000
1.720000	61.120000	43.630000	560.000000	0.000000	146.000000	67.000000	15.000000	-21.000000
1.730000	61.260000	43.500000	563.000000	0.000000	146.000000	67.000000	14.000000	-13.000000
1.740000	61.410000	43.410000	560.000000	0.000000	146.000000	67.000000	15.000000	-9.000000
1.750000	61.530000	43.410000	560.000000	0.000000	146.000000	67.000000	12.000000	0.000000
1.760000	61.640000	43.410000	560.000000	0.000000	146.000000	67.000000	11.000000	0.000000
1.770000	61.730000	43.410000	570.000000	0.000000	148.000000	67.000000	9.000000	0.000000
1.780000	61.840000	43.510000	562.000000	0.000000	148.000000	67.000000	11.000000	10.000000
1.790000	61.980000	43.610000	548.000000	0.000000	148.000000	67.000000	14.000000	10.000000
1.800000	62.120000	43.740000	542.000000	0.000000	148.000000	67.000000	14.000000	13.000000
1.810000	62.240000	43.900000	527.000000	0.000000	148.000000	67.000000	12.000000	16.000000
1.820000	62.350000	44.080000	515.000000	0.000000	148.000000	67.000000	11.000000	18.000000
1.830000	62.420000	44.310000	502.000000	0.000000	146.000000	67.000000	7.000000	23.000000
1.840000	62.420000	44.520000	501.000000	0.000000	146.000000	67.000000	0.000000	21.000000
1.850000	62.420000	44.700000	495.000000	0.000000	146.000000	67.000000	0.000000	18.000000
1.860000	62.420000	44.860000	488.000000	0.000000	148.000000	68.000000	0.000000	16.000000
1.870000	62.420000	45.010000	488.000000	0.000000	148.000000	68.000000	0.000000	15.000000
1.880000	62.420000	45.110000	486.000000	0.000000	148.000000	68.000000	0.000000	10.000000
1.890000	62.350000	45.190000	485.000000	0.000000	148.000000	68.000000	-7.000000	8.000000
1.900000	62.290000	45.250000	483.000000	0.000000	148.000000	68.000000	-6.000000	6.000000
1.910000	62.290000	45.310000	483.000000	0.000000	151.000000	68.000000	0.000000	6.000000
1.920000	62.290000	45.310000	478.000000	0.000000	151.000000	68.000000	0.000000	0.000000
1.930000	62.240000	45.390000	465.000000	0.000000	151.000000	68.000000	-5.000000	8.000000
1.940000	62.240000	45.390000	442.000000	0.000000	151.000000	68.000000	0.000000	0.000000
1.950000	62.180000	45.390000	422.000000	0.000000	151.000000	68.000000	-6.000000	0.000000
1.960000	62.130000	45.440000	397.000000	0.000000	151.000000	68.000000	-5.000000	5.000000
1.970000	62.130000	45.440000	396.000000	0.000000	151.000000	68.000000	0.000000	0.000000
1.980000	62.060000	45.440000	394.000000	0.000000	151.000000	68.000000	-7.000000	0.000000
1.990000	62.060000	45.380000	394.000000	0.000000	151.000000	68.000000	0.000000	-6.000000
2.000000	61.990000	45.280000	402.000000	0.000000	151.000000	68.000000	-7.000000	-10.000000
2.010000	61.940000	45.170000	405.000000	0.000000	151.000000	68.000000	-5.000000	-11.000000
2.020000	61.940000	45.050000	410.000000	0.000000	151.000000	68.000000	0.000000	-12.000000
2.030000	61.870000	44.900000	413.000000	0.000000	151.000000	68.000000	-7.000000	-15.000000
2.040000	61.870000	44.740000	417.000000	0.000000	151.000000	68.000000	0.000000	-16.000000
2.050000	61.870000	44.620000	422.000000	0.000000	151.000000	68.000000	0.000000	-12.000000
2.060000	61.920000	44.520000	431.000000	0.000000	151.000000	68.000000	5.000000	-10.000000
2.070000	61.980000	44.340000	443.000000	0.000000	151.000000	68.000000	6.000000	-18.000000
2.080000	62.090000	44.170000	463.000000	0.000000	151.000000	68.000000	11.000000	-17.000000
2.090000	62.210000	44.000000	472.000000	0.000000	151.000000	68.000000	12.000000	-17.000000
2.100000	62.300000	43.850000	485.000000	0.000000	151.000000	68.000000	9.000000	-15.000000
2.110000	62.460000	43.720000	495.000000	0.000000	151.000000	68.000000	16.000000	-13.000000
2.120000	62.590000	43.620000	489.000000	0.000000	151.000000	68.000000	13.000000	-10.000000
2.130000	62.710000	43.620000	496.000000	0.000000	151.000000	68.000000	12.000000	0.000000
2.140000	62.920000	43.620000	499.000000	0.000000	151.000000	68.000000	21.000000	0.000000
2.150000	63.150000	43.810000	492.000000	0.000000	151.000000	68.000000	23.000000	19.000000
2.160000	63.440000	44.170000	491.000000	0.000000	151.000000	68.000000	29.000000	36.000000
2.170000	63.770000	44.660000	488.000000	0.000000	151.000000	68.000000	33.000000	49.000000
2.180000	63.980000	45.270000	492.000000	0.000000	151.000000	68.000000	21.000000	61.000000
2.190000	64.100000	46.000000	486.000000	0.000000	151.000000	68.000000	12.000000	73.000000
2.200000	64.180000	46.810000	465.000000	0.000000	151.000000	68.000000	8.000000	81.000000
2.210000	64.180000	47.800000	418.000000	0.000000	151.000000	68.000000	0.000000	99.000000
2.220000	64.100000	48.770000	418.000000	0.000000	151.000000	68.000000	-8.000000	97.000000
