t	x	y	pressure	penup	azimuth	inclination	v_x	v_y
0.000000	53.310000	84.480000	144.000000	1.000000	153.000000	61.000000	0.000000	0.000000
0.010000	53.190000	84.940000	185.000000	0.000000	153.000000	61.000000	-12.000000	46.000000
0.020000	53.070000	85.170000	217.000000	0.000000	153.000000	61.000000	-12.000000	23.000000
0.030000	52.960000	85.390000	287.000000	0.000000	153.000000	61.000000	-11.000000	22.000000
0.040000	52.880000	85.470000	344.000000	0.000000	155.000000	62.000000	-8.000000	8.000000
0.050000	52.880000	85.530000	359.000000	0.000000	155.000000	62.000000	0.000000	6.000000
0.060000	52.880000	85.530000	382.000000	0.000000	155.000000	62.000000	0.000000	0.000000
0.070000	52.800000	85.530000	400.000000	0.000000	155.000000	62.000000	-8.000000	0.000000
0.080000	52.800000	85.530000	413.000000	0.000000	155.000000	62.000000	0.000000	0.000000
0.090000	52.870000	85.400000	415.000000	0.000000	155.000000	62.000000	7.000000	-13.000000
0.100000	52.870000	85.250000	443.000000	0.000000	155.000000	62.000000	0.000000	-15.000000
0.110000	52.950000	84.850000	458.000000	0.000000	155.000000	62.000000	8.000000	-40.000000
0.120000	53.050000	84.300000	472.000000	0.000000	155.000000	62.000000	10.000000	-55.000000
0.130000	53.220000	83.670000	507.000000	0.000000	153.000000	61.000000	17.000000	-63.000000
0.140000	53.430000	82.810000	516.000000	0.000000	153.000000	61.000000	21.000000	-86.000000
0.150000	53.640000	81.800000	527.000000	0.000000	153.000000	61.000000	21.000000	-101.000000
0.160000	53.780000	80.640000	544.000000	0.000000	153.000000	61.000000	14.000000	-116.000000
0.170000	53.880000	79.480000	553.000000	0.000000	152.000000	62.000000	10.000000	-116.000000
0.180000	53.960000	78.550000	564.000000	0.000000	152.000000	62.000000	8.000000	-93.000000
0.190000	54.050000	77.780000	588.000000	0.000000	152.000000	62.000000	9.000000	-77.000000
0.200000	54.050000	77.270000	603.000000	0.000000	151.000000	63.000000	0.000000	-51.000000
0.210000	53.870000	76.930000	616.000000	0.000000	151.000000	63.000000	-18.000000	-34.000000
0.220000	53.660000	76.710000	641.000000	0.000000	150.000000	64.000000	-21.000000	-22.000000
0.230000	53.440000	76.540000	659.000000	0.000000	150.000000	64.000000	-22.000000	-17.000000
0.240000	53.200000	76.470000	661.000000	0.000000	150.000000	64.000000	-24.000000	-7.000000
0.250000	52.950000	76.470000	655.000000	0.000000	150.000000	64.000000	-25.000000	0.000000
0.260000	52.720000	76.560000	643.000000	0.000000	150.000000	64.000000	-23.000000	9.000000
0.270000	52.530000	76.720000	622.000000	0.000000	150.000000	64.000000	-19.000000	16.000000
0.280000	52.370000	76.920000	570.000000	0.000000	148.000000	65.000000	-16.000000	20.000000
0.290000	52.230000	77.220000	538.000000	0.000000	148.000000	65.000000	-14.000000	30.000000
0.300000	52.160000	77.490000	439.000000	0.000000	148.000000	65.000000	-7.000000	27.000000
0.310000	52.160000	77.740000	225.000000	0.000000	148.000000	65.000000	0.000000	25.000000
0.320000	52.160000	77.740000	0.000000	1.000000	148.000000	65.000000	0.000000	0.000000
0.330000	52.310000	77.810000	0.000000	0.000000	148.000000	65.000000	15.000000	7.000000
0.340000	52.440000	77.810000	0.000000	0.000000	148.000000	65.000000	13.000000	0.000000
0.350000	52.560000	77.810000	0.000000	0.000000	148.000000	65.000000	12.000000	0.000000
0.360000	52.770000	77.750000	0.000000	0.000000	148.000000	65.000000	21.000000	-6.000000
0.370000	53.010000	77.750000	0.000000	0.000000	150.000000	64.000000	24.000000	0.000000
0.380000	53.360000	77.690000	0.000000	0.000000	150.000000	64.000000	35.000000	-6.000000
0.390000	53.780000	77.690000	0.000000	0.000000	151.000000	63.000000	42.000000	0.000000
0.400000	54.200000	77.740000	0.000000	0.000000	154.000000	63.000000	42.000000	5.000000
0.410000	54.620000	77.810000	0.000000	0.000000	155.000000	62.000000	42.000000	7.000000
0.420000	55.000000	77.900000	0.000000	0.000000	156.000000	61.000000	38.000000	9.000000
0.430000	55.360000	77.990000	0.000000	0.000000	158.000000	60.000000	36.000000	9.000000
0.440000	55.640000	78.050000	0.000000	0.000000	159.000000	59.000000	28.000000	6.000000
0.450000	55.780000	78.050000	0.000000	0.000000	159.000000	59.000000	14.000000	0.000000
0.460000	55.830000	78.050000	0.000000	0.000000	161.000000	59.000000	5.000000	0.000000
0.470000	55.830000	78.050000	0.000000	0.000000	163.000000	59.000000	0.000000	0.000000
0.480000	55.740000	78.050000	0.000000	0.000000	162.000000	60.000000	-9.000000	0.000000
0.490000	55.670000	78.050000	0.000000	0.000000	162.000000	60.000000	-7.000000	0.000000
0.500000	55.560000	78.050000	0.000000	0.000000	162.000000	60.000000	-11.000000	0.000000
0.510000	55.470000	78.130000	0.000000	0.000000	162.000000	61.000000	-9.000000	8.000000
0.520000	55.410000	78.130000	0.000000	0.000000	161.000000	62.000000	-6.000000	0.000000
0.530000	55.410000	78.210000	0.000000	0.000000	161.000000	62.000000	0.000000	8.000000
0.540000	55.410000	78.210000	0.000000	0.000000	160.000000	63.000000	0.000000	0.000000
0.550000	55.410000	78.210000	0.000000	0.000000	158.000000	62.000000	0.000000	0.000000
0.560000	55.500000	78.260000	0.000000	0.000000	158.000000	62.000000	9.000000	5.000000
0.570000	55.550000	78.310000	0.000000	0.000000	158.000000	62.000000	5.000000	5.000000
0.580000	55.550000	78.370000	0.000000	0.000000	155.000000	63.000000	0.000000	6.000000
0.590000	55.550000	78.420000	0.000000	0.000000	155.000000	63.000000	0.000000	5.000000
0.600000	55.550000	78.420000	0.000000	0.000000	155.000000	63.000000	0.000000	0.000000
0.610000	55.480000	78.500000	0.000000	0.000000	155.000000	63.000000	-7.000000	8.000000
0.620000	55.420000	78.560000	0.000000	0.000000	155.000000	63.000000	-6.000000	6.000000
0.630000	55.420000	78.610000	0.000000	0.000000	155.000000	63.000000	0.000000	5.000000
0.640000	55.420000	78.610000	0.000000	0.000000	155.000000	63.000000	0.000000	0.000000
0.650000	55.420000	78.690000	0.000000	0.000000	155.000000	63.000000	0.000000	8.000000
0.660000	55.510000	78.690000	0.000000	0.000000	155.000000	63.000000	9.000000	0.000000
0.670000	55.510000	78.630000	0.000000	0.000000	155.000000	63.000000	0.000000	-6.000000
0.680000	55.510000	78.630000	0.000000	0.000000	155.000000	63.000000	0.000000	0.000000
0.690000	55.510000	78.560000	0.000000	0.000000	155.000000	63.000000	0.000000	-7.000000
0.700000	55.460000	78.560000	0.000000	0.000000	155.000000	63.000000	-5.000000	0.000000
0.710000	55.460000	78.510000	0.000000	0.000000	155.000000	63.000000	0.000000	-5.000000
0.720000	55.460000	78.510000	0.000000	0.000000	155.000000	63.000000	0.000000	0.000000
0.730000	55.460000	78.510000	0.000000	0.000000	155.000000	63.000000	0.000000	0.000000
0.740000	55.530000	78.450000	0.000000	0.000000	155.000000	63.000000	7.000000	-6.000000
0.750000	55.530000	78.450000	0.000000	0.000000	154.000000	64.000000	0.000000	0.000000
0.760000	55.600000	78.450000	0.000000	0.000000	154.000000	64.000000	7.000000	0.000000
0.770000	55.650000	78.450000	0.000000	0.000000	154.000000	64.000000	5.000000	0.000000
0.780000	55.700000	78.450000	0.000000	0.000000	154.000000	64.000000	5.000000	0.000000
0.790000	55.760000	78.450000	0.000000	0.000000	154.000000	64.000000	6.000000	0.000000
0.800000	55.820000	78.450000	0.000000	0.000000	154.000000	64.000000	6.000000	0.000000
0.810000	55.900000	78.540000	0.000000	0.000000	154.000000	64.000000	8.000000	9.000000
0.820000	56.020000	78.540000	0.000000	0.000000	154.000000	64.000000	12.000000	0.000000
0.830000	56.160000	78.620000	0.000000	0.000000	154.000000	64.000000	14.000000	8.000000
0.840000	56.310000	78.680000	0.000000	0.000000	156.000000	64.000000	15.000000	6.000000
0.850000	56.490000	78.750000	0.000000	0.000000	156.000000	64.000000	18.000000	7.000000
0.860000	56.670000	78.810000	0.000000	0.000000	157.000000	63.000000	18.000000	6.000000
0.870000	56.810000	78.900000	0.000000	0.000000	157.000000	63.000000	14.000000	9.000000
0.880000	56.810000	78.900000	134.000000	1.000000	157.000000	63.000000	0.000000	0.000000
0.890000	56.940000	79.150000	184.000000	0.000000	157.000000	63.000000	13.000000	25.000000
0.900000	56.940000	79.280000	254.000000	0.000000	157.000000	63.000000	0.000000	13.000000
0.910000	56.890000	79.420000	304.000000	0.000000	156.000000	64.000000	-5.000000	14.000000
0.920000	56.830000	79.580000	361.000000	0.000000	156.000000	64.000000	-6.000000	16.000000
0.930000	56.770000	79.700000	409.000000	0.000000	156.000000	64.000000	-6.000000	12.000000
0.940000	56.680000	79.790000	420.000000	0.000000	155.000000	65.000000	-9.000000	9.000000
0.950000	56.580000	79.840000	443.000000	0.000000	155.000000	65.000000	-10.000000	5.000000
0.960000	56.450000	79.840000	440.000000	0.000000	155.000000	65.000000	-13.000000	0.000000
0.970000	56.280000	79.840000	472.000000	0.000000	154.000000	66.000000	-17.000000	0.000000
0.980000	56.070000	79.840000	488.000000	0.000000	154.000000	66.000000	-21.000000	0.000000
0.990000	55.890000	79.680000	490.000000	0.000000	154.000000	66.000000	-18.000000	-16.000000
1.000000	55.710000	79.440000	496.000000	0.000000	152.000000	65.000000	-18.000000	-24.000000
1.010000	55.560000	79.120000	496.000000	0.000000	152.000000	65.000000	-15.000000	-32.000000
1.020000	55.440000	78.760000	502.000000	0.000000	152.000000	65.000000	-12.000000	-36.000000
1.030000	55.440000	78.400000	502.000000	0.000000	153.000000	65.000000	0.000000	-36.000000
1.040000	55.440000	78.020000	504.000000	0.000000	153.000000	65.000000	0.000000	-38.000000
1.050000	55.520000	77.630000	501.000000	0.000000	151.000000	64.000000	8.000000	-39.000000
1.060000	55.670000	77.370000	501.000000	0.000000	151.000000	64.000000	15.000000	-26.000000
1.070000	55.860000	77.190000	499.000000	0.000000	151.000000	64.000000	19.000000	-18.000000
1.080000	56.050000	77.100000	499.000000	0.000000	151.000000	64.000000	19.000000	-9.000000
1.090000	56.260000	77.100000	494.000000	0.000000	151.000000	64.000000	21.000000	0.000000
1.100000	56.500000	77.230000	493.000000	0.000000	152.000000	65.000000	24.000000	13.000000
1.110000	56.750000	77.480000	478.000000	0.000000	152.000000	65.000000	25.000000	25.000000
1.120000	56.950000	77.810000	467.000000	0.000000	152.000000	65.000000	20.000000	33.000000
1.130000	57.120000	78.190000	463.000000	0.000000	152.000000	65.000000	17.000000	38.000000
1.140000	57.240000	78.660000	448.000000	0.000000	152.000000	65.000000	12.000000	47.000000
1.150000	57.320000	79.100000	453.000000	0.000000	154.000000	66.000000	8.000000	44.000000
1.160000	57.380000	79.490000	456.000000	0.000000	155.000000	65.000000	6.000000	39.000000
1.170000	57.380000	79.810000	480.000000	0.000000	155.000000	65.000000	0.000000	32.000000
1.180000	57.320000	79.960000	492.000000	0.000000	155.000000	65.000000	-6.000000	15.000000
1.190000	57.230000	79.960000	515.000000	0.000000	155.000000	65.000000	-9.000000	0.000000
1.200000	57.230000	79.960000	527.000000	0.000000	155.000000	65.000000	0.000000	0.000000
1.210000	57.230000	79.900000	535.000000	0.000000	155.000000	65.000000	0.000000	-6.000000
1.220000	57.230000	79.750000	546.000000	0.000000	154.000000	66.000000	0.000000	-15.000000
1.230000	57.230000	79.520000	551.000000	0.000000	154.000000	66.000000	0.000000	-23.000000
1.240000	57.230000	79.060000	565.000000	0.000000	154.000000	66.000000	0.000000	-46.000000
1.250000	57.350000	78.460000	563.000000	0.000000	154.000000	66.000000	12.000000	-60.000000
1.260000	57.460000	78.020000	574.000000	0.000000	154.000000	66.000000	11.000000	-44.000000
1.270000	57.620000	77.580000	580.000000	0.000000	155.000000	65.000000	16.000000	-44.000000
1.280000	57.810000	77.240000	588.000000	0.000000	155.000000	65.000000	19.000000	-34.000000
1.290000	58.000000	76.980000	588.000000	0.000000	155.000000	65.000000	19.000000	-26.000000
1.300000	58.180000	76.870000	588.000000	0.000000	155.000000	65.000000	18.000000	-11.000000
1.310000	58.360000	76.870000	580.000000	0.000000	155.000000	65.000000	18.000000	0.000000
1.320000	58.520000	76.870000	578.000000	0.000000	154.000000	66.000000	16.000000	0.000000
1.330000	58.690000	77.100000	561.000000	0.000000	156.000000	66.000000	17.000000	23.000000
1.340000	58.870000	77.360000	550.000000	0.000000	156.000000	66.000000	18.000000	26.000000
1.350000	59.070000	77.660000	546.000000	0.000000	156.000000	66.000000	20.000000	30.000000
1.360000	59.180000	78.000000	530.000000	0.000000	156.000000	66.000000	11.000000	34.000000
1.370000	59.240000	78.320000	527.000000	0.000000	156.000000	66.000000	6.000000	32.000000
1.380000	59.240000	78.590000	535.000000	0.000000	159.000000	67.000000	0.000000	27.000000
1.390000	59.240000	78.820000	538.000000	0.000000	159.000000	67.000000	0.000000	23.000000
1.400000	59.240000	78.950000	540.000000	0.000000	160.000000	66.000000	0.000000	13.000000
1.410000	59.240000	79.000000	545.000000	0.000000	160.000000	66.000000	0.000000	5.000000
1.420000	59.240000	79.000000	551.000000	0.000000	160.000000	65.000000	0.000000	0.000000
1.430000	59.240000	78.860000	564.000000	0.000000	160.000000	65.000000	0.000000	-14.000000
1.440000	59.240000	78.600000	574.000000	0.000000	160.000000	65.000000	0.000000	-26.000000
1.450000	59.240000	78.250000	581.000000	0.000000	161.000000	64.000000	0.000000	-35.000000
1.460000	59.310000	77.880000	589.000000	0.000000	160.000000	65.000000	7.000000	-37.000000
1.470000	59.400000	77.510000	585.000000	0.000000	160.000000	65.000000	9.000000	-37.000000
1.480000	59.520000	77.240000	586.000000	0.000000	160.000000	65.000000	12.000000	-27.000000
1.490000	59.670000	77.040000	585.000000	0.000000	160.000000	66.000000	15.000000	-20.000000
1.500000	59.830000	76.940000	586.000000	0.000000	160.000000	66.000000	16.000000	-10.000000
1.510000	60.010000	76.940000	580.000000	0.000000	159.000000	67.000000	18.000000	0.000000
1.520000	60.220000	77.100000	564.000000	0.000000	159.000000	67.000000	21.000000	16.000000
1.530000	60.480000	77.430000	546.000000	0.000000	159.000000	67.000000	26.000000	33.000000
1.540000	60.670000	77.790000	543.000000	0.000000	159.000000	67.000000	19.000000	36.000000
1.550000	60.830000	78.160000	526.000000	0.000000	159.000000	67.000000	16.000000	37.000000
1.560000	60.960000	78.500000	530.000000	0.000000	159.000000	67.000000	13.000000	34.000000
1.570000	61.010000	78.800000	537.000000	0.000000	159.000000	67.000000	5.000000	30.000000
1.580000	61.010000	79.060000	551.000000	0.000000	159.000000	67.000000	0.000000	26.000000
1.590000	60.950000	79.150000	563.000000	0.000000	160.000000	66.000000	-6.000000	9.000000
1.600000	60.950000	79.150000	577.000000	0.000000	160.000000	66.000000	0.000000	0.000000
1.610000	60.880000	79.090000	578.000000	0.000000	160.000000	65.000000	-7.000000	-6.000000
1.620000	60.880000	79.090000	580.000000	0.000000	160.000000	65.000000	0.000000	0.000000
1.630000	60.880000	78.950000	588.000000	0.000000	160.000000	65.000000	0.000000	-14.000000
1.640000	60.940000	78.780000	586.000000	0.000000	161.000000	64.000000	6.000000	-17.000000
1.650000	60.940000	78.560000	591.000000	0.000000	161.000000	64.000000	0.000000	-22.000000
1.660000	61.020000	78.300000	594.000000	0.000000	161.000000	64.000000	8.000000	-26.000000
1.670000	61.080000	78.010000	585.000000	0.000000	160.000000	65.000000	6.000000	-29.000000
1.680000	61.130000	77.690000	595.000000	0.000000	160.000000	65.000000	5.000000	-32.000000
1.690000	61.210000	77.460000	595.000000	0.000000	160.000000	65.000000	8.000000	-23.000000
1.700000	61.300000	77.300000	595.000000	0.000000	160.000000	66.000000	9.000000	-16.000000
1.710000	61.390000	77.190000	589.000000	0.000000	160.000000	66.000000	9.000000	-11.000000
1.720000	61.490000	77.190000	588.000000	0.000000	159.000000	67.000000	10.000000	0.000000
1.730000	61.580000	77.240000	572.000000	0.000000	159.000000	67.000000	9.000000	5.000000
1.740000	61.660000	77.380000	560.000000	0.000000	159.000000	67.000000	8.000000	14.000000
1.750000	61.740000	77.580000	567.000000	0.000000	158.000000	67.000000	8.000000	20.000000
1.760000	61.830000	77.820000	553.000000	0.000000	158.000000	67.000000	9.000000	24.000000
1.770000	61.930000	78.090000	548.000000	0.000000	158.000000	67.000000	10.000000	27.000000
1.780000	61.990000	78.330000	543.000000	0.000000	158.000000	67.000000	6.000000	24.000000
1.790000	61.990000	78.500000	538.000000	0.000000	156.000000	66.000000	0.000000	17.000000
1.800000	62.050000	78.620000	522.000000	0.000000	156.000000	66.000000	6.000000	12.000000
1.810000	62.050000	78.680000	521.000000	0.000000	156.000000	66.000000	0.000000	6.000000
1.820000	62.050000	78.680000	524.000000	0.000000	156.000000	66.000000	0.000000	0.000000
1.830000	62.050000	78.680000	526.000000	0.000000	157.000000	65.000000	0.000000	0.000000
1.840000	62.050000	78.680000	526.000000	0.000000	157.000000	65.000000	0.000000	0.000000
1.850000	62.050000	78.680000	527.000000	0.000000	157.000000	65.000000	0.000000	0.000000
1.860000	62.050000	78.680000	530.000000	0.000000	158.000000	64.000000	0.000000	0.000000
1.870000	62.050000	78.570000	538.000000	0.000000	158.000000	64.000000	0.000000	-11.000000
1.880000	62.050000	78.420000	543.000000	0.000000	158.000000	64.000000	0.000000	-15.000000
1.890000	62.050000	78.420000	544.000000	0.000000	158.000000	64.000000	0.000000	0.000000
1.900000	62.100000	78.010000	536.000000	0.000000	157.000000	65.000000	5.000000	-41.000000
1.910000	62.180000	77.780000	539.000000	0.000000	157.000000	65.000000	8.000000	-23.000000
1.920000	62.280000	77.630000	539.000000	0.000000	157.000000	65.000000	10.000000	-15.000000
1.930000	62.400000	77.530000	536.000000	0.000000	156.000000	66.000000	12.000000	-10.000000
1.940000	62.540000	77.470000	538.000000	0.000000	156.000000	66.000000	14.000000	-6.000000
1.950000	62.710000	77.470000	529.000000	0.000000	156.000000	66.000000	17.000000	0.000000
1.960000	62.900000	77.470000	519.000000	0.000000	156.000000	66.000000	19.000000	0.000000
1.970000	63.090000	77.560000	501.000000	0.000000	155.000000	67.000000	19.000000	9.000000
1.980000	63.280000	77.680000	464.000000	0.000000	155.000000	67.000000	19.000000	12.000000
1.990000	63.480000	77.840000	448.000000	0.000000	155.000000	67.000000	20.000000	16.000000
2.000000	63.670000	78.030000	422.000000	0.000000	155.000000	67.000000	19.000000	19.000000
2.010000	63.830000	78.270000	399.000000	0.000000	155.000000	67.000000	16.000000	24.000000
2.020000	63.980000	78.540000	384.000000	0.000000	156.000000	66.000000	15.000000	27.000000
2.030000	64.080000	78.790000	364.000000	0.000000	156.000000	66.000000	10.000000	25.000000
2.040000	64.080000	79.040000	348.000000	0.000000	156.000000	66.000000	0.000000	25.000000
2.050000	64.080000	79.290000	346.000000	0.000000	156.000000	66.000000	0.000000	25.000000
2.060000	63.990000	79.430000	343.000000	0.000000	155.000000	65.000000	-9.000000	14.000000
2.070000	63.870000	79.520000	346.000000	0.000000	155.000000	65.000000	-12.000000	9.000000
2.080000	63.730000	79.520000	348.000000	0.000000	154.000000	66.000000	-14.000000	0.000000
2.090000	63.600000	79.440000	361.000000	0.000000	154.000000	66.000000	-13.000000	-8.000000
2.100000	63.470000	79.320000	371.000000	0.000000	156.000000	66.000000	-13.000000	-12.000000
2.110000	63.370000	79.150000	369.000000	0.000000	156.000000	66.000000	-10.000000	-17.000000
2.120000	63.300000	78.940000	381.000000	0.000000	156.000000	66.000000	-7.000000	-21.000000
2.130000	63.300000	78.700000	389.000000	0.000000	156.000000	66.000000	0.000000	-24.000000
2.140000	63.300000	78.470000	389.000000	0.000000	156.000000	66.000000	0.000000	-23.000000
2.150000	63.390000	78.270000	396.000000	0.000000	156.000000	66.000000	9.000000	-20.000000
2.160000	63.540000	78.060000	412.000000	0.000000	156.000000	66.000000	15.000000	-21.000000
2.170000	63.730000	77.900000	433.000000	0.000000	156.000000	66.000000	19.000000	-16.000000
2.180000	63.950000	77.780000	467.000000	0.000000	156.000000	66.000000	22.000000	-12.000000
2.190000	64.210000	77.780000	492.000000	0.000000	156.000000	66.000000	26.000000	0.000000
2.200000	64.490000	77.850000	521.000000	0.000000	156.000000	66.000000	28.000000	7.000000
2.210000	64.790000	78.010000	519.000000	0.000000	156.000000	66.000000	30.000000	16.000000
2.220000	65.130000	78.390000	521.000000	0.000000	156.000000	66.000000	34.000000	38.000000
2.230000	65.460000	78.860000	530.000000	0.000000	156.000000	66.000000	33.000000	47.000000
