t	x	y	pressure	penup	azimuth	inclination	v_x	v_y
0.000000	13.300000	29.620000	394.000000	1.000000	143.000000	62.000000	0.000000	0.000000
0.010000	13.420000	29.120000	425.000000	0.000000	144.000000	61.000000	12.000000	-50.000000
0.020000	13.290000	29.330000	420.000000	0.000000	146.000000	62.000000	-13.000000	21.000000
0.030000	13.290000	28.990000	458.000000	0.000000	146.000000	62.000000	0.000000	-34.000000
0.040000	13.290000	28.200000	522.000000	0.000000	146.000000	62.000000	0.000000	-79.000000
0.050000	13.340000	27.120000	577.000000	0.000000	146.000000	62.000000	5.000000	-108.000000
0.060000	13.480000	26.080000	611.000000	0.000000	146.000000	62.000000	14.000000	-104.000000
0.070000	13.790000	25.410000	666.000000	0.000000	146.000000	63.000000	31.000000	-67.000000
0.080000	14.210000	25.000000	734.000000	0.000000	146.000000	63.000000	42.000000	-41.000000
0.090000	14.760000	24.920000	827.000000	0.000000	146.000000	64.000000	55.000000	-8.000000
0.100000	15.310000	25.300000	899.000000	0.000000	146.000000	64.000000	55.000000	38.000000
0.110000	15.850000	25.990000	946.000000	0.000000	147.000000	65.000000	54.000000	69.000000
0.120000	16.010000	27.030000	999.000000	0.000000	147.000000	65.000000	16.000000	104.000000
0.130000	15.930000	28.340000	1023.000000	0.000000	147.000000	65.000000	-8.000000	131.000000
0.140000	15.660000	29.820000	1023.000000	0.000000	147.000000	65.000000	-27.000000	148.000000
0.150000	15.130000	31.290000	997.000000	0.000000	148.000000	65.000000	-53.000000	147.000000
0.160000	14.430000	32.980000	968.000000	0.000000	148.000000	65.000000	-70.000000	169.000000
0.170000	13.760000	34.820000	933.000000	0.000000	148.000000	63.000000	-67.000000	184.000000
0.180000	13.390000	35.990000	790.000000	0.000000	146.000000	63.000000	-37.000000	117.000000
0.190000	13.210000	36.510000	149.000000	0.000000	146.000000	62.000000	-18.000000	52.000000
0.200000	13.210000	36.510000	0.000000	1.000000	144.000000	61.000000	0.000000	0.000000
0.210000	13.410000	36.510000	0.000000	0.000000	144.000000	60.000000	20.000000	0.000000
0.220000	13.740000	36.390000	0.000000	0.000000	144.000000	60.000000	33.000000	-12.000000
0.230000	14.360000	36.200000	0.000000	0.000000	143.000000	59.000000	62.000000	-19.000000
0.240000	15.240000	35.720000	0.000000	0.000000	144.000000	58.000000	88.000000	-48.000000
0.250000	16.280000	35.060000	0.000000	0.000000	144.000000	57.000000	104.000000	-66.000000
0.260000	17.540000	34.920000	0.000000	0.000000	144.000000	56.000000	126.000000	-14.000000
0.270000	18.790000	34.550000	0.000000	0.000000	144.000000	54.000000	125.000000	-37.000000
0.280000	20.010000	34.030000	0.000000	0.000000	145.000000	53.000000	122.000000	-52.000000
0.290000	21.040000	33.530000	0.000000	0.000000	144.000000	51.000000	103.000000	-50.000000
0.300000	21.970000	32.980000	0.000000	0.000000	143.000000	51.000000	93.000000	-55.000000
0.310000	22.630000	32.340000	0.000000	0.000000	143.000000	50.000000	66.000000	-64.000000
0.320000	22.960000	31.740000	0.000000	0.000000	141.000000	50.000000	33.000000	-60.000000
0.330000	23.070000	31.180000	0.000000	0.000000	141.000000	50.000000	11.000000	-56.000000
0.340000	22.970000	30.470000	0.000000	0.000000	140.000000	51.000000	-10.000000	-71.000000
0.350000	22.600000	30.150000	0.000000	0.000000	139.000000	52.000000	-37.000000	-32.000000
0.360000	22.060000	30.100000	0.000000	0.000000	139.000000	54.000000	-54.000000	-5.000000
0.370000	21.350000	29.640000	0.000000	0.000000	136.000000	55.000000	-71.000000	-46.000000
0.380000	20.610000	29.170000	0.000000	0.000000	135.000000	55.000000	-74.000000	-47.000000
0.390000	19.860000	28.710000	0.000000	0.000000	132.000000	57.000000	-75.000000	-46.000000
0.400000	19.390000	28.330000	0.000000	0.000000	131.000000	57.000000	-47.000000	-38.000000
0.410000	19.200000	28.000000	0.000000	0.000000	128.000000	57.000000	-19.000000	-33.000000
0.420000	19.200000	27.930000	0.000000	0.000000	128.000000	57.000000	0.000000	-7.000000
0.430000	19.000000	28.050000	0.000000	0.000000	127.000000	57.000000	-20.000000	12.000000
0.440000	19.000000	28.300000	0.000000	0.000000	127.000000	57.000000	0.000000	25.000000
0.450000	19.220000	28.440000	0.000000	0.000000	128.000000	58.000000	22.000000	14.000000
0.460000	19.540000	28.720000	0.000000	0.000000	130.000000	58.000000	32.000000	28.000000
0.470000	19.540000	28.720000	12.000000	0.000000	131.000000	58.000000	0.000000	0.000000
0.480000	19.080000	29.090000	129.000000	1.000000	132.000000	58.000000	0.000000	0.000000
0.490000	18.850000	29.220000	284.000000	0.000000	135.000000	58.000000	-23.000000	13.000000
0.500000	18.590000	29.330000	440.000000	0.000000	135.000000	58.000000	-26.000000	11.000000
0.510000	18.310000	29.380000	541.000000	0.000000	138.000000	58.000000	-28.000000	5.000000
0.520000	18.100000	29.380000	641.000000	0.000000	139.000000	57.000000	-21.000000	0.000000
0.530000	17.900000	29.380000	669.000000	0.000000	139.000000	57.000000	-20.000000	0.000000
0.540000	17.740000	29.080000	697.000000	0.000000	139.000000	57.000000	-16.000000	-30.000000
0.550000	17.570000	28.670000	727.000000	0.000000	140.000000	56.000000	-17.000000	-41.000000
0.560000	17.460000	28.000000	748.000000	0.000000	142.000000	57.000000	-11.000000	-67.000000
0.570000	17.510000	27.330000	748.000000	0.000000	142.000000	57.000000	5.000000	-67.000000
0.580000	17.670000	26.880000	733.000000	0.000000	140.000000	58.000000	16.000000	-45.000000
0.590000	17.930000	26.580000	719.000000	0.000000	140.000000	58.000000	26.000000	-30.000000
0.600000	18.240000	26.580000	724.000000	0.000000	139.000000	58.000000	31.000000	0.000000
0.610000	18.630000	26.870000	731.000000	0.000000	139.000000	58.000000	39.000000	29.000000
0.620000	18.850000	27.390000	721.000000	0.000000	138.000000	59.000000	22.000000	52.000000
0.630000	18.960000	28.130000	725.000000	0.000000	138.000000	59.000000	11.000000	74.000000
0.640000	18.870000	28.820000	733.000000	0.000000	136.000000	58.000000	-9.000000	69.000000
0.650000	18.600000	29.490000	736.000000	0.000000	136.000000	58.000000	-27.000000	67.000000
0.660000	18.200000	29.850000	745.000000	0.000000	136.000000	58.000000	-40.000000	36.000000
0.670000	17.990000	29.940000	748.000000	0.000000	138.000000	58.000000	-21.000000	9.000000
0.680000	17.930000	29.850000	751.000000	0.000000	138.000000	58.000000	-6.000000	-9.000000
0.690000	17.930000	29.570000	755.000000	0.000000	139.000000	57.000000	0.000000	-28.000000
0.700000	18.050000	29.040000	761.000000	0.000000	139.000000	57.000000	12.000000	-53.000000
0.710000	18.170000	28.350000	753.000000	0.000000	140.000000	56.000000	12.000000	-69.000000
0.720000	18.380000	27.810000	753.000000	0.000000	140.000000	56.000000	21.000000	-54.000000
0.730000	18.720000	27.500000	751.000000	0.000000	140.000000	56.000000	34.000000	-31.000000
0.740000	19.140000	27.340000	751.000000	0.000000	139.000000	57.000000	42.000000	-16.000000
0.750000	19.580000	27.480000	757.000000	0.000000	139.000000	57.000000	44.000000	14.000000
0.760000	20.010000	27.880000	758.000000	0.000000	139.000000	57.000000	43.000000	40.000000
0.770000	20.280000	28.460000	758.000000	0.000000	139.000000	57.000000	27.000000	58.000000
0.780000	20.440000	29.010000	750.000000	0.000000	138.000000	58.000000	16.000000	55.000000
0.790000	20.490000	29.550000	767.000000	0.000000	138.000000	58.000000	5.000000	54.000000
0.800000	20.490000	29.860000	794.000000	0.000000	138.000000	58.000000	0.000000	31.000000
0.810000	20.490000	30.030000	790.000000	0.000000	138.000000	58.000000	0.000000	17.000000
0.820000	20.490000	30.030000	787.000000	0.000000	138.000000	58.000000	0.000000	0.000000
0.830000	20.490000	29.940000	787.000000	0.000000	138.000000	58.000000	0.000000	-9.000000
0.840000	20.490000	29.770000	787.000000	0.000000	138.000000	58.000000	0.000000	-17.000000
0.850000	20.550000	29.440000	784.000000	0.000000	139.000000	57.000000	6.000000	-33.000000
0.860000	20.610000	29.010000	797.000000	0.000000	139.000000	57.000000	6.000000	-43.000000
0.870000	20.670000	28.790000	784.000000	0.000000	139.000000	57.000000	6.000000	-22.000000
0.880000	20.890000	28.690000	794.000000	0.000000	138.000000	58.000000	22.000000	-10.000000
0.890000	21.210000	28.690000	783.000000	0.000000	138.000000	58.000000	32.000000	0.000000
0.900000	21.590000	28.880000	788.000000	0.000000	138.000000	58.000000	38.000000	19.000000
0.910000	21.890000	29.230000	796.000000	0.000000	138.000000	58.000000	30.000000	35.000000
0.920000	22.080000	29.670000	800.000000	0.000000	138.000000	58.000000	19.000000	44.000000
0.930000	22.190000	30.110000	785.000000	0.000000	138.000000	58.000000	11.000000	44.000000
0.940000	22.290000	30.570000	794.000000	0.000000	138.000000	58.000000	10.000000	46.000000
0.950000	22.420000	31.050000	788.000000	0.000000	138.000000	58.000000	13.000000	48.000000
0.960000	22.600000	31.250000	787.000000	0.000000	138.000000	58.000000	18.000000	20.000000
0.970000	22.730000	31.250000	796.000000	0.000000	138.000000	58.000000	13.000000	0.000000
0.980000	22.830000	31.070000	783.000000	0.000000	138.000000	58.000000	10.000000	-18.000000
0.990000	22.920000	30.690000	793.000000	0.000000	139.000000	57.000000	9.000000	-38.000000
1.000000	23.000000	30.180000	796.000000	0.000000	139.000000	57.000000	8.000000	-51.000000
1.010000	23.060000	29.720000	799.000000	0.000000	139.000000	57.000000	6.000000	-46.000000
1.020000	23.260000	29.420000	785.000000	0.000000	139.000000	57.000000	20.000000	-30.000000
1.030000	23.480000	29.240000	794.000000	0.000000	140.000000	58.000000	22.000000	-18.000000
1.040000	23.730000	29.240000	784.000000	0.000000	139.000000	58.000000	25.000000	0.000000
1.050000	24.050000	29.520000	787.000000	0.000000	139.000000	58.000000	32.000000	28.000000
1.060000	24.420000	29.930000	790.000000	0.000000	139.000000	58.000000	37.000000	41.000000
1.070000	24.560000	30.420000	790.000000	0.000000	139.000000	58.000000	14.000000	49.000000
1.080000	24.560000	30.890000	785.000000	0.000000	139.000000	58.000000	0.000000	47.000000
1.090000	24.420000	31.280000	797.000000	0.000000	139.000000	58.000000	-14.000000	39.000000
1.100000	24.300000	31.570000	790.000000	0.000000	139.000000	58.000000	-12.000000	29.000000
1.110000	24.200000	31.670000	794.000000	0.000000	139.000000	58.000000	-10.000000	10.000000
1.120000	24.150000	31.670000	790.000000	0.000000	139.000000	58.000000	-5.000000	0.000000
1.130000	24.150000	31.540000	788.000000	0.000000	139.000000	58.000000	0.000000	-13.000000
1.140000	24.150000	31.540000	793.000000	0.000000	138.000000	58.000000	0.000000	0.000000
1.150000	24.300000	31.100000	783.000000	0.000000	138.000000	58.000000	15.000000	-44.000000
1.160000	24.450000	30.830000	794.000000	0.000000	139.000000	57.000000	15.000000	-27.000000
1.170000	24.620000	30.580000	785.000000	0.000000	139.000000	57.000000	17.000000	-25.000000
1.180000	24.770000	30.430000	724.000000	0.000000	139.000000	57.000000	15.000000	-15.000000
1.190000	24.910000	30.360000	625.000000	0.000000	138.000000	58.000000	14.000000	-7.000000
1.200000	25.020000	30.360000	342.000000	0.000000	138.000000	58.000000	11.000000	0.000000
1.210000	25.020000	30.360000	0.000000	1.000000	138.000000	58.000000	0.000000	0.000000
1.220000	25.210000	30.540000	0.000000	0.000000	138.000000	58.000000	19.000000	18.000000
1.230000	25.210000	31.330000	0.000000	0.000000	138.000000	58.000000	0.000000	79.000000
1.240000	25.060000	31.970000	0.000000	0.000000	138.000000	58.000000	-15.000000	64.000000
1.250000	24.650000	32.520000	0.000000	0.000000	138.000000	58.000000	-41.000000	55.000000
1.260000	24.240000	33.300000	0.000000	0.000000	138.000000	58.000000	-41.000000	78.000000
1.270000	23.830000	34.040000	0.000000	0.000000	138.000000	58.000000	-41.000000	74.000000
1.280000	23.830000	34.220000	0.000000	0.000000	138.000000	58.000000	0.000000	18.000000
1.290000	23.830000	34.220000	297.000000	1.000000	138.000000	58.000000	0.000000	0.000000
1.300000	24.290000	33.420000	420.000000	0.000000	138.000000	57.000000	46.000000	-80.000000
1.310000	24.290000	33.050000	269.000000	0.000000	138.000000	57.000000	0.000000	-37.000000
1.320000	24.290000	33.050000	0.000000	1.000000	136.000000	57.000000	0.000000	0.000000
1.330000	24.420000	32.290000	0.000000	0.000000	136.000000	57.000000	13.000000	-76.000000
1.340000	24.500000	31.990000	0.000000	0.000000	136.000000	57.000000	8.000000	-30.000000
1.350000	24.560000	31.870000	0.000000	0.000000	138.000000	58.000000	6.000000	-12.000000
1.360000	24.870000	31.660000	0.000000	0.000000	138.000000	58.000000	31.000000	-21.000000
1.370000	25.340000	31.390000	0.000000	0.000000	138.000000	58.000000	47.000000	-27.000000
1.380000	25.910000	31.030000	0.000000	0.000000	138.000000	58.000000	57.000000	-36.000000
1.390000	25.910000	31.030000	399.000000	1.000000	138.000000	58.000000	0.000000	0.000000
1.400000	26.740000	30.670000	480.000000	0.000000	138.000000	58.000000	83.000000	-36.000000
1.410000	26.810000	30.670000	603.000000	0.000000	138.000000	58.000000	7.000000	0.000000
1.420000	27.010000	30.840000	699.000000	0.000000	138.000000	58.000000	20.000000	17.000000
1.430000	27.130000	31.110000	751.000000	0.000000	138.000000	58.000000	12.000000	27.000000
1.440000	27.130000	31.600000	814.000000	0.000000	138.000000	58.000000	0.000000	49.000000
1.450000	27.130000	32.180000	861.000000	0.000000	136.000000	57.000000	0.000000	58.000000
1.460000	27.130000	32.830000	908.000000	0.000000	136.000000	57.000000	0.000000	65.000000
1.470000	27.130000	33.600000	908.000000	0.000000	136.000000	57.000000	0.000000	77.000000
1.480000	27.130000	34.580000	896.000000	0.000000	136.000000	57.000000	0.000000	98.000000
1.490000	27.130000	35.690000	906.000000	0.000000	136.000000	57.000000	0.000000	111.000000
1.500000	27.070000	36.720000	908.000000	0.000000	136.000000	57.000000	-6.000000	103.000000
1.510000	26.880000	37.270000	900.000000	0.000000	136.000000	57.000000	-19.000000	55.000000
1.520000	26.580000	37.500000	893.000000	0.000000	136.000000	57.000000	-30.000000	23.000000
1.530000	26.160000	37.500000	900.000000	0.000000	136.000000	57.000000	-42.000000	0.000000
1.540000	25.650000	37.080000	891.000000	0.000000	138.000000	58.000000	-51.000000	-42.000000
1.550000	25.320000	36.440000	887.000000	0.000000	138.000000	58.000000	-33.000000	-64.000000
1.560000	25.230000	35.480000	881.000000	0.000000	138.000000	58.000000	-9.000000	-96.000000
1.570000	25.290000	34.480000	884.000000	0.000000	139.000000	58.000000	6.000000	-100.000000
1.580000	25.700000	33.430000	896.000000	0.000000	139.000000	58.000000	41.000000	-105.000000
1.590000	26.310000	32.370000	902.000000	0.000000	139.000000	58.000000	61.000000	-106.000000
1.600000	27.050000	31.420000	912.000000	0.000000	139.000000	58.000000	74.000000	-95.000000
1.610000	27.810000	30.730000	900.000000	0.000000	138.000000	59.000000	76.000000	-69.000000
1.620000	28.470000	30.210000	805.000000	0.000000	138.000000	59.000000	66.000000	-52.000000
1.630000	29.070000	30.060000	557.000000	0.000000	136.000000	58.000000	60.000000	-15.000000
1.640000	29.070000	30.060000	0.000000	1.000000	136.000000	58.000000	0.000000	0.000000
1.650000	29.570000	30.430000	0.000000	0.000000	136.000000	58.000000	50.000000	37.000000
1.660000	29.510000	31.040000	0.000000	0.000000	135.000000	58.000000	-6.000000	61.000000
1.670000	29.280000	31.680000	0.000000	0.000000	135.000000	58.000000	-23.000000	64.000000
1.680000	29.070000	32.330000	0.000000	0.000000	134.000000	57.000000	-21.000000	65.000000
1.690000	28.900000	32.890000	0.000000	0.000000	134.000000	57.000000	-17.000000	56.000000
1.700000	29.070000	33.300000	0.000000	0.000000	132.000000	57.000000	17.000000	41.000000
1.710000	29.450000	33.610000	0.000000	0.000000	132.000000	55.000000	38.000000	31.000000
1.720000	29.750000	33.870000	0.000000	0.000000	133.000000	54.000000	30.000000	26.000000
1.730000	30.400000	34.070000	0.000000	0.000000	131.000000	54.000000	65.000000	20.000000
1.740000	31.270000	34.240000	0.000000	0.000000	131.000000	52.000000	87.000000	17.000000
1.750000	32.060000	34.430000	0.000000	0.000000	132.000000	51.000000	79.000000	19.000000
1.760000	32.660000	34.580000	0.000000	0.000000	133.000000	51.000000	60.000000	15.000000
1.770000	33.120000	34.580000	0.000000	0.000000	134.000000	50.000000	46.000000	0.000000
1.780000	33.120000	34.580000	0.000000	0.000000	134.000000	50.000000	0.000000	0.000000
1.790000	32.850000	34.420000	0.000000	0.000000	134.000000	50.000000	-27.000000	-16.000000
1.800000	32.420000	34.230000	0.000000	0.000000	135.000000	51.000000	-43.000000	-19.000000
1.810000	31.940000	33.990000	0.000000	0.000000	135.000000	51.000000	-48.000000	-24.000000
1.820000	31.450000	33.720000	0.000000	0.000000	135.000000	52.000000	-49.000000	-27.000000
1.830000	30.940000	33.260000	0.000000	0.000000	135.000000	52.000000	-51.000000	-46.000000
1.840000	30.690000	32.670000	0.000000	0.000000	135.000000	52.000000	-25.000000	-59.000000
1.850000	30.690000	31.990000	0.000000	0.000000	134.000000	52.000000	0.000000	-68.000000
1.860000	30.690000	31.990000	614.000000	1.000000	135.000000	53.000000	0.000000	0.000000
1.870000	31.280000	30.070000	749.000000	0.000000	134.000000	54.000000	59.000000	-192.000000
1.880000	31.280000	30.340000	757.000000	0.000000	135.000000	54.000000	0.000000	27.000000
1.890000	30.960000	30.410000	793.000000	0.000000	134.000000	55.000000	-32.000000	7.000000
1.900000	31.020000	30.350000	866.000000	0.000000	135.000000	55.000000	6.000000	-6.000000
1.910000	31.090000	30.500000	891.000000	0.000000	135.000000	57.000000	7.000000	15.000000
1.920000	31.330000	31.200000	899.000000	0.000000	135.000000	57.000000	24.000000	70.000000
1.930000	31.690000	32.260000	947.000000	0.000000	134.000000	57.000000	36.000000	106.000000
1.940000	31.870000	33.780000	980.000000	0.000000	134.000000	57.000000	18.000000	152.000000
1.950000	31.750000	35.280000	1006.000000	0.000000	132.000000	58.000000	-12.000000	150.000000
1.960000	31.420000	36.440000	1023.000000	0.000000	132.000000	58.000000	-33.000000	116.000000
1.970000	31.030000	37.370000	1023.000000	0.000000	132.000000	58.000000	-39.000000	93.000000
1.980000	30.680000	37.890000	1023.000000	0.000000	134.000000	58.000000	-35.000000	52.000000
1.990000	30.350000	38.110000	1023.000000	0.000000	135.000000	58.000000	-33.000000	22.000000
2.000000	30.150000	38.110000	1023.000000	0.000000	135.000000	58.000000	-20.000000	0.000000
2.010000	30.150000	38.000000	1023.000000	0.000000	136.000000	57.000000	0.000000	-11.000000
2.020000	30.150000	37.410000	1023.000000	0.000000	138.000000	57.000000	0.000000	-59.000000
2.030000	30.370000	36.520000	1023.000000	0.000000	138.000000	57.000000	22.000000	-89.000000
2.040000	30.720000	35.420000	1023.000000	0.000000	138.000000	57.000000	35.000000	-110.000000
2.050000	31.170000	34.390000	1023.000000	0.000000	138.000000	57.000000	45.000000	-103.000000
2.060000	31.800000	33.410000	1014.000000	0.000000	136.000000	57.000000	63.000000	-98.000000
2.070000	32.470000	32.810000	991.000000	0.000000	136.000000	57.000000	67.000000	-60.000000
2.080000	33.180000	32.680000	991.000000	0.000000	135.000000	58.000000	71.000000	-13.000000
2.090000	33.720000	32.860000	1015.000000	0.000000	134.000000	58.000000	54.000000	18.000000
2.100000	34.160000	33.400000	1023.000000	0.000000	132.000000	58.000000	44.000000	54.000000
2.110000	34.320000	34.130000	1023.000000	0.000000	131.000000	58.000000	16.000000	73.000000
2.120000	34.320000	34.990000	1023.000000	0.000000	131.000000	58.000000	0.000000	86.000000
2.130000	34.160000	35.980000	1023.000000	0.000000	131.000000	58.000000	-16.000000	99.000000
2.140000	33.730000	37.160000	1023.000000	0.000000	131.000000	58.000000	-43.000000	118.000000
2.150000	33.130000	38.480000	1023.000000	0.000000	132.000000	59.000000	-60.000000	132.000000
2.160000	32.410000	39.570000	1023.000000	0.000000	132.000000	59.000000	-72.000000	109.000000
2.170000	32.090000	39.910000	1023.000000	0.000000	134.000000	58.000000	-32.000000	34.000000
2.180000	31.800000	39.750000	1023.000000	0.000000	136.000000	58.000000	-29.000000	-16.000000
2.190000	31.560000	39.270000	1023.000000	0.000000	138.000000	58.000000	-24.000000	-48.000000
2.200000	31.320000	38.310000	1023.000000	0.000000	139.000000	57.000000	-24.000000	-96.000000
