t	x	y	pressure	penup	azimuth	inclination	v_x	v_y
0.000000	20.660000	51.150000	120.000000	1.000000	114.000000	59.000000	0.000000	0.000000
0.010000	20.750000	50.820000	139.000000	0.000000	117.000000	59.000000	9.000000	-33.000000
0.020000	20.840000	50.140000	216.000000	0.000000	117.000000	59.000000	9.000000	-68.000000
0.030000	21.170000	49.180000	304.000000	0.000000	118.000000	60.000000	33.000000	-96.000000
0.040000	21.520000	47.830000	422.000000	0.000000	119.000000	61.000000	35.000000	-135.000000
0.050000	21.900000	46.470000	477.000000	0.000000	119.000000	61.000000	38.000000	-136.000000
0.060000	22.290000	45.170000	518.000000	0.000000	118.000000	62.000000	39.000000	-130.000000
0.070000	22.530000	43.920000	565.000000	0.000000	117.000000	63.000000	24.000000	-125.000000
0.080000	22.680000	42.920000	616.000000	0.000000	117.000000	63.000000	15.000000	-100.000000
0.090000	22.600000	42.140000	670.000000	0.000000	117.000000	65.000000	-8.000000	-78.000000
0.100000	22.320000	41.500000	719.000000	0.000000	115.000000	65.000000	-28.000000	-64.000000
0.110000	21.910000	41.020000	758.000000	0.000000	115.000000	65.000000	-41.000000	-48.000000
0.120000	21.450000	40.780000	750.000000	0.000000	113.000000	65.000000	-46.000000	-24.000000
0.130000	21.000000	40.690000	673.000000	0.000000	113.000000	65.000000	-45.000000	-9.000000
0.140000	20.480000	40.890000	450.000000	0.000000	113.000000	65.000000	-52.000000	20.000000
0.150000	20.480000	40.890000	0.000000	1.000000	113.000000	65.000000	0.000000	0.000000
0.160000	19.440000	42.660000	0.000000	0.000000	113.000000	65.000000	-104.000000	177.000000
0.170000	19.440000	43.690000	0.000000	0.000000	113.000000	65.000000	0.000000	103.000000
0.180000	19.650000	44.200000	0.000000	0.000000	112.000000	64.000000	21.000000	51.000000
0.190000	20.140000	44.360000	0.000000	0.000000	112.000000	64.000000	49.000000	16.000000
0.200000	20.660000	44.360000	0.000000	0.000000	112.000000	64.000000	52.000000	0.000000
0.210000	21.240000	44.260000	0.000000	0.000000	112.000000	64.000000	58.000000	-10.000000
0.220000	21.730000	44.130000	0.000000	0.000000	113.000000	63.000000	49.000000	-13.000000
0.230000	22.170000	43.980000	0.000000	0.000000	113.000000	63.000000	44.000000	-15.000000
0.240000	22.570000	43.920000	0.000000	0.000000	113.000000	63.000000	40.000000	-6.000000
0.250000	22.990000	43.920000	0.000000	0.000000	113.000000	63.000000	42.000000	0.000000
0.260000	23.430000	43.870000	0.000000	0.000000	115.000000	63.000000	44.000000	-5.000000
0.270000	23.760000	43.820000	0.000000	0.000000	116.000000	64.000000	33.000000	-5.000000
0.280000	24.030000	43.820000	0.000000	0.000000	116.000000	64.000000	27.000000	0.000000
0.290000	24.220000	43.970000	0.000000	0.000000	117.000000	63.000000	19.000000	15.000000
0.300000	24.380000	44.160000	0.000000	0.000000	119.000000	64.000000	16.000000	19.000000
0.310000	24.530000	44.340000	0.000000	0.000000	119.000000	64.000000	15.000000	18.000000
0.320000	24.620000	44.490000	0.000000	0.000000	119.000000	64.000000	9.000000	15.000000
0.330000	24.620000	44.610000	0.000000	0.000000	120.000000	65.000000	0.000000	12.000000
0.340000	24.620000	44.710000	0.000000	0.000000	120.000000	65.000000	0.000000	10.000000
0.350000	24.620000	44.780000	0.000000	0.000000	120.000000	65.000000	0.000000	7.000000
0.360000	24.620000	44.780000	0.000000	0.000000	118.000000	65.000000	0.000000	0.000000
0.370000	24.680000	44.780000	0.000000	0.000000	118.000000	65.000000	6.000000	0.000000
0.380000	24.740000	44.780000	0.000000	0.000000	118.000000	65.000000	6.000000	0.000000
0.390000	24.790000	44.710000	0.000000	0.000000	118.000000	65.000000	5.000000	-7.000000
0.400000	24.840000	44.710000	0.000000	0.000000	118.000000	65.000000	5.000000	0.000000
0.410000	24.930000	44.660000	0.000000	0.000000	116.000000	66.000000	9.000000	-5.000000
0.420000	25.010000	44.660000	0.000000	0.000000	116.000000	66.000000	8.000000	0.000000
0.430000	25.090000	44.660000	0.000000	0.000000	116.000000	66.000000	8.000000	0.000000
0.440000	25.170000	44.660000	0.000000	0.000000	116.000000	66.000000	8.000000	0.000000
0.450000	25.250000	44.660000	0.000000	0.000000	115.000000	67.000000	8.000000	0.000000
0.460000	25.320000	44.810000	0.000000	0.000000	115.000000	67.000000	7.000000	15.000000
0.470000	25.320000	45.030000	0.000000	0.000000	115.000000	67.000000	0.000000	22.000000
0.480000	25.320000	45.350000	0.000000	0.000000	115.000000	67.000000	0.000000	32.000000
0.490000	25.180000	45.740000	0.000000	0.000000	115.000000	67.000000	-14.000000	39.000000
0.500000	25.180000	45.740000	53.000000	1.000000	115.000000	67.000000	0.000000	0.000000
0.510000	24.760000	46.420000	177.000000	0.000000	115.000000	67.000000	-42.000000	68.000000
0.520000	24.480000	46.520000	274.000000	0.000000	115.000000	67.000000	-28.000000	10.000000
0.530000	24.200000	46.520000	377.000000	0.000000	115.000000	67.000000	-28.000000	0.000000
0.540000	23.960000	46.260000	422.000000	0.000000	115.000000	67.000000	-24.000000	-26.000000
0.550000	23.800000	45.710000	467.000000	0.000000	115.000000	67.000000	-16.000000	-55.000000
0.560000	23.720000	44.940000	512.000000	0.000000	114.000000	66.000000	-8.000000	-77.000000
0.570000	23.720000	44.130000	548.000000	0.000000	114.000000	66.000000	0.000000	-81.000000
0.580000	23.770000	43.490000	565.000000	0.000000	114.000000	66.000000	5.000000	-64.000000
0.590000	23.930000	42.970000	551.000000	0.000000	114.000000	66.000000	16.000000	-52.000000
0.600000	24.170000	42.680000	530.000000	0.000000	114.000000	66.000000	24.000000	-29.000000
0.610000	24.390000	42.680000	501.000000	0.000000	114.000000	66.000000	22.000000	0.000000
0.620000	24.590000	42.760000	461.000000	0.000000	114.000000	66.000000	20.000000	8.000000
0.630000	24.800000	43.220000	396.000000	0.000000	114.000000	66.000000	21.000000	46.000000
0.640000	24.940000	43.850000	348.000000	0.000000	114.000000	66.000000	14.000000	63.000000
0.650000	25.040000	44.600000	359.000000	0.000000	115.000000	67.000000	10.000000	75.000000
0.660000	25.040000	44.980000	397.000000	0.000000	115.000000	67.000000	0.000000	38.000000
0.670000	25.090000	45.040000	443.000000	0.000000	115.000000	67.000000	5.000000	6.000000
0.680000	25.090000	44.900000	485.000000	0.000000	115.000000	67.000000	0.000000	-14.000000
0.690000	25.150000	44.540000	530.000000	0.000000	115.000000	67.000000	6.000000	-36.000000
0.700000	25.240000	44.010000	565.000000	0.000000	115.000000	67.000000	9.000000	-53.000000
0.710000	25.370000	43.370000	566.000000	0.000000	115.000000	67.000000	13.000000	-64.000000
0.720000	25.570000	42.850000	566.000000	0.000000	116.000000	68.000000	20.000000	-52.000000
0.730000	25.820000	42.590000	562.000000	0.000000	116.000000	68.000000	25.000000	-26.000000
0.740000	26.050000	42.500000	541.000000	0.000000	116.000000	68.000000	23.000000	-9.000000
0.750000	26.230000	42.500000	491.000000	0.000000	116.000000	68.000000	18.000000	0.000000
0.760000	26.390000	42.910000	423.000000	0.000000	116.000000	68.000000	16.000000	41.000000
0.770000	26.620000	43.490000	369.000000	0.000000	116.000000	68.000000	23.000000	58.000000
0.780000	26.800000	44.130000	369.000000	0.000000	116.000000	68.000000	18.000000	64.000000
0.790000	26.940000	44.700000	367.000000	0.000000	112.000000	67.000000	14.000000	57.000000
0.800000	27.110000	44.910000	399.000000	0.000000	111.000000	67.000000	17.000000	21.000000
0.810000	27.260000	44.910000	420.000000	0.000000	111.000000	67.000000	15.000000	0.000000
0.820000	27.400000	44.650000	456.000000	0.000000	111.000000	67.000000	14.000000	-26.000000
0.830000	27.540000	44.340000	504.000000	0.000000	110.000000	66.000000	14.000000	-31.000000
0.840000	27.700000	43.910000	519.000000	0.000000	110.000000	66.000000	16.000000	-43.000000
0.850000	27.880000	43.420000	530.000000	0.000000	110.000000	66.000000	18.000000	-49.000000
0.860000	28.040000	43.150000	532.000000	0.000000	110.000000	65.000000	16.000000	-27.000000
0.870000	28.150000	43.070000	522.000000	0.000000	110.000000	65.000000	11.000000	-8.000000
0.880000	28.240000	43.070000	491.000000	0.000000	110.000000	66.000000	9.000000	0.000000
0.890000	28.370000	43.360000	443.000000	0.000000	110.000000	66.000000	13.000000	29.000000
0.900000	28.460000	43.830000	368.000000	0.000000	110.000000	66.000000	9.000000	47.000000
0.910000	28.510000	44.450000	337.000000	0.000000	110.000000	66.000000	5.000000	62.000000
0.920000	28.610000	45.030000	339.000000	0.000000	110.000000	66.000000	10.000000	58.000000
0.930000	28.710000	45.290000	364.000000	0.000000	110.000000	66.000000	10.000000	26.000000
0.940000	28.830000	45.350000	422.000000	0.000000	110.000000	66.000000	12.000000	6.000000
0.950000	28.970000	45.140000	491.000000	0.000000	110.000000	66.000000	14.000000	-21.000000
0.960000	29.120000	44.710000	562.000000	0.000000	110.000000	66.000000	15.000000	-43.000000
0.970000	29.280000	44.130000	620.000000	0.000000	110.000000	66.000000	16.000000	-58.000000
0.980000	29.430000	43.510000	655.000000	0.000000	111.000000	67.000000	15.000000	-62.000000
0.990000	29.580000	42.960000	671.000000	0.000000	111.000000	67.000000	15.000000	-55.000000
1.000000	29.690000	42.620000	647.000000	0.000000	111.000000	67.000000	11.000000	-34.000000
1.010000	29.770000	42.410000	589.000000	0.000000	111.000000	67.000000	8.000000	-21.000000
1.020000	29.850000	42.460000	413.000000	0.000000	111.000000	67.000000	8.000000	5.000000
1.030000	29.850000	42.460000	0.000000	1.000000	111.000000	67.000000	0.000000	0.000000
1.040000	30.070000	43.410000	0.000000	0.000000	111.000000	67.000000	22.000000	95.000000
1.050000	30.260000	44.360000	0.000000	0.000000	111.000000	67.000000	19.000000	95.000000
1.060000	30.260000	45.370000	0.000000	0.000000	111.000000	67.000000	0.000000	101.000000
1.070000	30.160000	46.410000	0.000000	0.000000	111.000000	67.000000	-10.000000	104.000000
1.080000	30.160000	46.910000	0.000000	0.000000	111.000000	67.000000	0.000000	50.000000
1.090000	30.160000	46.910000	589.000000	1.000000	111.000000	67.000000	0.000000	0.000000
1.100000	30.160000	46.910000	653.000000	0.000000	113.000000	65.000000	0.000000	0.000000
1.110000	29.840000	46.910000	673.000000	0.000000	113.000000	65.000000	-32.000000	0.000000
1.120000	29.780000	46.910000	693.000000	0.000000	113.000000	65.000000	-6.000000	0.000000
1.130000	29.730000	46.860000	673.000000	0.000000	116.000000	66.000000	-5.000000	-5.000000
1.140000	29.670000	46.860000	491.000000	0.000000	116.000000	66.000000	-6.000000	0.000000
1.150000	29.670000	46.860000	0.000000	1.000000	116.000000	66.000000	0.000000	0.000000
1.160000	29.520000	46.980000	0.000000	0.000000	116.000000	66.000000	-15.000000	12.000000
1.170000	29.520000	47.070000	0.000000	0.000000	116.000000	66.000000	0.000000	9.000000
1.180000	29.680000	46.960000	0.000000	0.000000	118.000000	65.000000	16.000000	-11.000000
1.190000	29.880000	46.800000	0.000000	0.000000	118.000000	65.000000	20.000000	-16.000000
1.200000	30.090000	46.560000	0.000000	0.000000	118.000000	65.000000	21.000000	-24.000000
1.210000	30.310000	46.240000	0.000000	0.000000	119.000000	64.000000	22.000000	-32.000000
1.220000	30.530000	45.860000	0.000000	0.000000	117.000000	63.000000	22.000000	-38.000000
1.230000	30.750000	45.440000	0.000000	0.000000	117.000000	63.000000	22.000000	-42.000000
1.240000	30.840000	44.970000	0.000000	0.000000	119.000000	63.000000	9.000000	-47.000000
1.250000	30.840000	44.460000	0.000000	0.000000	118.000000	62.000000	0.000000	-51.000000
1.260000	30.840000	44.460000	414.000000	1.000000	118.000000	62.000000	0.000000	0.000000
1.270000	30.780000	43.700000	445.000000	0.000000	117.000000	63.000000	-6.000000	-76.000000
1.280000	30.780000	43.600000	339.000000	0.000000	117.000000	63.000000	0.000000	-10.000000
1.290000	30.780000	43.600000	343.000000	0.000000	117.000000	65.000000	0.000000	0.000000
1.300000	30.880000	43.600000	388.000000	0.000000	115.000000	65.000000	10.000000	0.000000
1.310000	31.020000	43.600000	417.000000	0.000000	116.000000	66.000000	14.000000	0.000000
1.320000	31.190000	43.680000	410.000000	0.000000	114.000000	66.000000	17.000000	8.000000
1.330000	31.470000	43.770000	412.000000	0.000000	115.000000	67.000000	28.000000	9.000000
1.340000	31.740000	43.840000	415.000000	0.000000	115.000000	67.000000	27.000000	7.000000
1.350000	31.930000	43.910000	417.000000	0.000000	115.000000	67.000000	19.000000	7.000000
1.360000	32.060000	44.000000	412.000000	0.000000	115.000000	67.000000	13.000000	9.000000
1.370000	32.330000	44.240000	394.000000	0.000000	115.000000	67.000000	27.000000	24.000000
1.380000	32.540000	44.580000	334.000000	0.000000	116.000000	68.000000	21.000000	34.000000
1.390000	32.710000	45.070000	287.000000	0.000000	116.000000	68.000000	17.000000	49.000000
1.400000	32.880000	45.710000	252.000000	0.000000	116.000000	68.000000	17.000000	64.000000
1.410000	32.950000	46.460000	209.000000	0.000000	116.000000	68.000000	7.000000	75.000000
1.420000	32.950000	47.260000	235.000000	0.000000	116.000000	68.000000	0.000000	80.000000
1.430000	32.830000	48.020000	260.000000	0.000000	116.000000	68.000000	-12.000000	76.000000
1.440000	32.590000	48.500000	292.000000	0.000000	118.000000	68.000000	-24.000000	48.000000
1.450000	32.270000	48.820000	373.000000	0.000000	118.000000	68.000000	-32.000000	32.000000
1.460000	31.990000	48.760000	417.000000	0.000000	122.000000	68.000000	-28.000000	-6.000000
1.470000	31.780000	48.390000	453.000000	0.000000	124.000000	67.000000	-21.000000	-37.000000
1.480000	31.680000	47.820000	496.000000	0.000000	124.000000	67.000000	-10.000000	-57.000000
1.490000	31.680000	46.940000	546.000000	0.000000	124.000000	67.000000	0.000000	-88.000000
1.500000	31.680000	45.870000	606.000000	0.000000	122.000000	67.000000	0.000000	-107.000000
1.510000	31.780000	44.670000	643.000000	0.000000	122.000000	67.000000	10.000000	-120.000000
1.520000	31.880000	43.540000	664.000000	0.000000	120.000000	67.000000	10.000000	-113.000000
1.530000	32.030000	42.660000	665.000000	0.000000	120.000000	67.000000	15.000000	-88.000000
1.540000	32.300000	41.960000	662.000000	0.000000	118.000000	68.000000	27.000000	-70.000000
1.550000	32.590000	41.660000	647.000000	0.000000	116.000000	68.000000	29.000000	-30.000000
1.560000	32.920000	41.660000	631.000000	0.000000	117.000000	69.000000	33.000000	0.000000
1.570000	33.260000	41.760000	595.000000	0.000000	117.000000	69.000000	34.000000	10.000000
1.580000	33.650000	42.200000	544.000000	0.000000	117.000000	69.000000	39.000000	44.000000
1.590000	34.060000	42.900000	442.000000	0.000000	117.000000	69.000000	41.000000	70.000000
1.600000	34.450000	43.780000	137.000000	0.000000	117.000000	69.000000	39.000000	88.000000
1.610000	34.450000	43.780000	0.000000	1.000000	117.000000	69.000000	0.000000	0.000000
1.620000	34.700000	44.890000	0.000000	0.000000	117.000000	69.000000	25.000000	111.000000
1.630000	34.490000	45.100000	0.000000	0.000000	117.000000	69.000000	-21.000000	21.000000
1.640000	34.310000	45.100000	0.000000	0.000000	117.000000	69.000000	-18.000000	0.000000
1.650000	34.170000	45.050000	0.000000	0.000000	117.000000	69.000000	-14.000000	-5.000000
1.660000	34.030000	44.990000	0.000000	0.000000	117.000000	69.000000	-14.000000	-6.000000
1.670000	34.100000	45.040000	0.000000	0.000000	116.000000	68.000000	7.000000	5.000000
1.680000	34.310000	45.150000	0.000000	0.000000	118.000000	68.000000	21.000000	11.000000
1.690000	34.870000	45.500000	0.000000	0.000000	118.000000	68.000000	56.000000	35.000000
1.700000	35.300000	45.850000	0.000000	0.000000	120.000000	67.000000	43.000000	35.000000
1.710000	35.650000	46.180000	0.000000	0.000000	122.000000	67.000000	35.000000	33.000000
1.720000	35.950000	46.240000	0.000000	0.000000	126.000000	67.000000	30.000000	6.000000
1.730000	36.100000	46.110000	0.000000	0.000000	130.000000	67.000000	15.000000	-13.000000
1.740000	36.100000	45.990000	0.000000	0.000000	131.000000	67.000000	0.000000	-12.000000
1.750000	36.000000	45.850000	0.000000	0.000000	135.000000	67.000000	-10.000000	-14.000000
1.760000	35.620000	45.680000	0.000000	0.000000	135.000000	67.000000	-38.000000	-17.000000
1.770000	35.080000	45.680000	0.000000	0.000000	137.000000	66.000000	-54.000000	0.000000
1.780000	34.570000	45.790000	0.000000	0.000000	135.000000	67.000000	-51.000000	11.000000
1.790000	34.080000	45.990000	0.000000	0.000000	135.000000	67.000000	-49.000000	20.000000
1.800000	33.620000	46.180000	0.000000	0.000000	133.000000	66.000000	-46.000000	19.000000
1.810000	33.290000	46.360000	0.000000	0.000000	132.000000	65.000000	-33.000000	18.000000
1.820000	33.030000	46.280000	0.000000	0.000000	130.000000	65.000000	-26.000000	-8.000000
1.830000	32.920000	46.190000	0.000000	0.000000	129.000000	64.000000	-11.000000	-9.000000
1.840000	32.920000	46.080000	0.000000	0.000000	127.000000	63.000000	0.000000	-11.000000
1.850000	32.920000	45.980000	0.000000	0.000000	125.000000	64.000000	0.000000	-10.000000
1.860000	33.080000	45.900000	0.000000	0.000000	124.000000	63.000000	16.000000	-8.000000
1.870000	33.230000	45.830000	0.000000	0.000000	124.000000	63.000000	15.000000	-7.000000
1.880000	33.390000	45.770000	0.000000	0.000000	122.000000	63.000000	16.000000	-6.000000
1.890000	33.530000	45.770000	0.000000	0.000000	121.000000	63.000000	14.000000	0.000000
1.900000	33.670000	45.770000	0.000000	0.000000	122.000000	63.000000	14.000000	0.000000
1.910000	33.810000	45.870000	0.000000	0.000000	120.000000	64.000000	14.000000	10.000000
1.920000	33.930000	45.950000	0.000000	0.000000	120.000000	64.000000	12.000000	8.000000
1.930000	34.060000	46.040000	0.000000	0.000000	120.000000	64.000000	13.000000	9.000000
1.940000	34.180000	46.110000	0.000000	0.000000	120.000000	64.000000	12.000000	7.000000
1.950000	34.360000	46.200000	0.000000	0.000000	122.000000	65.000000	18.000000	9.000000
1.960000	34.470000	46.310000	0.000000	0.000000	122.000000	65.000000	11.000000	11.000000
1.970000	34.520000	46.310000	0.000000	0.000000	122.000000	65.000000	5.000000	0.000000
1.980000	34.430000	46.370000	0.000000	0.000000	122.000000	65.000000	-9.000000	6.000000
1.990000	34.280000	46.370000	0.000000	0.000000	122.000000	65.000000	-15.000000	0.000000
2.000000	34.090000	46.320000	0.000000	0.000000	122.000000	65.000000	-19.000000	-5.000000
2.010000	33.940000	46.320000	0.000000	0.000000	122.000000	65.000000	-15.000000	0.000000
2.020000	33.840000	46.370000	0.000000	0.000000	122.000000	65.000000	-10.000000	5.000000
2.030000	33.790000	46.370000	0.000000	0.000000	122.000000	65.000000	-5.000000	0.000000
2.040000	33.790000	46.440000	0.000000	0.000000	122.000000	65.000000	0.000000	7.000000
2.050000	33.710000	46.520000	0.000000	0.000000	122.000000	65.000000	-8.000000	8.000000
2.060000	33.710000	46.520000	0.000000	0.000000	122.000000	63.000000	0.000000	0.000000
2.070000	33.710000	46.520000	0.000000	0.000000	120.000000	64.000000	0.000000	0.000000
2.080000	33.710000	46.520000	0.000000	0.000000	120.000000	64.000000	0.000000	0.000000
2.090000	33.710000	46.520000	0.000000	0.000000	120.000000	64.000000	0.000000	0.000000
2.100000	33.710000	46.520000	0.000000	0.000000	119.000000	64.000000	0.000000	0.000000
2.110000	33.710000	46.520000	0.000000	0.000000	119.000000	64.000000	0.000000	0.000000
2.120000	33.710000	46.520000	50.000000	1.000000	119.000000	64.000000	0.000000	0.000000
2.130000	34.180000	45.980000	93.000000	0.000000	117.000000	65.000000	47.000000	-54.000000
2.140000	34.300000	45.830000	93.000000	0.000000	116.000000	66.000000	12.000000	-15.000000
2.150000	34.390000	45.750000	98.000000	0.000000	116.000000	66.000000	9.000000	-8.000000
2.160000	34.610000	45.830000	106.000000	0.000000	114.000000	66.000000	22.000000	8.000000
2.170000	34.870000	46.100000	115.000000	0.000000	115.000000	67.000000	26.000000	27.000000
2.180000	35.180000	46.510000	139.000000	0.000000	115.000000	67.000000	31.000000	41.000000
2.190000	35.510000	47.170000	131.000000	0.000000	115.000000	67.000000	33.000000	66.000000
2.200000	35.710000	47.950000	148.000000	0.000000	116.000000	68.000000	20.000000	78.000000
2.210000	35.810000	48.820000	187.000000	0.000000	118.000000	68.000000	10.000000	87.000000
2.220000	35.810000	49.600000	233.000000	0.000000	118.000000	68.000000	0.000000	78.000000
2.230000	35.620000	50.000000	307.000000	0.000000	122.000000	68.000000	-19.000000	40.000000
