t	x	y	pressure	penup	azimuth	inclination	v_x	v_y
0.000000	19.130000	47.800000	141.000000	1.000000	138.000000	64.000000	0.000000	0.000000
0.010000	18.910000	48.630000	179.000000	0.000000	140.000000	63.000000	-22.000000	83.000000
0.020000	18.780000	49.030000	212.000000	0.000000	140.000000	63.000000	-13.000000	40.000000
0.030000	18.700000	49.370000	269.000000	0.000000	140.000000	63.000000	-8.000000	34.000000
0.040000	18.620000	49.660000	337.000000	0.000000	141.000000	63.000000	-8.000000	29.000000
0.050000	18.570000	49.870000	366.000000	0.000000	141.000000	63.000000	-5.000000	21.000000
0.060000	18.570000	50.000000	399.000000	0.000000	140.000000	62.000000	0.000000	13.000000
0.070000	18.570000	50.000000	402.000000	0.000000	141.000000	61.000000	0.000000	0.000000
0.080000	18.570000	49.940000	402.000000	0.000000	141.000000	61.000000	0.000000	-6.000000
0.090000	18.570000	49.810000	407.000000	0.000000	139.000000	61.000000	0.000000	-13.000000
0.100000	18.700000	49.390000	425.000000	0.000000	139.000000	61.000000	13.000000	-42.000000
0.110000	18.860000	48.790000	431.000000	0.000000	139.000000	61.000000	16.000000	-60.000000
0.120000	19.090000	47.910000	450.000000	0.000000	139.000000	61.000000	23.000000	-88.000000
0.130000	19.350000	47.010000	472.000000	0.000000	138.000000	61.000000	26.000000	-90.000000
0.140000	19.620000	45.890000	497.000000	0.000000	140.000000	62.000000	27.000000	-112.000000
0.150000	19.850000	44.630000	512.000000	0.000000	138.000000	63.000000	23.000000	-126.000000
0.160000	20.050000	43.570000	536.000000	0.000000	138.000000	63.000000	20.000000	-106.000000
0.170000	20.170000	42.430000	543.000000	0.000000	137.000000	63.000000	12.000000	-114.000000
0.180000	20.220000	41.250000	564.000000	0.000000	137.000000	63.000000	5.000000	-118.000000
0.190000	20.220000	40.500000	572.000000	0.000000	135.000000	64.000000	0.000000	-75.000000
0.200000	20.220000	39.940000	586.000000	0.000000	133.000000	65.000000	0.000000	-56.000000
0.210000	20.220000	39.500000	608.000000	0.000000	133.000000	65.000000	0.000000	-44.000000
0.220000	20.130000	39.260000	616.000000	0.000000	133.000000	65.000000	-9.000000	-24.000000
0.230000	20.010000	39.130000	620.000000	0.000000	132.000000	65.000000	-12.000000	-13.000000
0.240000	19.850000	39.080000	620.000000	0.000000	132.000000	65.000000	-16.000000	-5.000000
0.250000	19.650000	39.080000	599.000000	0.000000	132.000000	65.000000	-20.000000	0.000000
0.260000	19.420000	39.200000	574.000000	0.000000	132.000000	65.000000	-23.000000	12.000000
0.270000	19.230000	39.370000	565.000000	0.000000	132.000000	65.000000	-19.000000	17.000000
0.280000	19.120000	39.670000	540.000000	0.000000	132.000000	65.000000	-11.000000	30.000000
0.290000	19.120000	39.980000	537.000000	0.000000	132.000000	65.000000	0.000000	31.000000
0.300000	19.120000	40.300000	537.000000	0.000000	132.000000	65.000000	0.000000	32.000000
0.310000	19.180000	40.590000	546.000000	0.000000	132.000000	65.000000	6.000000	29.000000
0.320000	19.260000	40.880000	548.000000	0.000000	132.000000	65.000000	8.000000	29.000000
0.330000	19.340000	41.190000	554.000000	0.000000	132.000000	65.000000	8.000000	31.000000
0.340000	19.440000	41.490000	563.000000	0.000000	132.000000	65.000000	10.000000	30.000000
0.350000	19.530000	41.850000	564.000000	0.000000	132.000000	65.000000	9.000000	36.000000
0.360000	19.640000	42.240000	563.000000	0.000000	132.000000	65.000000	11.000000	39.000000
0.370000	19.750000	42.740000	567.000000	0.000000	130.000000	65.000000	11.000000	50.000000
0.380000	19.900000	43.370000	574.000000	0.000000	133.000000	65.000000	15.000000	63.000000
0.390000	20.120000	44.080000	589.000000	0.000000	133.000000	65.000000	22.000000	71.000000
0.400000	20.320000	44.740000	585.000000	0.000000	133.000000	65.000000	20.000000	66.000000
0.410000	20.490000	45.400000	605.000000	0.000000	132.000000	65.000000	17.000000	66.000000
0.420000	20.720000	46.050000	605.000000	0.000000	132.000000	65.000000	23.000000	65.000000
0.430000	20.910000	46.650000	614.000000	0.000000	132.000000	65.000000	19.000000	60.000000
0.440000	21.050000	47.190000	619.000000	0.000000	132.000000	65.000000	14.000000	54.000000
0.450000	21.180000	47.700000	634.000000	0.000000	133.000000	65.000000	13.000000	51.000000
0.460000	21.290000	48.160000	636.000000	0.000000	133.000000	65.000000	11.000000	46.000000
0.470000	21.370000	48.550000	640.000000	0.000000	135.000000	64.000000	8.000000	39.000000
0.480000	21.460000	48.910000	640.000000	0.000000	138.000000	64.000000	9.000000	36.000000
0.490000	21.460000	49.140000	649.000000	0.000000	138.000000	64.000000	0.000000	23.000000
0.500000	21.460000	49.280000	650.000000	0.000000	140.000000	63.000000	0.000000	14.000000
0.510000	21.460000	49.280000	646.000000	0.000000	140.000000	63.000000	0.000000	0.000000
0.520000	21.460000	49.340000	644.000000	0.000000	141.000000	63.000000	0.000000	6.000000
0.530000	21.460000	49.340000	641.000000	0.000000	141.000000	63.000000	0.000000	0.000000
0.540000	21.460000	49.340000	637.000000	0.000000	141.000000	63.000000	0.000000	0.000000
0.550000	21.460000	49.280000	647.000000	0.000000	141.000000	63.000000	0.000000	-6.000000
0.560000	21.460000	49.220000	645.000000	0.000000	143.000000	62.000000	0.000000	-6.000000
0.570000	21.460000	49.130000	641.000000	0.000000	143.000000	62.000000	0.000000	-9.000000
0.580000	21.460000	49.000000	639.000000	0.000000	143.000000	62.000000	0.000000	-13.000000
0.590000	21.530000	48.730000	639.000000	0.000000	143.000000	62.000000	7.000000	-27.000000
0.600000	21.670000	48.370000	639.000000	0.000000	143.000000	62.000000	14.000000	-36.000000
0.610000	21.870000	47.970000	641.000000	0.000000	143.000000	62.000000	20.000000	-40.000000
0.620000	22.090000	47.610000	645.000000	0.000000	143.000000	62.000000	22.000000	-36.000000
0.630000	22.300000	47.290000	644.000000	0.000000	141.000000	63.000000	21.000000	-32.000000
0.640000	22.550000	47.090000	639.000000	0.000000	141.000000	63.000000	25.000000	-20.000000
0.650000	22.780000	46.960000	641.000000	0.000000	143.000000	63.000000	23.000000	-13.000000
0.660000	22.990000	46.880000	642.000000	0.000000	141.000000	64.000000	21.000000	-8.000000
0.670000	23.170000	46.930000	642.000000	0.000000	141.000000	64.000000	18.000000	5.000000
0.680000	23.340000	47.080000	642.000000	0.000000	140.000000	65.000000	17.000000	15.000000
0.690000	23.510000	47.310000	638.000000	0.000000	140.000000	65.000000	17.000000	23.000000
0.700000	23.650000	47.620000	639.000000	0.000000	140.000000	65.000000	14.000000	31.000000
0.710000	23.740000	47.910000	638.000000	0.000000	140.000000	65.000000	9.000000	29.000000
0.720000	23.800000	48.180000	639.000000	0.000000	140.000000	65.000000	6.000000	27.000000
0.730000	23.800000	48.470000	641.000000	0.000000	140.000000	65.000000	0.000000	29.000000
0.740000	23.800000	48.700000	645.000000	0.000000	141.000000	64.000000	0.000000	23.000000
0.750000	23.800000	48.800000	637.000000	0.000000	141.000000	64.000000	0.000000	10.000000
0.760000	23.800000	48.800000	638.000000	0.000000	141.000000	64.000000	0.000000	0.000000
0.770000	23.800000	48.800000	636.000000	0.000000	143.000000	63.000000	0.000000	0.000000
0.780000	23.800000	48.670000	647.000000	0.000000	143.000000	63.000000	0.000000	-13.000000
0.790000	23.800000	48.380000	645.000000	0.000000	143.000000	63.000000	0.000000	-29.000000
0.800000	23.930000	47.970000	647.000000	0.000000	143.000000	63.000000	13.000000	-41.000000
0.810000	24.040000	47.610000	638.000000	0.000000	143.000000	63.000000	11.000000	-36.000000
0.820000	24.210000	47.250000	638.000000	0.000000	141.000000	64.000000	17.000000	-36.000000
0.830000	24.400000	46.890000	638.000000	0.000000	141.000000	64.000000	19.000000	-36.000000
0.840000	24.620000	46.700000	642.000000	0.000000	141.000000	64.000000	22.000000	-19.000000
0.850000	24.850000	46.610000	638.000000	0.000000	140.000000	65.000000	23.000000	-9.000000
0.860000	25.010000	46.610000	639.000000	0.000000	142.000000	65.000000	16.000000	0.000000
0.870000	25.130000	46.710000	638.000000	0.000000	142.000000	65.000000	12.000000	10.000000
0.880000	25.320000	46.890000	636.000000	0.000000	140.000000	66.000000	19.000000	18.000000
0.890000	25.480000	47.070000	639.000000	0.000000	140.000000	66.000000	16.000000	18.000000
0.900000	25.580000	47.270000	638.000000	0.000000	140.000000	66.000000	10.000000	20.000000
0.910000	25.640000	47.460000	636.000000	0.000000	140.000000	66.000000	6.000000	19.000000
0.920000	25.710000	47.630000	638.000000	0.000000	140.000000	66.000000	7.000000	17.000000
0.930000	25.780000	47.780000	639.000000	0.000000	142.000000	65.000000	7.000000	15.000000
0.940000	25.850000	47.780000	639.000000	0.000000	142.000000	65.000000	7.000000	0.000000
0.950000	25.920000	47.780000	637.000000	0.000000	142.000000	65.000000	7.000000	0.000000
0.960000	26.010000	47.640000	637.000000	0.000000	143.000000	64.000000	9.000000	-14.000000
0.970000	26.120000	47.490000	643.000000	0.000000	143.000000	64.000000	11.000000	-15.000000
0.980000	26.260000	47.270000	659.000000	0.000000	143.000000	64.000000	14.000000	-22.000000
0.990000	26.490000	46.980000	668.000000	0.000000	143.000000	64.000000	23.000000	-29.000000
1.000000	26.730000	46.660000	667.000000	0.000000	143.000000	64.000000	24.000000	-32.000000
1.010000	26.970000	46.380000	668.000000	0.000000	142.000000	65.000000	24.000000	-28.000000
1.020000	27.240000	46.160000	663.000000	0.000000	142.000000	65.000000	27.000000	-22.000000
1.030000	27.520000	45.960000	669.000000	0.000000	140.000000	66.000000	28.000000	-20.000000
1.040000	27.860000	45.870000	670.000000	0.000000	138.000000	65.000000	34.000000	-9.000000
1.050000	28.260000	45.870000	672.000000	0.000000	137.000000	66.000000	40.000000	0.000000
1.060000	28.670000	46.050000	664.000000	0.000000	135.000000	65.000000	41.000000	18.000000
1.070000	29.080000	46.320000	671.000000	0.000000	133.000000	66.000000	41.000000	27.000000
1.080000	29.440000	46.630000	668.000000	0.000000	133.000000	66.000000	36.000000	31.000000
1.090000	29.810000	46.970000	664.000000	0.000000	133.000000	66.000000	37.000000	34.000000
1.100000	30.110000	47.360000	664.000000	0.000000	133.000000	66.000000	30.000000	39.000000
1.110000	30.360000	47.740000	664.000000	0.000000	135.000000	65.000000	25.000000	38.000000
1.120000	30.490000	48.100000	662.000000	0.000000	135.000000	65.000000	13.000000	36.000000
1.130000	30.580000	48.460000	662.000000	0.000000	137.000000	65.000000	9.000000	36.000000
1.140000	30.650000	48.850000	656.000000	0.000000	138.000000	65.000000	7.000000	39.000000
1.150000	30.650000	49.190000	655.000000	0.000000	140.000000	65.000000	0.000000	34.000000
1.160000	30.650000	49.510000	653.000000	0.000000	141.000000	64.000000	0.000000	32.000000
1.170000	30.650000	49.790000	655.000000	0.000000	141.000000	64.000000	0.000000	28.000000
1.180000	30.550000	50.070000	655.000000	0.000000	143.000000	63.000000	-10.000000	28.000000
1.190000	30.470000	50.250000	655.000000	0.000000	143.000000	63.000000	-8.000000	18.000000
1.200000	30.380000	50.410000	650.000000	0.000000	144.000000	62.000000	-9.000000	16.000000
1.210000	30.290000	50.520000	647.000000	0.000000	144.000000	62.000000	-9.000000	11.000000
1.220000	30.190000	50.600000	646.000000	0.000000	144.000000	62.000000	-10.000000	8.000000
1.230000	30.080000	50.600000	643.000000	0.000000	146.000000	62.000000	-11.000000	0.000000
1.240000	29.960000	50.600000	637.000000	0.000000	146.000000	62.000000	-12.000000	0.000000
1.250000	29.790000	50.530000	636.000000	0.000000	146.000000	62.000000	-17.000000	-7.000000
1.260000	29.620000	50.410000	643.000000	0.000000	144.000000	61.000000	-17.000000	-12.000000
1.270000	29.470000	50.100000	655.000000	0.000000	144.000000	61.000000	-15.000000	-31.000000
1.280000	29.310000	49.680000	673.000000	0.000000	144.000000	61.000000	-16.000000	-42.000000
1.290000	29.140000	48.870000	696.000000	0.000000	143.000000	62.000000	-17.000000	-81.000000
1.300000	28.940000	47.780000	730.000000	0.000000	143.000000	62.000000	-20.000000	-109.000000
1.310000	28.710000	46.500000	771.000000	0.000000	143.000000	62.000000	-23.000000	-128.000000
1.320000	28.450000	45.040000	811.000000	0.000000	141.000000	63.000000	-26.000000	-146.000000
1.330000	28.250000	43.530000	834.000000	0.000000	140.000000	63.000000	-20.000000	-151.000000
1.340000	28.090000	41.970000	855.000000	0.000000	138.000000	64.000000	-16.000000	-156.000000
1.350000	27.990000	40.670000	873.000000	0.000000	137.000000	65.000000	-10.000000	-130.000000
1.360000	27.930000	39.540000	906.000000	0.000000	133.000000	65.000000	-6.000000	-113.000000
1.370000	27.930000	38.750000	923.000000	0.000000	132.000000	65.000000	0.000000	-79.000000
1.380000	27.930000	38.200000	941.000000	0.000000	130.000000	66.000000	0.000000	-55.000000
1.390000	28.090000	37.800000	942.000000	0.000000	128.000000	66.000000	16.000000	-40.000000
1.400000	28.140000	37.670000	939.000000	0.000000	126.000000	67.000000	5.000000	-13.000000
1.410000	28.140000	37.670000	935.000000	0.000000	124.000000	67.000000	0.000000	0.000000
1.420000	28.140000	37.670000	926.000000	0.000000	124.000000	67.000000	0.000000	0.000000
1.430000	28.140000	37.720000	912.000000	0.000000	122.000000	68.000000	0.000000	5.000000
1.440000	28.140000	37.720000	902.000000	0.000000	122.000000	68.000000	0.000000	0.000000
1.450000	28.140000	37.770000	867.000000	0.000000	119.000000	68.000000	0.000000	5.000000
1.460000	28.190000	37.770000	827.000000	0.000000	119.000000	68.000000	5.000000	0.000000
1.470000	28.190000	37.770000	754.000000	0.000000	119.000000	68.000000	0.000000	0.000000
1.480000	28.140000	37.770000	543.000000	0.000000	119.000000	68.000000	-5.000000	0.000000
1.490000	28.140000	37.770000	46.000000	0.000000	119.000000	68.000000	0.000000	0.000000
1.500000	28.140000	37.770000	0.000000	1.000000	119.000000	68.000000	0.000000	0.000000
1.510000	28.140000	38.150000	0.000000	0.000000	119.000000	68.000000	0.000000	38.000000
1.520000	28.220000	38.330000	0.000000	0.000000	119.000000	68.000000	8.000000	18.000000
1.530000	28.220000	38.540000	0.000000	0.000000	121.000000	69.000000	0.000000	21.000000
1.540000	28.220000	38.760000	0.000000	0.000000	121.000000	69.000000	0.000000	22.000000
1.550000	28.110000	38.970000	0.000000	0.000000	121.000000	69.000000	-11.000000	21.000000
1.560000	27.970000	39.150000	0.000000	0.000000	121.000000	69.000000	-14.000000	18.000000
1.570000	27.780000	39.300000	0.000000	0.000000	121.000000	69.000000	-19.000000	15.000000
1.580000	27.500000	39.440000	0.000000	0.000000	121.000000	69.000000	-28.000000	14.000000
1.590000	27.170000	39.620000	0.000000	0.000000	122.000000	68.000000	-33.000000	18.000000
1.600000	26.860000	39.840000	0.000000	0.000000	122.000000	68.000000	-31.000000	22.000000
1.610000	26.580000	40.140000	0.000000	0.000000	120.000000	67.000000	-28.000000	30.000000
1.620000	26.460000	40.450000	0.000000	0.000000	122.000000	67.000000	-12.000000	31.000000
1.630000	26.460000	40.780000	0.000000	0.000000	122.000000	67.000000	0.000000	33.000000
1.640000	26.460000	41.030000	0.000000	0.000000	126.000000	67.000000	0.000000	25.000000
1.650000	26.540000	41.230000	0.000000	0.000000	128.000000	68.000000	8.000000	20.000000
1.660000	26.600000	41.300000	0.000000	0.000000	131.000000	68.000000	6.000000	7.000000
1.670000	26.830000	41.300000	0.000000	0.000000	131.000000	68.000000	23.000000	0.000000
1.680000	27.180000	41.300000	0.000000	0.000000	133.000000	67.000000	35.000000	0.000000
1.690000	27.480000	41.250000	0.000000	0.000000	131.000000	67.000000	30.000000	-5.000000
1.700000	27.740000	41.180000	0.000000	0.000000	131.000000	67.000000	26.000000	-7.000000
1.710000	27.940000	41.100000	0.000000	0.000000	132.000000	65.000000	20.000000	-8.000000
1.720000	28.120000	41.020000	0.000000	0.000000	130.000000	65.000000	18.000000	-8.000000
1.730000	28.200000	40.940000	0.000000	0.000000	129.000000	64.000000	8.000000	-8.000000
1.740000	28.250000	40.940000	0.000000	0.000000	127.000000	63.000000	5.000000	0.000000
1.750000	28.250000	40.940000	0.000000	0.000000	127.000000	63.000000	0.000000	0.000000
1.760000	28.300000	41.010000	0.000000	0.000000	129.000000	64.000000	5.000000	7.000000
1.770000	28.300000	41.160000	0.000000	0.000000	129.000000	64.000000	0.000000	15.000000
1.780000	28.230000	41.350000	0.000000	0.000000	129.000000	64.000000	-7.000000	19.000000
1.790000	28.110000	41.630000	0.000000	0.000000	129.000000	64.000000	-12.000000	28.000000
1.800000	27.900000	41.960000	0.000000	0.000000	130.000000	63.000000	-21.000000	33.000000
1.810000	27.630000	42.330000	0.000000	0.000000	130.000000	63.000000	-27.000000	37.000000
1.820000	27.320000	42.780000	0.000000	0.000000	130.000000	63.000000	-31.000000	45.000000
1.830000	26.980000	43.230000	0.000000	0.000000	132.000000	63.000000	-34.000000	45.000000
1.840000	26.600000	43.680000	0.000000	0.000000	133.000000	63.000000	-38.000000	45.000000
1.850000	26.180000	44.140000	0.000000	0.000000	135.000000	63.000000	-42.000000	46.000000
1.860000	25.780000	44.550000	0.000000	0.000000	137.000000	63.000000	-40.000000	41.000000
1.870000	25.420000	44.870000	0.000000	0.000000	140.000000	63.000000	-36.000000	32.000000
1.880000	25.140000	45.130000	0.000000	0.000000	141.000000	64.000000	-28.000000	26.000000
1.890000	24.900000	45.330000	0.000000	0.000000	145.000000	64.000000	-24.000000	20.000000
1.900000	24.790000	45.460000	0.000000	0.000000	146.000000	64.000000	-11.000000	13.000000
1.910000	24.790000	45.540000	0.000000	0.000000	148.000000	65.000000	0.000000	8.000000
1.920000	24.790000	45.540000	0.000000	0.000000	150.000000	64.000000	0.000000	0.000000
1.930000	24.790000	45.540000	0.000000	0.000000	150.000000	64.000000	0.000000	0.000000
1.940000	24.790000	45.540000	0.000000	0.000000	150.000000	64.000000	0.000000	0.000000
1.950000	24.790000	45.540000	0.000000	0.000000	148.000000	63.000000	0.000000	0.000000
1.960000	24.790000	45.540000	0.000000	0.000000	148.000000	63.000000	0.000000	0.000000
1.970000	24.790000	45.540000	0.000000	0.000000	148.000000	63.000000	0.000000	0.000000
1.980000	24.790000	45.540000	0.000000	0.000000	146.000000	63.000000	0.000000	0.000000
1.990000	24.790000	45.540000	0.000000	0.000000	146.000000	63.000000	0.000000	0.000000
2.000000	24.790000	45.540000	0.000000	0.000000	146.000000	63.000000	0.000000	0.000000
2.010000	24.790000	45.540000	0.000000	0.000000	146.000000	63.000000	0.000000	0.000000
2.020000	24.790000	45.540000	0.000000	0.000000	146.000000	63.000000	0.000000	0.000000
2.030000	24.790000	45.540000	0.000000	0.000000	146.000000	63.000000	0.000000	0.000000
2.040000	24.790000	45.540000	0.000000	0.000000	146.000000	63.000000	0.000000	0.000000
2.050000	24.430000	45.830000	0.000000	0.000000	146.000000	63.000000	-36.000000	29.000000
2.060000	24.180000	45.830000	0.000000	0.000000	146.000000	63.000000	-25.000000	0.000000
2.070000	23.870000	45.780000	0.000000	0.000000	146.000000	63.000000	-31.000000	-5.000000
2.080000	23.560000	45.650000	0.000000	0.000000	147.000000	62.000000	-31.000000	-13.000000
2.090000	23.270000	45.480000	0.000000	0.000000	146.000000	62.000000	-29.000000	-17.000000
2.100000	23.040000	45.260000	0.000000	0.000000	144.000000	62.000000	-23.000000	-22.000000
2.110000	22.900000	45.040000	0.000000	0.000000	144.000000	62.000000	-14.000000	-22.000000
2.120000	22.800000	44.780000	0.000000	0.000000	143.000000	62.000000	-10.000000	-26.000000
2.130000	22.740000	44.530000	0.000000	0.000000	143.000000	62.000000	-6.000000	-25.000000
2.140000	22.740000	44.240000	0.000000	0.000000	141.000000	63.000000	0.000000	-29.000000
2.150000	22.650000	43.930000	0.000000	0.000000	140.000000	62.000000	-9.000000	-31.000000
2.160000	22.580000	43.590000	0.000000	0.000000	140.000000	62.000000	-7.000000	-34.000000
2.170000	22.490000	43.250000	0.000000	0.000000	138.000000	63.000000	-9.000000	-34.000000
2.180000	22.420000	42.920000	0.000000	0.000000	138.000000	63.000000	-7.000000	-33.000000
2.190000	22.340000	42.670000	0.000000	0.000000	137.000000	62.000000	-8.000000	-25.000000
2.200000	22.260000	42.480000	0.000000	0.000000	135.000000	63.000000	-8.000000	-19.000000
2.210000	22.260000	42.320000	0.000000	0.000000	135.000000	63.000000	0.000000	-16.000000
2.220000	22.200000	42.260000	0.000000	0.000000	133.000000	62.000000	-6.000000	-6.000000
