t	x	y	pressure	penup	azimuth	inclination	v_x	v_y
0.000000	52.630000	47.660000	85.000000	1.000000	122.000000	51.000000	0.000000	0.000000
0.010000	52.560000	47.290000	220.000000	0.000000	122.000000	51.000000	-7.000000	-37.000000
0.020000	52.560000	47.180000	286.000000	0.000000	122.000000	51.000000	0.000000	-11.000000
0.030000	52.510000	47.110000	377.000000	0.000000	123.000000	52.000000	-5.000000	-7.000000
0.040000	52.560000	47.110000	456.000000	0.000000	123.000000	52.000000	5.000000	0.000000
0.050000	52.630000	47.110000	532.000000	0.000000	123.000000	52.000000	7.000000	0.000000
0.060000	52.720000	47.270000	614.000000	0.000000	123.000000	52.000000	9.000000	16.000000
0.070000	53.060000	47.580000	664.000000	0.000000	123.000000	52.000000	34.000000	31.000000
0.080000	53.570000	48.030000	724.000000	0.000000	123.000000	52.000000	51.000000	45.000000
0.090000	54.170000	48.820000	758.000000	0.000000	124.000000	53.000000	60.000000	79.000000
0.100000	54.770000	49.660000	760.000000	0.000000	124.000000	53.000000	60.000000	84.000000
0.110000	55.350000	50.540000	770.000000	0.000000	124.000000	53.000000	58.000000	88.000000
0.120000	55.760000	51.160000	770.000000	0.000000	127.000000	53.000000	41.000000	62.000000
0.130000	56.080000	51.780000	776.000000	0.000000	128.000000	53.000000	32.000000	62.000000
0.140000	56.350000	52.260000	774.000000	0.000000	129.000000	52.000000	27.000000	48.000000
0.150000	56.510000	52.650000	767.000000	0.000000	129.000000	52.000000	16.000000	39.000000
0.160000	56.590000	52.940000	760.000000	0.000000	131.000000	52.000000	8.000000	29.000000
0.170000	56.590000	53.020000	751.000000	0.000000	133.000000	52.000000	0.000000	8.000000
0.180000	56.590000	52.970000	755.000000	0.000000	133.000000	52.000000	0.000000	-5.000000
0.190000	56.520000	52.880000	751.000000	0.000000	133.000000	52.000000	-7.000000	-9.000000
0.200000	56.390000	52.520000	749.000000	0.000000	134.000000	51.000000	-13.000000	-36.000000
0.210000	56.160000	51.980000	743.000000	0.000000	134.000000	51.000000	-23.000000	-54.000000
0.220000	55.850000	51.370000	736.000000	0.000000	134.000000	51.000000	-31.000000	-61.000000
0.230000	55.660000	50.800000	736.000000	0.000000	134.000000	51.000000	-19.000000	-57.000000
0.240000	55.660000	50.380000	733.000000	0.000000	133.000000	52.000000	0.000000	-42.000000
0.250000	55.660000	50.060000	730.000000	0.000000	133.000000	52.000000	0.000000	-32.000000
0.260000	55.820000	49.880000	730.000000	0.000000	133.000000	52.000000	16.000000	-18.000000
0.270000	55.970000	49.880000	740.000000	0.000000	133.000000	52.000000	15.000000	0.000000
0.280000	56.320000	50.100000	746.000000	0.000000	133.000000	52.000000	35.000000	22.000000
0.290000	56.790000	50.520000	752.000000	0.000000	133.000000	52.000000	47.000000	42.000000
0.300000	57.260000	51.010000	751.000000	0.000000	133.000000	52.000000	47.000000	49.000000
0.310000	57.700000	51.560000	757.000000	0.000000	133.000000	52.000000	44.000000	55.000000
0.320000	58.040000	52.000000	757.000000	0.000000	133.000000	52.000000	34.000000	44.000000
0.330000	58.330000	52.410000	753.000000	0.000000	133.000000	52.000000	29.000000	41.000000
0.340000	58.550000	52.790000	751.000000	0.000000	133.000000	52.000000	22.000000	38.000000
0.350000	58.770000	53.150000	750.000000	0.000000	133.000000	52.000000	22.000000	36.000000
0.360000	58.980000	53.500000	763.000000	0.000000	134.000000	51.000000	21.000000	35.000000
0.370000	59.210000	53.810000	763.000000	0.000000	134.000000	51.000000	23.000000	31.000000
0.380000	59.430000	54.110000	761.000000	0.000000	132.000000	51.000000	22.000000	30.000000
0.390000	59.660000	54.380000	761.000000	0.000000	132.000000	51.000000	23.000000	27.000000
0.400000	59.790000	54.580000	763.000000	0.000000	132.000000	51.000000	13.000000	20.000000
0.410000	59.860000	54.650000	760.000000	0.000000	132.000000	51.000000	7.000000	7.000000
0.420000	59.860000	54.650000	752.000000	0.000000	130.000000	52.000000	0.000000	0.000000
0.430000	59.800000	54.510000	745.000000	0.000000	130.000000	52.000000	-6.000000	-14.000000
0.440000	59.700000	54.340000	749.000000	0.000000	130.000000	52.000000	-10.000000	-17.000000
0.450000	59.560000	54.000000	749.000000	0.000000	130.000000	52.000000	-14.000000	-34.000000
0.460000	59.450000	53.570000	754.000000	0.000000	130.000000	52.000000	-11.000000	-43.000000
0.470000	59.360000	53.190000	754.000000	0.000000	130.000000	52.000000	-9.000000	-38.000000
0.480000	59.250000	52.770000	763.000000	0.000000	130.000000	52.000000	-11.000000	-42.000000
0.490000	59.130000	52.300000	750.000000	0.000000	132.000000	51.000000	-12.000000	-47.000000
0.500000	59.030000	51.770000	750.000000	0.000000	132.000000	51.000000	-10.000000	-53.000000
0.510000	58.900000	51.200000	750.000000	0.000000	132.000000	51.000000	-13.000000	-57.000000
0.520000	58.750000	50.580000	750.000000	0.000000	132.000000	51.000000	-15.000000	-62.000000
0.530000	58.610000	49.880000	757.000000	0.000000	132.000000	51.000000	-14.000000	-70.000000
0.540000	58.490000	49.140000	762.000000	0.000000	132.000000	51.000000	-12.000000	-74.000000
0.550000	58.400000	48.370000	773.000000	0.000000	130.000000	52.000000	-9.000000	-77.000000
0.560000	58.300000	47.590000	779.000000	0.000000	129.000000	51.000000	-10.000000	-78.000000
0.570000	58.210000	46.860000	785.000000	0.000000	128.000000	52.000000	-9.000000	-73.000000
0.580000	58.110000	46.140000	780.000000	0.000000	127.000000	52.000000	-10.000000	-72.000000
0.590000	58.020000	45.420000	779.000000	0.000000	127.000000	53.000000	-9.000000	-72.000000
0.600000	57.910000	44.740000	780.000000	0.000000	125.000000	54.000000	-11.000000	-68.000000
0.610000	57.850000	44.080000	780.000000	0.000000	124.000000	54.000000	-6.000000	-66.000000
0.620000	57.800000	43.480000	779.000000	0.000000	123.000000	55.000000	-5.000000	-60.000000
0.630000	57.800000	42.880000	777.000000	0.000000	123.000000	55.000000	0.000000	-60.000000
0.640000	57.710000	42.480000	780.000000	0.000000	123.000000	55.000000	-9.000000	-40.000000
0.650000	57.650000	42.230000	785.000000	0.000000	123.000000	55.000000	-6.000000	-25.000000
0.660000	57.580000	42.080000	785.000000	0.000000	123.000000	55.000000	-7.000000	-15.000000
0.670000	57.580000	42.000000	787.000000	0.000000	123.000000	55.000000	0.000000	-8.000000
0.680000	57.520000	42.000000	787.000000	0.000000	124.000000	55.000000	-6.000000	0.000000
0.690000	57.520000	41.940000	790.000000	0.000000	125.000000	55.000000	0.000000	-6.000000
0.700000	57.450000	41.940000	790.000000	0.000000	126.000000	56.000000	-7.000000	0.000000
0.710000	57.450000	41.940000	787.000000	0.000000	126.000000	56.000000	0.000000	0.000000
0.720000	57.360000	41.870000	788.000000	0.000000	126.000000	56.000000	-9.000000	-7.000000
0.730000	57.260000	41.800000	788.000000	0.000000	126.000000	56.000000	-10.000000	-7.000000
0.740000	56.980000	41.600000	787.000000	0.000000	129.000000	56.000000	-28.000000	-20.000000
0.750000	56.570000	41.330000	796.000000	0.000000	129.000000	56.000000	-41.000000	-27.000000
0.760000	56.070000	41.120000	785.000000	0.000000	127.000000	56.000000	-50.000000	-21.000000
0.770000	55.340000	40.900000	788.000000	0.000000	127.000000	56.000000	-73.000000	-22.000000
0.780000	54.520000	40.690000	785.000000	0.000000	127.000000	56.000000	-82.000000	-21.000000
0.790000	53.650000	40.560000	787.000000	0.000000	127.000000	56.000000	-87.000000	-13.000000
0.800000	52.650000	40.410000	785.000000	0.000000	127.000000	56.000000	-100.000000	-15.000000
0.810000	51.650000	40.260000	785.000000	0.000000	127.000000	56.000000	-100.000000	-15.000000
0.820000	50.640000	40.120000	796.000000	0.000000	127.000000	56.000000	-101.000000	-14.000000
0.830000	49.850000	39.960000	796.000000	0.000000	126.000000	56.000000	-79.000000	-16.000000
0.840000	49.110000	39.870000	814.000000	0.000000	126.000000	56.000000	-74.000000	-9.000000
0.850000	48.610000	39.810000	819.000000	0.000000	126.000000	56.000000	-50.000000	-6.000000
0.860000	48.250000	39.920000	824.000000	0.000000	126.000000	56.000000	-36.000000	11.000000
0.870000	48.250000	40.090000	818.000000	0.000000	126.000000	56.000000	0.000000	17.000000
0.880000	48.440000	40.300000	832.000000	0.000000	126.000000	56.000000	19.000000	21.000000
0.890000	48.810000	40.720000	827.000000	0.000000	126.000000	56.000000	37.000000	42.000000
0.900000	49.520000	41.250000	817.000000	0.000000	126.000000	56.000000	71.000000	53.000000
0.910000	50.590000	41.850000	811.000000	0.000000	126.000000	56.000000	107.000000	60.000000
0.920000	51.890000	42.460000	818.000000	0.000000	126.000000	56.000000	130.000000	61.000000
0.930000	53.510000	43.210000	823.000000	0.000000	126.000000	56.000000	162.000000	75.000000
0.940000	55.350000	44.050000	827.000000	0.000000	127.000000	56.000000	184.000000	84.000000
0.950000	57.330000	44.890000	819.000000	0.000000	127.000000	56.000000	198.000000	84.000000
0.960000	59.380000	45.720000	828.000000	0.000000	127.000000	56.000000	205.000000	83.000000
0.970000	61.450000	46.580000	827.000000	0.000000	128.000000	57.000000	207.000000	86.000000
0.980000	63.540000	47.450000	828.000000	0.000000	128.000000	57.000000	209.000000	87.000000
0.990000	65.510000	48.330000	833.000000	0.000000	130.000000	58.000000	197.000000	88.000000
1.000000	67.420000	49.160000	840.000000	0.000000	131.000000	57.000000	191.000000	83.000000
1.010000	69.290000	49.950000	833.000000	0.000000	132.000000	58.000000	187.000000	79.000000
1.020000	70.790000	50.560000	831.000000	0.000000	134.000000	57.000000	150.000000	61.000000
1.030000	72.130000	51.150000	824.000000	0.000000	136.000000	57.000000	134.000000	59.000000
1.040000	73.350000	51.560000	817.000000	0.000000	138.000000	57.000000	122.000000	41.000000
1.050000	74.090000	51.860000	806.000000	0.000000	140.000000	56.000000	74.000000	30.000000
1.060000	74.460000	52.010000	796.000000	0.000000	141.000000	56.000000	37.000000	15.000000
1.070000	74.580000	52.120000	791.000000	0.000000	143.000000	56.000000	12.000000	11.000000
1.080000	74.490000	52.120000	782.000000	0.000000	143.000000	56.000000	-9.000000	0.000000
1.090000	74.290000	52.120000	767.000000	0.000000	144.000000	56.000000	-20.000000	0.000000
1.100000	74.020000	52.120000	749.000000	0.000000	144.000000	56.000000	-27.000000	0.000000
1.110000	73.760000	52.070000	730.000000	0.000000	144.000000	56.000000	-26.000000	-5.000000
1.120000	73.550000	52.010000	669.000000	0.000000	144.000000	56.000000	-21.000000	-6.000000
1.130000	73.420000	51.950000	595.000000	0.000000	144.000000	56.000000	-13.000000	-6.000000
1.140000	73.370000	51.950000	471.000000	0.000000	144.000000	56.000000	-5.000000	0.000000
1.150000	73.370000	51.870000	191.000000	0.000000	144.000000	56.000000	0.000000	-8.000000
1.160000	73.370000	51.870000	0.000000	1.000000	144.000000	56.000000	0.000000	0.000000
1.170000	73.320000	51.690000	0.000000	0.000000	144.000000	56.000000	-5.000000	-18.000000
1.180000	73.150000	51.690000	0.000000	0.000000	144.000000	56.000000	-17.000000	0.000000
1.190000	72.900000	51.750000	0.000000	0.000000	144.000000	56.000000	-25.000000	6.000000
1.200000	72.640000	51.890000	0.000000	0.000000	144.000000	56.000000	-26.000000	14.000000
1.210000	72.340000	52.020000	0.000000	0.000000	144.000000	56.000000	-30.000000	13.000000
1.220000	71.890000	52.130000	0.000000	0.000000	143.000000	55.000000	-45.000000	11.000000
1.230000	71.350000	52.180000	0.000000	0.000000	143.000000	55.000000	-54.000000	5.000000
1.240000	70.740000	52.060000	0.000000	0.000000	141.000000	55.000000	-61.000000	-12.000000
1.250000	69.740000	51.840000	0.000000	0.000000	140.000000	54.000000	-100.000000	-22.000000
1.260000	68.480000	51.370000	0.000000	0.000000	139.000000	54.000000	-126.000000	-47.000000
1.270000	67.250000	50.850000	0.000000	0.000000	136.000000	54.000000	-123.000000	-52.000000
1.280000	65.920000	50.150000	0.000000	0.000000	136.000000	54.000000	-133.000000	-70.000000
1.290000	64.510000	49.350000	0.000000	0.000000	135.000000	53.000000	-141.000000	-80.000000
1.300000	62.990000	48.310000	0.000000	0.000000	134.000000	54.000000	-152.000000	-104.000000
1.310000	61.500000	47.330000	0.000000	0.000000	134.000000	54.000000	-149.000000	-98.000000
1.320000	60.060000	46.390000	0.000000	0.000000	134.000000	54.000000	-144.000000	-94.000000
1.330000	58.880000	45.470000	0.000000	0.000000	133.000000	53.000000	-118.000000	-92.000000
1.340000	57.870000	44.480000	0.000000	0.000000	133.000000	53.000000	-101.000000	-99.000000
1.350000	57.370000	44.090000	0.000000	0.000000	133.000000	53.000000	-50.000000	-39.000000
1.360000	57.160000	44.090000	0.000000	0.000000	133.000000	53.000000	-21.000000	0.000000
1.370000	57.160000	44.230000	0.000000	0.000000	133.000000	53.000000	0.000000	14.000000
1.380000	57.360000	44.450000	0.000000	0.000000	133.000000	53.000000	20.000000	22.000000
1.390000	57.660000	44.740000	0.000000	0.000000	134.000000	54.000000	30.000000	29.000000
1.400000	58.020000	45.020000	0.000000	0.000000	134.000000	55.000000	36.000000	28.000000
1.410000	58.440000	45.340000	0.000000	0.000000	132.000000	55.000000	42.000000	32.000000
1.420000	58.830000	45.690000	0.000000	0.000000	134.000000	56.000000	39.000000	35.000000
1.430000	59.200000	45.990000	0.000000	0.000000	134.000000	56.000000	37.000000	30.000000
1.440000	59.560000	46.290000	0.000000	0.000000	134.000000	56.000000	36.000000	30.000000
1.450000	59.960000	46.550000	0.000000	0.000000	132.000000	55.000000	40.000000	26.000000
1.460000	60.040000	46.760000	0.000000	0.000000	132.000000	55.000000	8.000000	21.000000
1.470000	59.890000	46.760000	0.000000	0.000000	132.000000	55.000000	-15.000000	0.000000
1.480000	59.690000	46.760000	0.000000	0.000000	131.000000	55.000000	-20.000000	0.000000
1.490000	59.410000	46.500000	0.000000	0.000000	130.000000	55.000000	-28.000000	-26.000000
1.500000	59.080000	46.250000	0.000000	0.000000	130.000000	55.000000	-33.000000	-25.000000
1.510000	58.690000	45.950000	0.000000	0.000000	130.000000	55.000000	-39.000000	-30.000000
1.520000	58.270000	45.720000	0.000000	0.000000	130.000000	55.000000	-42.000000	-23.000000
1.530000	57.840000	45.530000	0.000000	0.000000	130.000000	55.000000	-43.000000	-19.000000
1.540000	57.630000	45.470000	0.000000	0.000000	130.000000	55.000000	-21.000000	-6.000000
1.550000	57.630000	45.540000	0.000000	0.000000	130.000000	55.000000	0.000000	7.000000
1.560000	57.630000	45.710000	0.000000	0.000000	129.000000	56.000000	0.000000	17.000000
1.570000	57.740000	45.860000	0.000000	0.000000	129.000000	56.000000	11.000000	15.000000
1.580000	57.860000	45.980000	0.000000	0.000000	127.000000	55.000000	12.000000	12.000000
1.590000	57.930000	45.980000	0.000000	0.000000	127.000000	55.000000	7.000000	0.000000
1.600000	57.930000	45.980000	0.000000	0.000000	127.000000	55.000000	0.000000	0.000000
1.610000	57.880000	45.850000	0.000000	0.000000	125.000000	55.000000	-5.000000	-13.000000
1.620000	57.770000	45.750000	0.000000	0.000000	125.000000	55.000000	-11.000000	-10.000000
1.630000	57.630000	45.650000	0.000000	0.000000	125.000000	55.000000	-14.000000	-10.000000
1.640000	57.510000	45.650000	0.000000	0.000000	124.000000	55.000000	-12.000000	0.000000
1.650000	57.420000	45.720000	0.000000	0.000000	124.000000	55.000000	-9.000000	7.000000
1.660000	57.420000	45.840000	0.000000	0.000000	122.000000	56.000000	0.000000	12.000000
1.670000	57.470000	45.990000	0.000000	0.000000	123.000000	56.000000	5.000000	15.000000
1.680000	57.610000	46.150000	0.000000	0.000000	123.000000	56.000000	14.000000	16.000000
1.690000	57.610000	46.150000	46.000000	1.000000	123.000000	56.000000	0.000000	0.000000
1.700000	57.920000	46.150000	148.000000	0.000000	123.000000	56.000000	31.000000	0.000000
1.710000	58.110000	46.150000	198.000000	0.000000	122.000000	56.000000	19.000000	0.000000
1.720000	58.290000	46.150000	287.000000	0.000000	122.000000	56.000000	18.000000	0.000000
1.730000	58.440000	46.150000	361.000000	0.000000	122.000000	56.000000	15.000000	0.000000
1.740000	58.630000	46.200000	413.000000	0.000000	121.000000	55.000000	19.000000	5.000000
1.750000	58.870000	46.320000	441.000000	0.000000	121.000000	55.000000	24.000000	12.000000
1.760000	59.180000	46.580000	448.000000	0.000000	123.000000	55.000000	31.000000	26.000000
1.770000	59.510000	46.880000	474.000000	0.000000	124.000000	55.000000	33.000000	30.000000
1.780000	59.840000	47.220000	465.000000	0.000000	124.000000	55.000000	33.000000	34.000000
1.790000	60.070000	47.440000	477.000000	0.000000	125.000000	55.000000	23.000000	22.000000
1.800000	60.240000	47.700000	478.000000	0.000000	126.000000	56.000000	17.000000	26.000000
1.810000	60.370000	47.980000	475.000000	0.000000	127.000000	55.000000	13.000000	28.000000
1.820000	60.370000	48.140000	475.000000	0.000000	127.000000	55.000000	0.000000	16.000000
1.830000	60.370000	48.270000	483.000000	0.000000	127.000000	55.000000	0.000000	13.000000
1.840000	60.370000	48.350000	491.000000	0.000000	129.000000	55.000000	0.000000	8.000000
1.850000	60.370000	48.350000	489.000000	0.000000	129.000000	55.000000	0.000000	0.000000
1.860000	60.370000	48.350000	510.000000	0.000000	129.000000	55.000000	0.000000	0.000000
1.870000	60.370000	48.350000	513.000000	0.000000	129.000000	55.000000	0.000000	0.000000
1.880000	60.320000	48.430000	522.000000	0.000000	130.000000	54.000000	-5.000000	8.000000
1.890000	60.320000	48.480000	532.000000	0.000000	130.000000	54.000000	0.000000	5.000000
1.900000	60.240000	48.600000	527.000000	0.000000	130.000000	54.000000	-8.000000	12.000000
1.910000	60.190000	48.680000	521.000000	0.000000	130.000000	54.000000	-5.000000	8.000000
1.920000	60.190000	48.680000	513.000000	0.000000	130.000000	54.000000	0.000000	0.000000
1.930000	60.100000	48.680000	496.000000	0.000000	130.000000	54.000000	-9.000000	0.000000
1.940000	60.020000	48.680000	486.000000	0.000000	131.000000	54.000000	-8.000000	0.000000
1.950000	59.930000	48.610000	486.000000	0.000000	131.000000	54.000000	-9.000000	-7.000000
1.960000	59.860000	48.540000	486.000000	0.000000	131.000000	54.000000	-7.000000	-7.000000
1.970000	59.800000	48.480000	485.000000	0.000000	131.000000	54.000000	-6.000000	-6.000000
1.980000	59.750000	48.410000	485.000000	0.000000	130.000000	54.000000	-5.000000	-7.000000
1.990000	59.750000	48.330000	480.000000	0.000000	130.000000	54.000000	0.000000	-8.000000
2.000000	59.670000	48.280000	453.000000	0.000000	130.000000	54.000000	-8.000000	-5.000000
2.010000	59.670000	48.280000	387.000000	0.000000	130.000000	54.000000	0.000000	0.000000
2.020000	59.670000	48.280000	314.000000	0.000000	129.000000	55.000000	0.000000	0.000000
2.030000	59.670000	48.280000	260.000000	0.000000	129.000000	55.000000	0.000000	0.000000
2.040000	59.760000	48.280000	137.000000	0.000000	129.000000	55.000000	9.000000	0.000000
2.050000	59.760000	48.280000	0.000000	1.000000	129.000000	55.000000	0.000000	0.000000
2.060000	59.860000	48.040000	0.000000	0.000000	129.000000	55.000000	10.000000	-24.000000
2.070000	59.860000	47.950000	0.000000	0.000000	129.000000	55.000000	0.000000	-9.000000
2.080000	59.760000	47.950000	0.000000	0.000000	130.000000	55.000000	-10.000000	0.000000
2.090000	59.700000	47.900000	0.000000	0.000000	130.000000	55.000000	-6.000000	-5.000000
2.100000	59.700000	47.950000	0.000000	0.000000	130.000000	55.000000	0.000000	5.000000
2.110000	59.700000	48.040000	0.000000	0.000000	130.000000	55.000000	0.000000	9.000000
2.120000	59.900000	48.120000	0.000000	0.000000	130.000000	54.000000	20.000000	8.000000
2.130000	60.170000	48.200000	0.000000	0.000000	130.000000	54.000000	27.000000	8.000000
2.140000	60.490000	48.270000	0.000000	0.000000	129.000000	53.000000	32.000000	7.000000
2.150000	60.830000	48.340000	0.000000	0.000000	129.000000	53.000000	34.000000	7.000000
2.160000	61.090000	48.340000	0.000000	0.000000	128.000000	53.000000	26.000000	0.000000
2.170000	61.310000	48.390000	0.000000	0.000000	127.000000	52.000000	22.000000	5.000000
2.180000	61.400000	48.390000	0.000000	0.000000	125.000000	53.000000	9.000000	0.000000
2.190000	61.490000	48.520000	0.000000	0.000000	125.000000	53.000000	9.000000	13.000000
2.200000	61.490000	48.680000	0.000000	0.000000	124.000000	53.000000	0.000000	16.000000
2.210000	61.490000	48.840000	0.000000	0.000000	124.000000	53.000000	0.000000	16.000000
