t	x	y	pressure	penup	azimuth	inclination	v_x	v_y
0.000000	14.840000	45.560000	132.000000	1.000000	151.000000	66.000000	0.000000	0.000000
0.010000	14.840000	45.560000	206.000000	0.000000	151.000000	66.000000	0.000000	0.000000
0.020000	14.840000	45.560000	309.000000	0.000000	152.000000	68.000000	0.000000	0.000000
0.030000	14.720000	45.270000	418.000000	0.000000	152.000000	68.000000	-12.000000	-29.000000
0.040000	14.720000	45.210000	512.000000	0.000000	154.000000	68.000000	0.000000	-6.000000
0.050000	14.810000	45.210000	581.000000	0.000000	154.000000	68.000000	9.000000	0.000000
0.060000	14.880000	45.130000	647.000000	0.000000	156.000000	68.000000	7.000000	-8.000000
0.070000	15.020000	45.130000	675.000000	0.000000	156.000000	68.000000	14.000000	0.000000
0.080000	15.200000	45.190000	696.000000	0.000000	159.000000	69.000000	18.000000	6.000000
0.090000	15.480000	45.350000	721.000000	0.000000	159.000000	69.000000	28.000000	16.000000
0.100000	15.820000	45.560000	751.000000	0.000000	159.000000	69.000000	34.000000	21.000000
0.110000	16.150000	45.810000	758.000000	0.000000	159.000000	69.000000	33.000000	25.000000
0.120000	16.590000	46.240000	757.000000	0.000000	159.000000	69.000000	44.000000	43.000000
0.130000	17.100000	46.790000	740.000000	0.000000	156.000000	68.000000	51.000000	55.000000
0.140000	17.590000	47.410000	733.000000	0.000000	159.000000	69.000000	49.000000	62.000000
0.150000	18.070000	48.220000	727.000000	0.000000	159.000000	69.000000	48.000000	81.000000
0.160000	18.450000	49.080000	733.000000	0.000000	160.000000	68.000000	38.000000	86.000000
0.170000	18.750000	49.970000	720.000000	0.000000	160.000000	68.000000	30.000000	89.000000
0.180000	18.920000	50.560000	739.000000	0.000000	161.000000	67.000000	17.000000	59.000000
0.190000	18.980000	50.880000	743.000000	0.000000	162.000000	66.000000	6.000000	32.000000
0.200000	18.980000	51.030000	748.000000	0.000000	162.000000	65.000000	0.000000	15.000000
0.210000	18.980000	50.970000	751.000000	0.000000	163.000000	64.000000	0.000000	-6.000000
0.220000	18.900000	50.660000	780.000000	0.000000	163.000000	64.000000	-8.000000	-31.000000
0.230000	18.830000	50.180000	784.000000	0.000000	163.000000	64.000000	-7.000000	-48.000000
0.240000	18.710000	49.410000	809.000000	0.000000	164.000000	63.000000	-12.000000	-77.000000
0.250000	18.650000	48.490000	824.000000	0.000000	163.000000	64.000000	-6.000000	-92.000000
0.260000	18.650000	47.470000	814.000000	0.000000	163.000000	64.000000	0.000000	-102.000000
0.270000	18.650000	46.560000	809.000000	0.000000	162.000000	65.000000	0.000000	-91.000000
0.280000	18.710000	46.010000	809.000000	0.000000	162.000000	66.000000	6.000000	-55.000000
0.290000	18.860000	45.700000	818.000000	0.000000	163.000000	67.000000	15.000000	-31.000000
0.300000	19.060000	45.700000	830.000000	0.000000	162.000000	68.000000	20.000000	0.000000
0.310000	19.300000	45.880000	827.000000	0.000000	162.000000	68.000000	24.000000	18.000000
0.320000	19.700000	46.260000	825.000000	0.000000	161.000000	69.000000	40.000000	38.000000
0.330000	20.180000	47.020000	825.000000	0.000000	161.000000	69.000000	48.000000	76.000000
0.340000	20.800000	48.050000	832.000000	0.000000	161.000000	69.000000	62.000000	103.000000
0.350000	21.380000	49.250000	819.000000	0.000000	164.000000	69.000000	58.000000	120.000000
0.360000	21.930000	50.250000	825.000000	0.000000	165.000000	68.000000	55.000000	100.000000
0.370000	22.250000	50.860000	845.000000	0.000000	165.000000	67.000000	32.000000	61.000000
0.380000	22.380000	51.200000	866.000000	0.000000	168.000000	67.000000	13.000000	34.000000
0.390000	22.380000	51.200000	855.000000	0.000000	169.000000	66.000000	0.000000	0.000000
0.400000	22.380000	50.910000	885.000000	0.000000	169.000000	65.000000	0.000000	-29.000000
0.410000	22.240000	50.440000	902.000000	0.000000	171.000000	65.000000	-14.000000	-47.000000
0.420000	22.040000	49.320000	937.000000	0.000000	171.000000	65.000000	-20.000000	-112.000000
0.430000	21.770000	47.740000	970.000000	0.000000	171.000000	65.000000	-27.000000	-158.000000
0.440000	21.420000	45.850000	973.000000	0.000000	171.000000	65.000000	-35.000000	-189.000000
0.450000	21.010000	43.790000	953.000000	0.000000	171.000000	66.000000	-41.000000	-206.000000
0.460000	20.700000	41.590000	944.000000	0.000000	171.000000	67.000000	-31.000000	-220.000000
0.470000	20.390000	39.300000	932.000000	0.000000	168.000000	68.000000	-31.000000	-229.000000
0.480000	20.150000	37.370000	935.000000	0.000000	167.000000	69.000000	-24.000000	-193.000000
0.490000	20.250000	36.050000	933.000000	0.000000	166.000000	70.000000	10.000000	-132.000000
0.500000	20.560000	35.130000	936.000000	0.000000	162.000000	71.000000	31.000000	-92.000000
0.510000	20.800000	34.650000	936.000000	0.000000	161.000000	72.000000	24.000000	-48.000000
0.520000	21.040000	34.470000	935.000000	0.000000	160.000000	73.000000	24.000000	-18.000000
0.530000	21.100000	34.470000	933.000000	0.000000	157.000000	73.000000	6.000000	0.000000
0.540000	21.030000	34.780000	912.000000	0.000000	159.000000	74.000000	-7.000000	31.000000
0.550000	20.920000	35.530000	879.000000	0.000000	159.000000	74.000000	-11.000000	75.000000
0.560000	20.500000	36.590000	854.000000	0.000000	159.000000	74.000000	-42.000000	106.000000
0.570000	19.860000	37.710000	870.000000	0.000000	159.000000	74.000000	-64.000000	112.000000
0.580000	18.840000	38.780000	878.000000	0.000000	159.000000	74.000000	-102.000000	107.000000
0.590000	17.390000	39.350000	896.000000	0.000000	160.000000	73.000000	-145.000000	57.000000
0.600000	15.660000	39.600000	891.000000	0.000000	163.000000	73.000000	-173.000000	25.000000
0.610000	13.810000	39.520000	897.000000	0.000000	164.000000	72.000000	-185.000000	-8.000000
0.620000	12.000000	39.210000	909.000000	0.000000	164.000000	72.000000	-181.000000	-31.000000
0.630000	10.720000	38.750000	909.000000	0.000000	165.000000	71.000000	-128.000000	-46.000000
0.640000	9.770000	38.280000	908.000000	0.000000	168.000000	72.000000	-95.000000	-47.000000
0.650000	9.390000	37.930000	894.000000	0.000000	168.000000	72.000000	-38.000000	-35.000000
0.660000	9.530000	37.650000	914.000000	0.000000	169.000000	71.000000	14.000000	-28.000000
0.670000	10.010000	37.380000	932.000000	0.000000	171.000000	71.000000	48.000000	-27.000000
0.680000	11.360000	37.520000	951.000000	0.000000	171.000000	71.000000	135.000000	14.000000
0.690000	13.450000	37.930000	947.000000	0.000000	171.000000	71.000000	209.000000	41.000000
0.700000	16.030000	38.810000	940.000000	0.000000	174.000000	71.000000	258.000000	88.000000
0.710000	19.130000	39.860000	947.000000	0.000000	175.000000	70.000000	310.000000	105.000000
0.720000	22.520000	41.030000	995.000000	0.000000	175.000000	70.000000	339.000000	117.000000
0.730000	26.090000	42.170000	997.000000	0.000000	175.000000	70.000000	357.000000	114.000000
0.740000	29.580000	43.310000	1006.000000	0.000000	175.000000	70.000000	349.000000	114.000000
0.750000	33.040000	44.450000	1023.000000	0.000000	175.000000	70.000000	346.000000	114.000000
0.760000	35.940000	45.280000	1023.000000	0.000000	175.000000	70.000000	290.000000	83.000000
0.770000	38.470000	45.930000	1023.000000	0.000000	175.000000	70.000000	253.000000	65.000000
0.780000	40.290000	46.460000	1023.000000	0.000000	172.000000	70.000000	182.000000	53.000000
0.790000	41.540000	46.800000	1023.000000	0.000000	169.000000	70.000000	125.000000	34.000000
0.800000	42.410000	46.970000	1023.000000	0.000000	169.000000	71.000000	87.000000	17.000000
0.810000	42.690000	47.030000	1023.000000	0.000000	169.000000	71.000000	28.000000	6.000000
0.820000	42.760000	47.030000	1023.000000	0.000000	166.000000	70.000000	7.000000	0.000000
0.830000	42.690000	47.030000	1023.000000	0.000000	166.000000	70.000000	-7.000000	0.000000
0.840000	42.610000	46.970000	1023.000000	0.000000	166.000000	70.000000	-8.000000	-6.000000
0.850000	42.480000	46.970000	1023.000000	0.000000	166.000000	69.000000	-13.000000	0.000000
0.860000	42.320000	46.970000	1023.000000	0.000000	166.000000	69.000000	-16.000000	0.000000
0.870000	42.110000	46.840000	994.000000	0.000000	166.000000	69.000000	-21.000000	-13.000000
0.880000	41.930000	46.770000	854.000000	0.000000	166.000000	69.000000	-18.000000	-7.000000
0.890000	41.800000	46.770000	491.000000	0.000000	166.000000	69.000000	-13.000000	0.000000
0.900000	41.800000	46.770000	0.000000	1.000000	166.000000	69.000000	0.000000	0.000000
0.910000	41.880000	46.690000	0.000000	0.000000	166.000000	69.000000	8.000000	-8.000000
0.920000	41.950000	46.690000	0.000000	0.000000	166.000000	69.000000	7.000000	0.000000
0.930000	41.950000	46.870000	0.000000	0.000000	166.000000	69.000000	0.000000	18.000000
0.940000	41.760000	46.930000	0.000000	0.000000	164.000000	69.000000	-19.000000	6.000000
0.950000	41.400000	46.930000	0.000000	0.000000	165.000000	68.000000	-36.000000	0.000000
0.960000	40.790000	46.880000	0.000000	0.000000	164.000000	66.000000	-61.000000	-5.000000
0.970000	40.010000	46.740000	0.000000	0.000000	162.000000	65.000000	-78.000000	-14.000000
0.980000	39.120000	46.490000	0.000000	0.000000	164.000000	63.000000	-89.000000	-25.000000
0.990000	37.940000	46.100000	0.000000	0.000000	165.000000	62.000000	-118.000000	-39.000000
1.000000	36.750000	45.610000	0.000000	0.000000	163.000000	61.000000	-119.000000	-49.000000
1.010000	35.590000	45.160000	0.000000	0.000000	165.000000	59.000000	-116.000000	-45.000000
1.020000	34.490000	44.720000	0.000000	0.000000	164.000000	58.000000	-110.000000	-44.000000
1.030000	33.520000	44.280000	0.000000	0.000000	163.000000	57.000000	-97.000000	-44.000000
1.040000	32.610000	43.850000	0.000000	0.000000	161.000000	57.000000	-91.000000	-43.000000
1.050000	31.910000	43.410000	0.000000	0.000000	162.000000	56.000000	-70.000000	-44.000000
1.060000	31.230000	42.990000	0.000000	0.000000	160.000000	55.000000	-68.000000	-42.000000
1.070000	30.770000	42.580000	0.000000	0.000000	160.000000	55.000000	-46.000000	-41.000000
1.080000	30.460000	42.220000	0.000000	0.000000	159.000000	55.000000	-31.000000	-36.000000
1.090000	30.090000	42.000000	0.000000	0.000000	159.000000	55.000000	-37.000000	-22.000000
1.100000	29.700000	41.900000	0.000000	0.000000	159.000000	55.000000	-39.000000	-10.000000
1.110000	29.290000	41.800000	0.000000	0.000000	159.000000	55.000000	-41.000000	-10.000000
1.120000	28.940000	41.750000	0.000000	0.000000	159.000000	55.000000	-35.000000	-5.000000
1.130000	28.520000	41.750000	0.000000	0.000000	159.000000	55.000000	-42.000000	0.000000
1.140000	27.960000	41.750000	0.000000	0.000000	159.000000	55.000000	-56.000000	0.000000
1.150000	27.340000	41.750000	0.000000	0.000000	157.000000	56.000000	-62.000000	0.000000
1.160000	26.720000	41.750000	0.000000	0.000000	154.000000	56.000000	-62.000000	0.000000
1.170000	26.090000	41.750000	0.000000	0.000000	154.000000	57.000000	-63.000000	0.000000
1.180000	25.450000	41.750000	0.000000	0.000000	155.000000	58.000000	-64.000000	0.000000
1.190000	24.800000	41.750000	0.000000	0.000000	158.000000	58.000000	-65.000000	0.000000
1.200000	24.250000	41.670000	0.000000	0.000000	160.000000	58.000000	-55.000000	-8.000000
1.210000	23.770000	41.620000	0.000000	0.000000	158.000000	60.000000	-48.000000	-5.000000
1.220000	23.450000	41.620000	0.000000	0.000000	156.000000	62.000000	-32.000000	0.000000
1.230000	23.220000	41.570000	0.000000	0.000000	167.000000	65.000000	-23.000000	-5.000000
1.240000	23.100000	41.960000	0.000000	0.000000	178.000000	67.000000	-12.000000	39.000000
1.250000	22.970000	42.130000	0.000000	0.000000	185.000000	67.000000	-13.000000	17.000000
1.260000	22.970000	42.130000	0.000000	0.000000	194.000000	66.000000	0.000000	0.000000
1.270000	23.020000	42.350000	0.000000	0.000000	187.000000	67.000000	5.000000	22.000000
1.280000	23.160000	42.550000	0.000000	0.000000	182.000000	67.000000	14.000000	20.000000
1.290000	23.280000	42.760000	0.000000	0.000000	178.000000	67.000000	12.000000	21.000000
1.300000	23.390000	42.930000	0.000000	0.000000	173.000000	66.000000	11.000000	17.000000
1.310000	23.490000	42.980000	0.000000	0.000000	169.000000	66.000000	10.000000	5.000000
1.320000	23.550000	42.980000	0.000000	0.000000	165.000000	65.000000	6.000000	0.000000
1.330000	23.550000	42.870000	0.000000	0.000000	162.000000	65.000000	0.000000	-11.000000
1.340000	23.550000	42.870000	0.000000	0.000000	162.000000	65.000000	0.000000	0.000000
1.350000	23.470000	42.870000	0.000000	0.000000	163.000000	64.000000	-8.000000	0.000000
1.360000	23.370000	42.970000	0.000000	0.000000	163.000000	64.000000	-10.000000	10.000000
1.370000	23.320000	43.150000	0.000000	0.000000	163.000000	64.000000	-5.000000	18.000000
1.380000	23.320000	43.340000	0.000000	0.000000	163.000000	64.000000	0.000000	19.000000
1.390000	23.390000	43.540000	0.000000	0.000000	163.000000	64.000000	7.000000	20.000000
1.400000	23.470000	43.740000	0.000000	0.000000	163.000000	64.000000	8.000000	20.000000
1.410000	23.630000	43.960000	0.000000	0.000000	163.000000	64.000000	16.000000	22.000000
1.420000	23.710000	44.190000	0.000000	0.000000	163.000000	64.000000	8.000000	23.000000
1.430000	23.710000	44.380000	0.000000	0.000000	165.000000	64.000000	0.000000	19.000000
1.440000	23.850000	44.580000	0.000000	0.000000	165.000000	64.000000	14.000000	20.000000
1.450000	24.010000	44.780000	0.000000	0.000000	165.000000	64.000000	16.000000	20.000000
1.460000	24.230000	44.970000	0.000000	0.000000	165.000000	64.000000	22.000000	19.000000
1.470000	24.500000	45.140000	0.000000	0.000000	165.000000	64.000000	27.000000	17.000000
1.480000	24.790000	45.310000	0.000000	0.000000	165.000000	64.000000	29.000000	17.000000
1.490000	25.110000	45.490000	0.000000	0.000000	165.000000	64.000000	32.000000	18.000000
1.500000	25.470000	45.760000	0.000000	0.000000	165.000000	65.000000	36.000000	27.000000
1.510000	25.880000	46.110000	0.000000	0.000000	165.000000	65.000000	41.000000	35.000000
1.520000	26.280000	46.560000	0.000000	0.000000	167.000000	65.000000	40.000000	45.000000
1.530000	26.280000	46.560000	405.000000	1.000000	167.000000	65.000000	0.000000	0.000000
1.540000	26.950000	47.820000	392.000000	0.000000	167.000000	65.000000	67.000000	126.000000
1.550000	27.150000	48.710000	391.000000	0.000000	167.000000	65.000000	20.000000	89.000000
1.560000	27.410000	49.570000	448.000000	0.000000	167.000000	65.000000	26.000000	86.000000
1.570000	27.460000	50.410000	529.000000	0.000000	167.000000	65.000000	5.000000	84.000000
1.580000	27.360000	51.010000	616.000000	0.000000	167.000000	65.000000	-10.000000	60.000000
1.590000	27.080000	51.290000	627.000000	0.000000	165.000000	64.000000	-28.000000	28.000000
1.600000	26.530000	51.350000	641.000000	0.000000	166.000000	63.000000	-55.000000	6.000000
1.610000	25.800000	51.050000	697.000000	0.000000	166.000000	63.000000	-73.000000	-30.000000
1.620000	24.860000	50.370000	734.000000	0.000000	166.000000	63.000000	-94.000000	-68.000000
1.630000	24.090000	49.450000	752.000000	0.000000	168.000000	63.000000	-77.000000	-92.000000
1.640000	23.430000	48.230000	743.000000	0.000000	168.000000	63.000000	-66.000000	-122.000000
1.650000	23.040000	47.000000	733.000000	0.000000	168.000000	63.000000	-39.000000	-123.000000
1.660000	22.940000	45.800000	728.000000	0.000000	169.000000	65.000000	-10.000000	-120.000000
1.670000	23.030000	45.060000	727.000000	0.000000	169.000000	66.000000	9.000000	-74.000000
1.680000	23.360000	44.610000	730.000000	0.000000	168.000000	67.000000	33.000000	-45.000000
1.690000	23.830000	44.510000	733.000000	0.000000	168.000000	67.000000	47.000000	-10.000000
1.700000	24.380000	44.700000	720.000000	0.000000	168.000000	68.000000	55.000000	19.000000
1.710000	24.980000	45.080000	721.000000	0.000000	167.000000	69.000000	60.000000	38.000000
1.720000	25.510000	45.640000	721.000000	0.000000	167.000000	69.000000	53.000000	56.000000
1.730000	25.980000	46.190000	742.000000	0.000000	170.000000	69.000000	47.000000	55.000000
1.740000	26.130000	46.420000	751.000000	0.000000	170.000000	69.000000	15.000000	23.000000
1.750000	26.130000	46.420000	760.000000	0.000000	170.000000	69.000000	0.000000	0.000000
1.760000	26.030000	46.280000	794.000000	0.000000	172.000000	70.000000	-10.000000	-14.000000
1.770000	25.810000	45.630000	857.000000	0.000000	172.000000	70.000000	-22.000000	-65.000000
1.780000	25.600000	44.670000	894.000000	0.000000	172.000000	70.000000	-21.000000	-96.000000
1.790000	25.390000	43.430000	941.000000	0.000000	172.000000	70.000000	-21.000000	-124.000000
1.800000	25.150000	42.020000	958.000000	0.000000	172.000000	70.000000	-24.000000	-141.000000
1.810000	24.900000	40.500000	974.000000	0.000000	172.000000	70.000000	-25.000000	-152.000000
1.820000	24.510000	39.160000	979.000000	0.000000	172.000000	70.000000	-39.000000	-134.000000
1.830000	24.280000	38.150000	1006.000000	0.000000	172.000000	70.000000	-23.000000	-101.000000
1.840000	24.150000	37.360000	1015.000000	0.000000	172.000000	70.000000	-13.000000	-79.000000
1.850000	24.150000	37.070000	1023.000000	0.000000	169.000000	71.000000	0.000000	-29.000000
1.860000	24.150000	37.020000	1023.000000	0.000000	169.000000	71.000000	0.000000	-5.000000
1.870000	24.150000	37.130000	1017.000000	0.000000	169.000000	71.000000	0.000000	11.000000
1.880000	24.150000	37.340000	964.000000	0.000000	168.000000	72.000000	0.000000	21.000000
1.890000	24.150000	37.710000	839.000000	0.000000	165.000000	71.000000	0.000000	37.000000
1.900000	24.280000	38.200000	551.000000	0.000000	165.000000	71.000000	13.000000	49.000000
1.910000	24.480000	38.750000	25.000000	0.000000	165.000000	71.000000	20.000000	55.000000
1.920000	24.480000	38.750000	0.000000	1.000000	165.000000	71.000000	0.000000	0.000000
1.930000	25.120000	39.990000	0.000000	0.000000	165.000000	71.000000	64.000000	124.000000
1.940000	25.500000	40.770000	0.000000	0.000000	165.000000	71.000000	38.000000	78.000000
1.950000	25.940000	41.560000	0.000000	0.000000	165.000000	71.000000	44.000000	79.000000
1.960000	26.460000	42.350000	0.000000	0.000000	166.000000	70.000000	52.000000	79.000000
1.970000	26.930000	42.880000	0.000000	0.000000	163.000000	70.000000	47.000000	53.000000
1.980000	27.390000	43.410000	0.000000	0.000000	164.000000	69.000000	46.000000	53.000000
1.990000	27.750000	43.780000	0.000000	0.000000	162.000000	68.000000	36.000000	37.000000
2.000000	28.020000	44.050000	0.000000	0.000000	160.000000	68.000000	27.000000	27.000000
2.010000	28.220000	44.190000	0.000000	0.000000	159.000000	67.000000	20.000000	14.000000
2.020000	28.220000	44.190000	0.000000	0.000000	160.000000	66.000000	0.000000	0.000000
2.030000	28.220000	44.190000	0.000000	0.000000	157.000000	65.000000	0.000000	0.000000
2.040000	28.220000	44.190000	0.000000	0.000000	155.000000	65.000000	0.000000	0.000000
2.050000	27.900000	43.780000	0.000000	0.000000	155.000000	65.000000	-32.000000	-41.000000
2.060000	27.650000	43.450000	0.000000	0.000000	155.000000	65.000000	-25.000000	-33.000000
2.070000	27.650000	43.450000	374.000000	1.000000	154.000000	66.000000	0.000000	0.000000
2.080000	27.250000	42.920000	414.000000	0.000000	156.000000	66.000000	-40.000000	-53.000000
2.090000	27.250000	42.920000	516.000000	0.000000	156.000000	66.000000	0.000000	0.000000
2.100000	27.350000	42.920000	671.000000	0.000000	158.000000	67.000000	10.000000	0.000000
2.110000	27.480000	43.040000	748.000000	0.000000	158.000000	67.000000	13.000000	12.000000
2.120000	27.670000	43.390000	787.000000	0.000000	158.000000	67.000000	19.000000	35.000000
2.130000	27.960000	43.880000	821.000000	0.000000	158.000000	67.000000	29.000000	49.000000
2.140000	28.290000	44.520000	823.000000	0.000000	158.000000	67.000000	33.000000	64.000000
2.150000	28.620000	45.380000	817.000000	0.000000	158.000000	67.000000	33.000000	86.000000
2.160000	28.970000	46.390000	794.000000	0.000000	158.000000	67.000000	35.000000	101.000000
2.170000	29.230000	47.500000	776.000000	0.000000	160.000000	68.000000	26.000000	111.000000
2.180000	29.430000	48.740000	767.000000	0.000000	160.000000	68.000000	20.000000	124.000000
2.190000	29.610000	50.080000	768.000000	0.000000	161.000000	67.000000	18.000000	134.000000
2.200000	29.690000	50.820000	771.000000	0.000000	164.000000	66.000000	8.000000	74.000000
