t	x	y	pressure	penup	azimuth	inclination	v_x	v_y
0.000000	93.440000	65.760000	256.000000	1.000000	95.000000	60.000000	0.000000	0.000000
0.010000	93.560000	67.160000	312.000000	0.000000	95.000000	61.000000	12.000000	140.000000
0.020000	93.490000	67.800000	422.000000	0.000000	95.000000	61.000000	-7.000000	64.000000
0.030000	93.490000	68.340000	561.000000	0.000000	95.000000	61.000000	0.000000	54.000000
0.040000	93.390000	68.840000	682.000000	0.000000	95.000000	61.000000	-10.000000	50.000000
0.050000	93.280000	68.840000	771.000000	0.000000	95.000000	61.000000	-11.000000	0.000000
0.060000	93.140000	68.840000	818.000000	0.000000	95.000000	61.000000	-14.000000	0.000000
0.070000	93.070000	68.500000	860.000000	0.000000	95.000000	61.000000	-7.000000	-34.000000
0.080000	93.070000	67.960000	888.000000	0.000000	97.000000	61.000000	0.000000	-54.000000
0.090000	92.990000	66.860000	917.000000	0.000000	97.000000	60.000000	-8.000000	-110.000000
0.100000	92.890000	65.330000	946.000000	0.000000	99.000000	60.000000	-10.000000	-153.000000
0.110000	92.690000	63.510000	994.000000	0.000000	99.000000	60.000000	-20.000000	-182.000000
0.120000	92.380000	61.170000	1023.000000	0.000000	99.000000	60.000000	-31.000000	-234.000000
0.130000	92.000000	58.900000	1023.000000	0.000000	97.000000	60.000000	-38.000000	-227.000000
0.140000	91.620000	56.690000	1023.000000	0.000000	97.000000	60.000000	-38.000000	-221.000000
0.150000	91.410000	55.210000	1023.000000	0.000000	95.000000	60.000000	-21.000000	-148.000000
0.160000	91.300000	54.580000	1018.000000	0.000000	93.000000	60.000000	-11.000000	-63.000000
0.170000	91.300000	54.520000	990.000000	0.000000	93.000000	60.000000	0.000000	-6.000000
0.180000	91.300000	54.710000	979.000000	0.000000	92.000000	60.000000	0.000000	19.000000
0.190000	91.380000	55.490000	940.000000	0.000000	92.000000	60.000000	8.000000	78.000000
0.200000	91.470000	56.660000	906.000000	0.000000	90.000000	60.000000	9.000000	117.000000
0.210000	91.610000	58.530000	906.000000	0.000000	90.000000	60.000000	14.000000	187.000000
0.220000	91.800000	60.310000	906.000000	0.000000	90.000000	60.000000	19.000000	178.000000
0.230000	92.060000	62.030000	905.000000	0.000000	90.000000	60.000000	26.000000	172.000000
0.240000	92.390000	63.380000	894.000000	0.000000	90.000000	60.000000	33.000000	135.000000
0.250000	92.760000	64.460000	909.000000	0.000000	92.000000	60.000000	37.000000	108.000000
0.260000	93.180000	65.370000	906.000000	0.000000	92.000000	60.000000	42.000000	91.000000
0.270000	93.600000	65.990000	900.000000	0.000000	92.000000	60.000000	42.000000	62.000000
0.280000	94.020000	66.340000	903.000000	0.000000	92.000000	60.000000	42.000000	35.000000
0.290000	94.310000	66.510000	892.000000	0.000000	92.000000	60.000000	29.000000	17.000000
0.300000	94.530000	66.510000	908.000000	0.000000	92.000000	60.000000	22.000000	0.000000
0.310000	94.600000	66.390000	948.000000	0.000000	92.000000	60.000000	7.000000	-12.000000
0.320000	94.670000	66.140000	938.000000	0.000000	92.000000	61.000000	7.000000	-25.000000
0.330000	94.670000	65.640000	964.000000	0.000000	92.000000	61.000000	0.000000	-50.000000
0.340000	94.670000	64.920000	976.000000	0.000000	92.000000	61.000000	0.000000	-72.000000
0.350000	94.620000	64.050000	982.000000	0.000000	92.000000	61.000000	-5.000000	-87.000000
0.360000	94.620000	63.150000	985.000000	0.000000	94.000000	62.000000	0.000000	-90.000000
0.370000	94.760000	62.330000	983.000000	0.000000	94.000000	62.000000	14.000000	-82.000000
0.380000	94.880000	61.820000	965.000000	0.000000	96.000000	62.000000	12.000000	-51.000000
0.390000	95.110000	61.500000	941.000000	0.000000	96.000000	62.000000	23.000000	-32.000000
0.400000	95.420000	61.500000	951.000000	0.000000	96.000000	63.000000	31.000000	0.000000
0.410000	95.690000	61.750000	948.000000	0.000000	96.000000	63.000000	27.000000	25.000000
0.420000	95.920000	62.180000	948.000000	0.000000	98.000000	63.000000	23.000000	43.000000
0.430000	96.110000	62.800000	948.000000	0.000000	96.000000	63.000000	19.000000	62.000000
0.440000	96.240000	63.410000	948.000000	0.000000	96.000000	63.000000	13.000000	61.000000
0.450000	96.370000	64.000000	948.000000	0.000000	96.000000	63.000000	13.000000	59.000000
0.460000	96.510000	64.590000	942.000000	0.000000	94.000000	63.000000	14.000000	59.000000
0.470000	96.640000	65.140000	917.000000	0.000000	94.000000	63.000000	13.000000	55.000000
0.480000	96.790000	65.430000	903.000000	0.000000	94.000000	62.000000	15.000000	29.000000
0.490000	96.790000	65.540000	908.000000	0.000000	92.000000	62.000000	0.000000	11.000000
0.500000	96.790000	65.460000	914.000000	0.000000	92.000000	62.000000	0.000000	-8.000000
0.510000	96.790000	65.360000	924.000000	0.000000	92.000000	62.000000	0.000000	-10.000000
0.520000	96.720000	65.050000	933.000000	0.000000	92.000000	62.000000	-7.000000	-31.000000
0.530000	96.650000	64.620000	935.000000	0.000000	92.000000	62.000000	-7.000000	-43.000000
0.540000	96.540000	63.930000	933.000000	0.000000	92.000000	62.000000	-11.000000	-69.000000
0.550000	96.620000	63.350000	937.000000	0.000000	92.000000	62.000000	8.000000	-58.000000
0.560000	96.720000	62.840000	951.000000	0.000000	92.000000	62.000000	10.000000	-51.000000
0.570000	96.980000	62.610000	948.000000	0.000000	94.000000	62.000000	26.000000	-23.000000
0.580000	97.330000	62.560000	944.000000	0.000000	94.000000	63.000000	35.000000	-5.000000
0.590000	97.710000	62.630000	932.000000	0.000000	94.000000	63.000000	38.000000	7.000000
0.600000	98.100000	63.020000	917.000000	0.000000	96.000000	63.000000	39.000000	39.000000
0.610000	98.510000	63.570000	909.000000	0.000000	96.000000	63.000000	41.000000	55.000000
0.620000	98.860000	64.230000	906.000000	0.000000	94.000000	63.000000	35.000000	66.000000
0.630000	99.180000	64.860000	906.000000	0.000000	94.000000	63.000000	32.000000	63.000000
0.640000	99.500000	65.640000	915.000000	0.000000	94.000000	63.000000	32.000000	78.000000
0.650000	99.780000	66.510000	921.000000	0.000000	92.000000	62.000000	28.000000	87.000000
0.660000	100.020000	67.380000	933.000000	0.000000	92.000000	62.000000	24.000000	87.000000
0.670000	100.190000	68.130000	936.000000	0.000000	92.000000	62.000000	17.000000	75.000000
0.680000	100.240000	68.690000	941.000000	0.000000	92.000000	61.000000	5.000000	56.000000
0.690000	100.240000	69.040000	941.000000	0.000000	92.000000	61.000000	0.000000	35.000000
0.700000	100.160000	69.240000	951.000000	0.000000	94.000000	61.000000	-8.000000	20.000000
0.710000	100.060000	69.340000	952.000000	0.000000	93.000000	60.000000	-10.000000	10.000000
0.720000	99.940000	69.400000	965.000000	0.000000	95.000000	60.000000	-12.000000	6.000000
0.730000	99.860000	69.400000	971.000000	0.000000	95.000000	60.000000	-8.000000	0.000000
0.740000	99.720000	69.320000	982.000000	0.000000	97.000000	60.000000	-14.000000	-8.000000
0.750000	99.530000	68.800000	982.000000	0.000000	97.000000	60.000000	-19.000000	-52.000000
0.760000	99.290000	68.020000	977.000000	0.000000	97.000000	60.000000	-24.000000	-78.000000
0.770000	99.060000	67.040000	991.000000	0.000000	97.000000	61.000000	-23.000000	-98.000000
0.780000	98.870000	66.010000	999.000000	0.000000	97.000000	61.000000	-19.000000	-103.000000
0.790000	98.740000	64.900000	1003.000000	0.000000	97.000000	61.000000	-13.000000	-111.000000
0.800000	98.740000	64.050000	985.000000	0.000000	97.000000	62.000000	0.000000	-85.000000
0.810000	98.930000	63.390000	995.000000	0.000000	97.000000	62.000000	19.000000	-66.000000
0.820000	99.260000	62.970000	976.000000	0.000000	97.000000	62.000000	33.000000	-42.000000
0.830000	99.610000	62.800000	952.000000	0.000000	98.000000	63.000000	35.000000	-17.000000
0.840000	100.020000	62.800000	947.000000	0.000000	98.000000	63.000000	41.000000	0.000000
0.850000	100.440000	63.000000	942.000000	0.000000	96.000000	63.000000	42.000000	20.000000
0.860000	100.850000	63.460000	939.000000	0.000000	96.000000	63.000000	41.000000	46.000000
0.870000	101.300000	64.090000	927.000000	0.000000	96.000000	62.000000	45.000000	63.000000
0.880000	101.680000	64.740000	914.000000	0.000000	94.000000	62.000000	38.000000	65.000000
0.890000	102.010000	65.340000	906.000000	0.000000	94.000000	61.000000	33.000000	60.000000
0.900000	102.280000	65.900000	903.000000	0.000000	92.000000	61.000000	27.000000	56.000000
0.910000	102.410000	66.270000	914.000000	0.000000	92.000000	61.000000	13.000000	37.000000
0.920000	102.410000	66.450000	933.000000	0.000000	90.000000	60.000000	0.000000	18.000000
0.930000	102.410000	66.500000	943.000000	0.000000	90.000000	60.000000	0.000000	5.000000
0.940000	102.410000	66.500000	965.000000	0.000000	90.000000	60.000000	0.000000	0.000000
0.950000	102.410000	66.420000	974.000000	0.000000	90.000000	60.000000	0.000000	-8.000000
0.960000	102.280000	66.100000	983.000000	0.000000	90.000000	60.000000	-13.000000	-32.000000
0.970000	102.160000	65.620000	988.000000	0.000000	90.000000	60.000000	-12.000000	-48.000000
0.980000	102.020000	65.020000	1005.000000	0.000000	90.000000	60.000000	-14.000000	-60.000000
0.990000	102.020000	64.440000	1005.000000	0.000000	90.000000	60.000000	0.000000	-58.000000
1.000000	102.020000	63.840000	1000.000000	0.000000	90.000000	60.000000	0.000000	-60.000000
1.010000	102.020000	63.460000	982.000000	0.000000	90.000000	60.000000	0.000000	-38.000000
1.020000	102.020000	63.460000	950.000000	0.000000	90.000000	61.000000	0.000000	0.000000
1.030000	102.230000	63.180000	891.000000	0.000000	92.000000	61.000000	21.000000	-28.000000
1.040000	102.360000	63.180000	673.000000	0.000000	92.000000	61.000000	13.000000	0.000000
1.050000	102.360000	63.180000	0.000000	1.000000	92.000000	61.000000	0.000000	0.000000
1.060000	102.420000	63.670000	0.000000	0.000000	94.000000	61.000000	6.000000	49.000000
1.070000	102.420000	64.140000	0.000000	0.000000	94.000000	61.000000	0.000000	47.000000
1.080000	102.330000	64.680000	0.000000	0.000000	94.000000	61.000000	-9.000000	54.000000
1.090000	102.200000	65.310000	0.000000	0.000000	94.000000	61.000000	-13.000000	63.000000
1.100000	102.200000	65.890000	0.000000	0.000000	94.000000	61.000000	0.000000	58.000000
1.110000	102.200000	66.370000	0.000000	0.000000	93.000000	60.000000	0.000000	48.000000
1.120000	102.200000	66.890000	0.000000	0.000000	93.000000	59.000000	0.000000	52.000000
1.130000	102.260000	67.440000	0.000000	0.000000	93.000000	59.000000	6.000000	55.000000
1.140000	102.320000	68.000000	0.000000	0.000000	93.000000	59.000000	6.000000	56.000000
1.150000	102.320000	68.520000	0.000000	0.000000	95.000000	58.000000	0.000000	52.000000
1.160000	102.320000	68.520000	467.000000	1.000000	95.000000	59.000000	0.000000	0.000000
1.170000	102.170000	68.880000	567.000000	0.000000	95.000000	59.000000	-15.000000	36.000000
1.180000	102.100000	68.880000	647.000000	0.000000	95.000000	59.000000	-7.000000	0.000000
1.190000	102.100000	68.940000	710.000000	0.000000	95.000000	60.000000	0.000000	6.000000
1.200000	102.100000	68.940000	702.000000	0.000000	95.000000	60.000000	0.000000	0.000000
1.210000	102.180000	68.940000	636.000000	0.000000	95.000000	61.000000	8.000000	0.000000
1.220000	102.360000	69.000000	480.000000	0.000000	95.000000	61.000000	18.000000	6.000000
1.230000	102.360000	69.000000	0.000000	1.000000	95.000000	61.000000	0.000000	0.000000
1.240000	102.830000	68.760000	0.000000	0.000000	95.000000	61.000000	47.000000	-24.000000
1.250000	102.950000	68.420000	0.000000	0.000000	95.000000	61.000000	12.000000	-34.000000
1.260000	103.000000	67.990000	0.000000	0.000000	95.000000	60.000000	5.000000	-43.000000
1.270000	103.160000	67.440000	0.000000	0.000000	95.000000	60.000000	16.000000	-55.000000
1.280000	103.370000	66.820000	0.000000	0.000000	95.000000	60.000000	21.000000	-62.000000
1.290000	103.720000	66.370000	0.000000	0.000000	95.000000	60.000000	35.000000	-45.000000
1.300000	104.130000	66.020000	0.000000	0.000000	95.000000	60.000000	41.000000	-35.000000
1.310000	104.430000	65.740000	0.000000	0.000000	95.000000	60.000000	30.000000	-28.000000
1.320000	104.610000	65.570000	0.000000	0.000000	95.000000	59.000000	18.000000	-17.000000
1.330000	104.700000	65.570000	0.000000	0.000000	93.000000	59.000000	9.000000	0.000000
1.340000	104.700000	65.570000	481.000000	1.000000	93.000000	60.000000	0.000000	0.000000
1.350000	104.700000	65.570000	624.000000	0.000000	93.000000	60.000000	0.000000	0.000000
1.360000	104.440000	65.680000	750.000000	0.000000	92.000000	60.000000	-26.000000	11.000000
1.370000	104.300000	65.780000	863.000000	0.000000	92.000000	61.000000	-14.000000	10.000000
1.380000	104.170000	65.780000	930.000000	0.000000	90.000000	61.000000	-13.000000	0.000000
1.390000	103.960000	65.840000	981.000000	0.000000	90.000000	61.000000	-21.000000	6.000000
1.400000	103.690000	65.840000	1018.000000	0.000000	90.000000	61.000000	-27.000000	0.000000
1.410000	103.360000	65.720000	1023.000000	0.000000	90.000000	61.000000	-33.000000	-12.000000
1.420000	103.020000	65.460000	1023.000000	0.000000	90.000000	61.000000	-34.000000	-26.000000
1.430000	102.660000	65.100000	1023.000000	0.000000	90.000000	61.000000	-36.000000	-36.000000
1.440000	102.370000	64.640000	1023.000000	0.000000	90.000000	61.000000	-29.000000	-46.000000
1.450000	102.110000	64.140000	1023.000000	0.000000	92.000000	61.000000	-26.000000	-50.000000
1.460000	102.050000	63.590000	1023.000000	0.000000	92.000000	61.000000	-6.000000	-55.000000
1.470000	102.100000	63.210000	1023.000000	0.000000	94.000000	61.000000	5.000000	-38.000000
1.480000	102.280000	62.940000	996.000000	0.000000	94.000000	61.000000	18.000000	-27.000000
1.490000	102.630000	62.830000	992.000000	0.000000	94.000000	61.000000	35.000000	-11.000000
1.500000	103.100000	63.020000	971.000000	0.000000	95.000000	61.000000	47.000000	19.000000
1.510000	103.650000	63.410000	959.000000	0.000000	95.000000	61.000000	55.000000	39.000000
1.520000	104.130000	63.940000	944.000000	0.000000	95.000000	61.000000	48.000000	53.000000
1.530000	104.570000	64.450000	944.000000	0.000000	95.000000	61.000000	44.000000	51.000000
1.540000	104.830000	64.940000	950.000000	0.000000	94.000000	61.000000	26.000000	49.000000
1.550000	104.950000	65.270000	970.000000	0.000000	94.000000	61.000000	12.000000	33.000000
1.560000	104.950000	65.490000	986.000000	0.000000	94.000000	61.000000	0.000000	22.000000
1.570000	104.950000	65.590000	1008.000000	0.000000	92.000000	61.000000	0.000000	10.000000
1.580000	104.860000	65.640000	1023.000000	0.000000	92.000000	62.000000	-9.000000	5.000000
1.590000	104.810000	65.640000	1023.000000	0.000000	92.000000	62.000000	-5.000000	0.000000
1.600000	104.760000	65.580000	1023.000000	0.000000	92.000000	62.000000	-5.000000	-6.000000
1.610000	104.630000	65.330000	1023.000000	0.000000	92.000000	62.000000	-13.000000	-25.000000
1.620000	104.440000	64.940000	1023.000000	0.000000	92.000000	62.000000	-19.000000	-39.000000
1.630000	104.270000	64.370000	1023.000000	0.000000	92.000000	62.000000	-17.000000	-57.000000
1.640000	104.130000	63.720000	1023.000000	0.000000	94.000000	62.000000	-14.000000	-65.000000
1.650000	104.020000	63.010000	1023.000000	0.000000	94.000000	62.000000	-11.000000	-71.000000
1.660000	104.070000	62.700000	1020.000000	0.000000	94.000000	62.000000	5.000000	-31.000000
1.670000	104.280000	62.520000	1008.000000	0.000000	96.000000	62.000000	21.000000	-18.000000
1.680000	104.590000	62.440000	990.000000	0.000000	96.000000	62.000000	31.000000	-8.000000
1.690000	105.010000	62.580000	987.000000	0.000000	96.000000	62.000000	42.000000	14.000000
1.700000	105.460000	62.920000	977.000000	0.000000	96.000000	62.000000	45.000000	34.000000
1.710000	105.900000	63.390000	992.000000	0.000000	96.000000	62.000000	44.000000	47.000000
1.720000	106.320000	63.960000	988.000000	0.000000	96.000000	62.000000	42.000000	57.000000
1.730000	106.690000	64.530000	986.000000	0.000000	94.000000	62.000000	37.000000	57.000000
1.740000	107.060000	65.100000	988.000000	0.000000	94.000000	62.000000	37.000000	57.000000
1.750000	107.330000	65.560000	994.000000	0.000000	94.000000	62.000000	27.000000	46.000000
1.760000	107.520000	65.780000	981.000000	0.000000	92.000000	62.000000	19.000000	22.000000
1.770000	107.520000	65.830000	1006.000000	0.000000	92.000000	62.000000	0.000000	5.000000
1.780000	107.520000	65.830000	1023.000000	0.000000	90.000000	62.000000	0.000000	0.000000
1.790000	107.520000	65.760000	1023.000000	0.000000	90.000000	62.000000	0.000000	-7.000000
1.800000	107.390000	65.660000	1023.000000	0.000000	90.000000	62.000000	-13.000000	-10.000000
1.810000	107.220000	65.320000	1023.000000	0.000000	90.000000	61.000000	-17.000000	-34.000000
1.820000	107.000000	64.820000	1023.000000	0.000000	90.000000	62.000000	-22.000000	-50.000000
1.830000	106.850000	64.290000	1023.000000	0.000000	90.000000	62.000000	-15.000000	-53.000000
1.840000	106.750000	63.790000	1023.000000	0.000000	92.000000	62.000000	-10.000000	-50.000000
1.850000	106.750000	63.340000	1023.000000	0.000000	92.000000	62.000000	0.000000	-45.000000
1.860000	106.700000	62.910000	1018.000000	0.000000	92.000000	62.000000	-5.000000	-43.000000
1.870000	106.700000	62.730000	994.000000	0.000000	92.000000	62.000000	0.000000	-18.000000
1.880000	106.880000	62.630000	983.000000	0.000000	94.000000	62.000000	18.000000	-10.000000
1.890000	107.100000	62.630000	952.000000	0.000000	94.000000	62.000000	22.000000	0.000000
1.900000	107.400000	62.880000	934.000000	0.000000	94.000000	62.000000	30.000000	25.000000
1.910000	107.720000	63.300000	950.000000	0.000000	96.000000	62.000000	32.000000	42.000000
1.920000	108.040000	63.800000	948.000000	0.000000	96.000000	62.000000	32.000000	50.000000
1.930000	108.360000	64.310000	948.000000	0.000000	94.000000	62.000000	32.000000	51.000000
1.940000	108.620000	64.680000	951.000000	0.000000	94.000000	62.000000	26.000000	37.000000
1.950000	108.840000	64.950000	935.000000	0.000000	94.000000	62.000000	22.000000	27.000000
1.960000	108.990000	65.150000	938.000000	0.000000	92.000000	62.000000	15.000000	20.000000
1.970000	109.060000	65.230000	947.000000	0.000000	92.000000	62.000000	7.000000	8.000000
1.980000	109.060000	65.230000	971.000000	0.000000	92.000000	62.000000	0.000000	0.000000
1.990000	109.060000	65.230000	982.000000	0.000000	92.000000	62.000000	0.000000	0.000000
2.000000	109.060000	65.230000	980.000000	0.000000	92.000000	62.000000	0.000000	0.000000
2.010000	109.060000	65.230000	979.000000	0.000000	92.000000	62.000000	0.000000	0.000000
2.020000	108.720000	64.580000	988.000000	0.000000	92.000000	62.000000	-34.000000	-65.000000
2.030000	108.610000	64.070000	986.000000	0.000000	92.000000	62.000000	-11.000000	-51.000000
2.040000	108.550000	63.500000	986.000000	0.000000	92.000000	62.000000	-6.000000	-57.000000
2.050000	108.550000	62.950000	982.000000	0.000000	94.000000	62.000000	0.000000	-55.000000
2.060000	108.660000	62.600000	962.000000	0.000000	94.000000	62.000000	11.000000	-35.000000
2.070000	108.840000	62.380000	962.000000	0.000000	94.000000	62.000000	18.000000	-22.000000
2.080000	109.170000	62.380000	959.000000	0.000000	96.000000	62.000000	33.000000	0.000000
2.090000	109.590000	62.480000	959.000000	0.000000	96.000000	62.000000	42.000000	10.000000
2.100000	109.970000	62.690000	964.000000	0.000000	96.000000	62.000000	38.000000	21.000000
2.110000	110.350000	62.910000	964.000000	0.000000	96.000000	62.000000	38.000000	22.000000
2.120000	110.650000	63.220000	967.000000	0.000000	97.000000	61.000000	30.000000	31.000000
2.130000	110.900000	63.590000	964.000000	0.000000	95.000000	61.000000	25.000000	37.000000
2.140000	111.160000	64.000000	964.000000	0.000000	95.000000	60.000000	26.000000	41.000000
2.150000	111.400000	64.420000	962.000000	0.000000	95.000000	60.000000	24.000000	42.000000
2.160000	111.590000	64.840000	965.000000	0.000000	95.000000	59.000000	19.000000	42.000000
2.170000	111.740000	65.090000	971.000000	0.000000	93.000000	59.000000	15.000000	25.000000
2.180000	111.740000	65.140000	985.000000	0.000000	93.000000	59.000000	0.000000	5.000000
2.190000	111.740000	65.050000	985.000000	0.000000	93.000000	58.000000	0.000000	-9.000000
2.200000	111.690000	64.980000	983.000000	0.000000	93.000000	58.000000	-5.000000	-7.000000
2.210000	111.610000	64.860000	977.000000	0.000000	93.000000	58.000000	-8.000000	-12.000000
