t	x	y	pressure	penup	azimuth	inclination	v_x	v_y
0.000000	52.650000	17.750000	53.000000	1.000000	141.000000	60.000000	0.000000	0.000000
0.010000	52.700000	18.000000	105.000000	0.000000	141.000000	60.000000	5.000000	25.000000
0.020000	52.600000	18.200000	149.000000	0.000000	141.000000	60.000000	-10.000000	20.000000
0.030000	52.520000	18.380000	190.000000	0.000000	142.000000	59.000000	-8.000000	18.000000
0.040000	52.470000	18.580000	216.000000	0.000000	142.000000	59.000000	-5.000000	20.000000
0.050000	52.470000	18.750000	262.000000	0.000000	142.000000	59.000000	0.000000	17.000000
0.060000	52.470000	18.900000	267.000000	0.000000	142.000000	59.000000	0.000000	15.000000
0.070000	52.470000	18.900000	282.000000	0.000000	142.000000	59.000000	0.000000	0.000000
0.080000	52.470000	18.900000	281.000000	0.000000	142.000000	59.000000	0.000000	0.000000
0.090000	52.420000	18.510000	310.000000	0.000000	143.000000	59.000000	-5.000000	-39.000000
0.100000	52.420000	17.880000	364.000000	0.000000	143.000000	59.000000	0.000000	-63.000000
0.110000	52.330000	16.530000	394.000000	0.000000	142.000000	59.000000	-9.000000	-135.000000
0.120000	52.200000	14.690000	412.000000	0.000000	142.000000	59.000000	-13.000000	-184.000000
0.130000	51.970000	12.520000	420.000000	0.000000	141.000000	60.000000	-23.000000	-217.000000
0.140000	51.780000	10.460000	439.000000	0.000000	139.000000	61.000000	-19.000000	-206.000000
0.150000	51.610000	8.920000	483.000000	0.000000	140.000000	62.000000	-17.000000	-154.000000
0.160000	51.610000	7.730000	517.000000	0.000000	138.000000	63.000000	0.000000	-119.000000
0.170000	51.890000	6.670000	541.000000	0.000000	138.000000	63.000000	28.000000	-106.000000
0.180000	52.390000	5.780000	561.000000	0.000000	137.000000	63.000000	50.000000	-89.000000
0.190000	52.940000	5.000000	583.000000	0.000000	137.000000	65.000000	55.000000	-78.000000
0.200000	53.520000	4.520000	586.000000	0.000000	135.000000	65.000000	58.000000	-48.000000
0.210000	54.110000	4.290000	586.000000	0.000000	135.000000	65.000000	59.000000	-23.000000
0.220000	54.710000	4.240000	594.000000	0.000000	135.000000	67.000000	60.000000	-5.000000
0.230000	55.240000	4.490000	572.000000	0.000000	135.000000	67.000000	53.000000	25.000000
0.240000	55.740000	4.980000	560.000000	0.000000	133.000000	67.000000	50.000000	49.000000
0.250000	56.130000	5.640000	561.000000	0.000000	133.000000	67.000000	39.000000	66.000000
0.260000	56.230000	6.640000	537.000000	0.000000	131.000000	68.000000	10.000000	100.000000
0.270000	56.140000	7.600000	537.000000	0.000000	133.000000	67.000000	-9.000000	96.000000
0.280000	55.720000	8.540000	556.000000	0.000000	133.000000	67.000000	-42.000000	94.000000
0.290000	55.000000	9.210000	561.000000	0.000000	135.000000	67.000000	-72.000000	67.000000
0.300000	54.090000	9.710000	561.000000	0.000000	135.000000	67.000000	-91.000000	50.000000
0.310000	52.900000	10.090000	560.000000	0.000000	135.000000	67.000000	-119.000000	38.000000
0.320000	51.440000	10.180000	561.000000	0.000000	137.000000	66.000000	-146.000000	9.000000
0.330000	49.790000	10.090000	570.000000	0.000000	135.000000	65.000000	-165.000000	-9.000000
0.340000	48.200000	9.880000	577.000000	0.000000	135.000000	65.000000	-159.000000	-21.000000
0.350000	46.660000	9.590000	605.000000	0.000000	135.000000	65.000000	-154.000000	-29.000000
0.360000	45.150000	9.330000	613.000000	0.000000	133.000000	65.000000	-151.000000	-26.000000
0.370000	44.080000	9.080000	637.000000	0.000000	133.000000	65.000000	-107.000000	-25.000000
0.380000	43.540000	8.920000	670.000000	0.000000	133.000000	65.000000	-54.000000	-16.000000
0.390000	43.360000	8.860000	664.000000	0.000000	137.000000	65.000000	-18.000000	-6.000000
0.400000	43.570000	8.860000	682.000000	0.000000	138.000000	64.000000	21.000000	0.000000
0.410000	44.330000	8.860000	702.000000	0.000000	140.000000	63.000000	76.000000	0.000000
0.420000	45.460000	9.000000	710.000000	0.000000	141.000000	64.000000	113.000000	14.000000
0.430000	47.340000	9.300000	725.000000	0.000000	141.000000	64.000000	188.000000	30.000000
0.440000	49.870000	9.700000	748.000000	0.000000	141.000000	64.000000	253.000000	40.000000
0.450000	52.840000	10.170000	760.000000	0.000000	141.000000	64.000000	297.000000	47.000000
0.460000	56.140000	10.680000	768.000000	0.000000	140.000000	65.000000	330.000000	51.000000
0.470000	59.880000	11.170000	762.000000	0.000000	140.000000	65.000000	374.000000	49.000000
0.480000	63.910000	11.790000	753.000000	0.000000	138.000000	65.000000	403.000000	62.000000
0.490000	67.880000	12.510000	725.000000	0.000000	138.000000	65.000000	397.000000	72.000000
0.500000	71.550000	13.130000	717.000000	0.000000	138.000000	65.000000	367.000000	62.000000
0.510000	75.010000	13.710000	687.000000	0.000000	138.000000	65.000000	346.000000	58.000000
0.520000	77.640000	14.180000	670.000000	0.000000	138.000000	65.000000	263.000000	47.000000
0.530000	79.570000	14.550000	641.000000	0.000000	140.000000	66.000000	193.000000	37.000000
0.540000	81.040000	14.830000	553.000000	0.000000	142.000000	65.000000	147.000000	28.000000
0.550000	81.840000	15.050000	345.000000	0.000000	145.000000	65.000000	80.000000	22.000000
0.560000	81.840000	15.050000	0.000000	1.000000	148.000000	63.000000	0.000000	0.000000
0.570000	82.160000	15.320000	0.000000	0.000000	149.000000	63.000000	32.000000	27.000000
0.580000	81.730000	15.410000	0.000000	0.000000	150.000000	62.000000	-43.000000	9.000000
0.590000	80.950000	15.490000	0.000000	0.000000	152.000000	60.000000	-78.000000	8.000000
0.600000	79.930000	15.490000	0.000000	0.000000	153.000000	59.000000	-102.000000	0.000000
0.610000	78.610000	15.490000	0.000000	0.000000	156.000000	59.000000	-132.000000	0.000000
0.620000	77.230000	15.320000	0.000000	0.000000	157.000000	58.000000	-138.000000	-17.000000
0.630000	75.810000	15.130000	0.000000	0.000000	157.000000	57.000000	-142.000000	-19.000000
0.640000	74.510000	14.920000	0.000000	0.000000	158.000000	56.000000	-130.000000	-21.000000
0.650000	73.230000	14.690000	0.000000	0.000000	158.000000	56.000000	-128.000000	-23.000000
0.660000	71.990000	14.440000	0.000000	0.000000	158.000000	55.000000	-124.000000	-25.000000
0.670000	70.780000	14.140000	0.000000	0.000000	158.000000	55.000000	-121.000000	-30.000000
0.680000	69.550000	13.790000	0.000000	0.000000	156.000000	55.000000	-123.000000	-35.000000
0.690000	68.300000	13.430000	0.000000	0.000000	154.000000	55.000000	-125.000000	-36.000000
0.700000	67.040000	13.110000	0.000000	0.000000	153.000000	55.000000	-126.000000	-32.000000
0.710000	66.040000	12.800000	0.000000	0.000000	153.000000	55.000000	-100.000000	-31.000000
0.720000	65.210000	12.600000	0.000000	0.000000	150.000000	55.000000	-83.000000	-20.000000
0.730000	64.480000	12.460000	0.000000	0.000000	149.000000	56.000000	-73.000000	-14.000000
0.740000	63.870000	12.460000	0.000000	0.000000	148.000000	57.000000	-61.000000	0.000000
0.750000	63.200000	12.460000	0.000000	0.000000	148.000000	57.000000	-67.000000	0.000000
0.760000	62.480000	12.460000	0.000000	0.000000	147.000000	58.000000	-72.000000	0.000000
0.770000	61.730000	12.460000	0.000000	0.000000	146.000000	58.000000	-75.000000	0.000000
0.780000	60.970000	12.460000	0.000000	0.000000	146.000000	58.000000	-76.000000	0.000000
0.790000	60.200000	12.460000	0.000000	0.000000	143.000000	59.000000	-77.000000	0.000000
0.800000	59.440000	12.340000	0.000000	0.000000	142.000000	58.000000	-76.000000	-12.000000
0.810000	58.900000	12.200000	0.000000	0.000000	139.000000	58.000000	-54.000000	-14.000000
0.820000	58.500000	12.070000	0.000000	0.000000	138.000000	58.000000	-40.000000	-13.000000
0.830000	58.130000	11.960000	0.000000	0.000000	138.000000	58.000000	-37.000000	-11.000000
0.840000	57.790000	11.860000	0.000000	0.000000	136.000000	58.000000	-34.000000	-10.000000
0.850000	57.490000	11.760000	0.000000	0.000000	136.000000	58.000000	-30.000000	-10.000000
0.860000	57.230000	11.690000	0.000000	0.000000	136.000000	60.000000	-26.000000	-7.000000
0.870000	56.970000	11.640000	0.000000	0.000000	136.000000	61.000000	-26.000000	-5.000000
0.880000	56.710000	11.640000	0.000000	0.000000	138.000000	61.000000	-26.000000	0.000000
0.890000	56.590000	11.640000	0.000000	0.000000	140.000000	62.000000	-12.000000	0.000000
0.900000	56.590000	11.760000	0.000000	0.000000	141.000000	63.000000	0.000000	12.000000
0.910000	56.590000	11.940000	0.000000	0.000000	143.000000	63.000000	0.000000	18.000000
0.920000	56.590000	12.140000	0.000000	0.000000	145.000000	64.000000	0.000000	20.000000
0.930000	56.530000	12.350000	0.000000	0.000000	145.000000	64.000000	-6.000000	21.000000
0.940000	56.530000	12.430000	0.000000	0.000000	145.000000	64.000000	0.000000	8.000000
0.950000	56.330000	12.430000	0.000000	0.000000	145.000000	64.000000	-20.000000	0.000000
0.960000	56.100000	12.430000	0.000000	0.000000	143.000000	64.000000	-23.000000	0.000000
0.970000	55.850000	12.290000	0.000000	0.000000	141.000000	64.000000	-25.000000	-14.000000
0.980000	55.600000	12.130000	0.000000	0.000000	141.000000	64.000000	-25.000000	-16.000000
0.990000	55.380000	11.940000	0.000000	0.000000	140.000000	63.000000	-22.000000	-19.000000
1.000000	55.190000	11.760000	0.000000	0.000000	138.000000	64.000000	-19.000000	-18.000000
1.010000	55.080000	11.610000	0.000000	0.000000	137.000000	63.000000	-11.000000	-15.000000
1.020000	55.080000	11.560000	0.000000	0.000000	137.000000	63.000000	0.000000	-5.000000
1.030000	55.080000	11.560000	0.000000	0.000000	135.000000	64.000000	0.000000	0.000000
1.040000	55.080000	11.560000	0.000000	0.000000	133.000000	63.000000	0.000000	0.000000
1.050000	55.170000	11.560000	0.000000	0.000000	132.000000	64.000000	9.000000	0.000000
1.060000	55.250000	11.560000	0.000000	0.000000	132.000000	64.000000	8.000000	0.000000
1.070000	55.320000	11.650000	0.000000	0.000000	129.000000	64.000000	7.000000	9.000000
1.080000	55.420000	11.740000	0.000000	0.000000	127.000000	64.000000	10.000000	9.000000
1.090000	55.540000	11.980000	0.000000	0.000000	127.000000	64.000000	12.000000	24.000000
1.100000	55.640000	12.310000	0.000000	0.000000	125.000000	65.000000	10.000000	33.000000
1.110000	55.740000	12.740000	0.000000	0.000000	125.000000	65.000000	10.000000	43.000000
1.120000	55.740000	12.740000	3.000000	0.000000	125.000000	65.000000	0.000000	0.000000
1.130000	56.260000	14.120000	60.000000	1.000000	124.000000	64.000000	0.000000	0.000000
1.140000	56.450000	14.790000	96.000000	0.000000	124.000000	64.000000	19.000000	67.000000
1.150000	56.510000	15.160000	148.000000	0.000000	125.000000	64.000000	6.000000	37.000000
1.160000	56.510000	15.320000	168.000000	0.000000	125.000000	64.000000	0.000000	16.000000
1.170000	56.390000	15.320000	167.000000	0.000000	127.000000	63.000000	-12.000000	0.000000
1.180000	56.150000	14.920000	171.000000	0.000000	129.000000	63.000000	-24.000000	-40.000000
1.190000	55.820000	14.310000	180.000000	0.000000	129.000000	63.000000	-33.000000	-61.000000
1.200000	55.410000	13.300000	195.000000	0.000000	129.000000	63.000000	-41.000000	-101.000000
1.210000	55.030000	12.260000	203.000000	0.000000	129.000000	63.000000	-38.000000	-104.000000
1.220000	54.720000	11.160000	228.000000	0.000000	129.000000	63.000000	-31.000000	-110.000000
1.230000	54.620000	10.560000	254.000000	0.000000	127.000000	63.000000	-10.000000	-60.000000
1.240000	54.620000	10.280000	259.000000	0.000000	125.000000	64.000000	0.000000	-28.000000
1.250000	54.890000	10.060000	259.000000	0.000000	124.000000	64.000000	27.000000	-22.000000
1.260000	55.270000	10.060000	262.000000	0.000000	124.000000	64.000000	38.000000	0.000000
1.270000	55.750000	10.230000	260.000000	0.000000	122.000000	65.000000	48.000000	17.000000
1.280000	56.320000	10.660000	267.000000	0.000000	122.000000	65.000000	57.000000	43.000000
1.290000	56.900000	11.400000	269.000000	0.000000	122.000000	65.000000	58.000000	74.000000
1.300000	57.450000	12.340000	274.000000	0.000000	122.000000	65.000000	55.000000	94.000000
1.310000	57.820000	13.370000	287.000000	0.000000	122.000000	65.000000	37.000000	103.000000
1.320000	58.090000	14.380000	285.000000	0.000000	122.000000	65.000000	27.000000	101.000000
1.330000	58.220000	15.320000	306.000000	0.000000	120.000000	64.000000	13.000000	94.000000
1.340000	58.220000	15.770000	361.000000	0.000000	122.000000	63.000000	0.000000	45.000000
1.350000	58.060000	15.900000	362.000000	0.000000	123.000000	62.000000	-16.000000	13.000000
1.360000	57.870000	15.820000	361.000000	0.000000	124.000000	62.000000	-19.000000	-8.000000
1.370000	57.500000	15.230000	387.000000	0.000000	125.000000	60.000000	-37.000000	-59.000000
1.380000	57.000000	14.290000	393.000000	0.000000	125.000000	60.000000	-50.000000	-94.000000
1.390000	56.520000	13.120000	391.000000	0.000000	125.000000	60.000000	-48.000000	-117.000000
1.400000	56.100000	12.140000	405.000000	0.000000	125.000000	60.000000	-42.000000	-98.000000
1.410000	56.050000	11.290000	422.000000	0.000000	126.000000	61.000000	-5.000000	-85.000000
1.420000	56.230000	10.890000	425.000000	0.000000	124.000000	62.000000	18.000000	-40.000000
1.430000	56.550000	10.660000	425.000000	0.000000	124.000000	63.000000	32.000000	-23.000000
1.440000	56.900000	10.540000	423.000000	0.000000	124.000000	64.000000	35.000000	-12.000000
1.450000	57.390000	10.600000	417.000000	0.000000	122.000000	65.000000	49.000000	6.000000
1.460000	57.960000	10.860000	428.000000	0.000000	122.000000	65.000000	57.000000	26.000000
1.470000	58.450000	11.250000	423.000000	0.000000	120.000000	64.000000	49.000000	39.000000
1.480000	58.820000	11.840000	431.000000	0.000000	120.000000	64.000000	37.000000	59.000000
1.490000	59.110000	12.420000	442.000000	0.000000	119.000000	63.000000	29.000000	58.000000
1.500000	59.330000	12.990000	468.000000	0.000000	119.000000	63.000000	22.000000	57.000000
1.510000	59.420000	13.310000	496.000000	0.000000	118.000000	62.000000	9.000000	32.000000
1.520000	59.420000	13.440000	522.000000	0.000000	118.000000	62.000000	0.000000	13.000000
1.530000	59.420000	13.440000	529.000000	0.000000	117.000000	61.000000	0.000000	0.000000
1.540000	59.420000	13.440000	522.000000	0.000000	117.000000	61.000000	0.000000	0.000000
1.550000	59.480000	13.440000	516.000000	0.000000	117.000000	61.000000	6.000000	0.000000
1.560000	59.560000	13.540000	521.000000	0.000000	117.000000	61.000000	8.000000	10.000000
1.570000	59.740000	13.740000	538.000000	0.000000	117.000000	61.000000	18.000000	20.000000
1.580000	60.100000	14.140000	538.000000	0.000000	117.000000	61.000000	36.000000	40.000000
1.590000	60.560000	14.760000	538.000000	0.000000	117.000000	61.000000	46.000000	62.000000
1.600000	61.060000	15.530000	533.000000	0.000000	117.000000	61.000000	50.000000	77.000000
1.610000	61.470000	16.650000	529.000000	0.000000	119.000000	61.000000	41.000000	112.000000
1.620000	61.830000	17.890000	491.000000	0.000000	120.000000	60.000000	36.000000	124.000000
1.630000	62.050000	19.210000	494.000000	0.000000	124.000000	60.000000	22.000000	132.000000
1.640000	62.110000	20.340000	512.000000	0.000000	126.000000	60.000000	6.000000	113.000000
1.650000	62.050000	20.930000	522.000000	0.000000	129.000000	59.000000	-6.000000	59.000000
1.660000	61.880000	21.150000	518.000000	0.000000	131.000000	58.000000	-17.000000	22.000000
1.670000	61.540000	21.020000	535.000000	0.000000	132.000000	58.000000	-34.000000	-13.000000
1.680000	61.080000	20.170000	543.000000	0.000000	134.000000	57.000000	-46.000000	-85.000000
1.690000	60.360000	18.840000	536.000000	0.000000	135.000000	57.000000	-72.000000	-133.000000
1.700000	59.560000	16.410000	537.000000	0.000000	135.000000	57.000000	-80.000000	-243.000000
1.710000	58.700000	14.290000	564.000000	0.000000	134.000000	57.000000	-86.000000	-212.000000
1.720000	58.410000	12.380000	577.000000	0.000000	132.000000	58.000000	-29.000000	-191.000000
1.730000	58.590000	11.380000	577.000000	0.000000	129.000000	59.000000	18.000000	-100.000000
1.740000	59.070000	10.850000	580.000000	0.000000	126.000000	60.000000	48.000000	-53.000000
1.750000	59.600000	10.640000	589.000000	0.000000	124.000000	60.000000	53.000000	-21.000000
1.760000	60.150000	10.800000	588.000000	0.000000	120.000000	60.000000	55.000000	16.000000
1.770000	60.700000	11.400000	586.000000	0.000000	119.000000	61.000000	55.000000	60.000000
1.780000	61.300000	12.300000	586.000000	0.000000	115.000000	62.000000	60.000000	90.000000
1.790000	61.770000	13.360000	585.000000	0.000000	115.000000	62.000000	47.000000	106.000000
1.800000	62.140000	14.410000	581.000000	0.000000	116.000000	63.000000	37.000000	105.000000
1.810000	62.360000	15.460000	584.000000	0.000000	116.000000	63.000000	22.000000	105.000000
1.820000	62.510000	16.290000	603.000000	0.000000	118.000000	62.000000	15.000000	83.000000
1.830000	62.600000	16.620000	628.000000	0.000000	120.000000	62.000000	9.000000	33.000000
1.840000	62.530000	16.620000	620.000000	0.000000	122.000000	61.000000	-7.000000	0.000000
1.850000	62.290000	16.340000	619.000000	0.000000	125.000000	60.000000	-24.000000	-28.000000
1.860000	61.930000	15.510000	599.000000	0.000000	126.000000	60.000000	-36.000000	-83.000000
1.870000	61.500000	14.320000	586.000000	0.000000	126.000000	60.000000	-43.000000	-119.000000
1.880000	61.110000	13.230000	584.000000	0.000000	126.000000	60.000000	-39.000000	-109.000000
1.890000	61.060000	12.450000	584.000000	0.000000	126.000000	60.000000	-5.000000	-78.000000
1.900000	61.210000	11.880000	588.000000	0.000000	125.000000	60.000000	15.000000	-57.000000
1.910000	61.440000	11.560000	583.000000	0.000000	122.000000	61.000000	23.000000	-32.000000
1.920000	61.700000	11.560000	588.000000	0.000000	120.000000	62.000000	26.000000	0.000000
1.930000	62.020000	11.730000	563.000000	0.000000	116.000000	63.000000	32.000000	17.000000
1.940000	62.350000	12.130000	546.000000	0.000000	115.000000	63.000000	33.000000	40.000000
1.950000	62.670000	12.780000	546.000000	0.000000	116.000000	64.000000	32.000000	65.000000
1.960000	62.940000	13.600000	519.000000	0.000000	116.000000	64.000000	27.000000	82.000000
1.970000	63.070000	14.370000	519.000000	0.000000	116.000000	64.000000	13.000000	77.000000
1.980000	63.140000	15.140000	530.000000	0.000000	116.000000	64.000000	7.000000	77.000000
1.990000	63.140000	15.680000	548.000000	0.000000	117.000000	63.000000	0.000000	54.000000
2.000000	62.970000	16.070000	570.000000	0.000000	119.000000	63.000000	-17.000000	39.000000
2.010000	62.790000	16.210000	588.000000	0.000000	123.000000	62.000000	-18.000000	14.000000
2.020000	62.620000	16.020000	588.000000	0.000000	124.000000	62.000000	-17.000000	-19.000000
2.030000	62.330000	15.600000	583.000000	0.000000	126.000000	61.000000	-29.000000	-42.000000
2.040000	61.970000	14.780000	570.000000	0.000000	126.000000	61.000000	-36.000000	-82.000000
2.050000	61.710000	13.830000	556.000000	0.000000	126.000000	61.000000	-26.000000	-95.000000
2.060000	61.710000	12.790000	545.000000	0.000000	126.000000	61.000000	0.000000	-104.000000
2.070000	61.850000	12.200000	554.000000	0.000000	123.000000	61.000000	14.000000	-59.000000
2.080000	62.330000	11.860000	553.000000	0.000000	122.000000	61.000000	48.000000	-34.000000
2.090000	62.940000	11.680000	561.000000	0.000000	118.000000	62.000000	61.000000	-18.000000
2.100000	63.640000	11.920000	565.000000	0.000000	116.000000	63.000000	70.000000	24.000000
2.110000	64.190000	12.350000	570.000000	0.000000	116.000000	64.000000	55.000000	43.000000
2.120000	64.760000	12.910000	570.000000	0.000000	116.000000	64.000000	57.000000	56.000000
2.130000	65.120000	13.670000	570.000000	0.000000	116.000000	64.000000	36.000000	76.000000
2.140000	65.320000	14.400000	589.000000	0.000000	116.000000	64.000000	20.000000	73.000000
2.150000	65.400000	14.880000	613.000000	0.000000	116.000000	64.000000	8.000000	48.000000
2.160000	65.400000	15.210000	647.000000	0.000000	119.000000	64.000000	0.000000	33.000000
2.170000	65.320000	15.210000	641.000000	0.000000	119.000000	64.000000	-8.000000	0.000000
2.180000	65.140000	15.130000	638.000000	0.000000	120.000000	64.000000	-18.000000	-8.000000
2.190000	64.840000	14.800000	644.000000	0.000000	122.000000	63.000000	-30.000000	-33.000000
2.200000	64.450000	14.300000	634.000000	0.000000	122.000000	63.000000	-39.000000	-50.000000
