t	x	y	pressure	penup	azimuth	inclination	v_x	v_y
0.000000	17.350000	35.970000	42.000000	1.000000	117.000000	58.000000	0.000000	0.000000
0.010000	17.350000	36.250000	98.000000	0.000000	117.000000	58.000000	0.000000	28.000000
0.020000	17.350000	36.330000	173.000000	0.000000	116.000000	57.000000	0.000000	8.000000
0.030000	17.400000	36.390000	253.000000	0.000000	116.000000	57.000000	5.000000	6.000000
0.040000	17.400000	36.440000	312.000000	0.000000	116.000000	57.000000	0.000000	5.000000
0.050000	17.400000	36.440000	363.000000	0.000000	116.000000	57.000000	0.000000	0.000000
0.060000	17.400000	36.490000	396.000000	0.000000	116.000000	57.000000	0.000000	5.000000
0.070000	17.400000	36.490000	417.000000	0.000000	116.000000	57.000000	0.000000	0.000000
0.080000	17.400000	36.490000	431.000000	0.000000	116.000000	57.000000	0.000000	0.000000
0.090000	17.400000	36.490000	445.000000	0.000000	118.000000	57.000000	0.000000	0.000000
0.100000	17.400000	36.440000	465.000000	0.000000	118.000000	57.000000	0.000000	-5.000000
0.110000	17.400000	36.440000	485.000000	0.000000	118.000000	57.000000	0.000000	0.000000
0.120000	17.400000	36.340000	496.000000	0.000000	118.000000	57.000000	0.000000	-10.000000
0.130000	17.400000	36.270000	504.000000	0.000000	118.000000	57.000000	0.000000	-7.000000
0.140000	17.400000	36.180000	519.000000	0.000000	119.000000	58.000000	0.000000	-9.000000
0.150000	17.400000	35.910000	526.000000	0.000000	119.000000	58.000000	0.000000	-27.000000
0.160000	17.320000	35.610000	540.000000	0.000000	119.000000	58.000000	-8.000000	-30.000000
0.170000	17.250000	35.260000	540.000000	0.000000	119.000000	58.000000	-7.000000	-35.000000
0.180000	17.180000	34.860000	554.000000	0.000000	117.000000	58.000000	-7.000000	-40.000000
0.190000	17.080000	34.410000	559.000000	0.000000	117.000000	58.000000	-10.000000	-45.000000
0.200000	16.940000	33.870000	568.000000	0.000000	117.000000	58.000000	-14.000000	-54.000000
0.210000	16.780000	33.250000	564.000000	0.000000	117.000000	58.000000	-16.000000	-62.000000
0.220000	16.600000	32.550000	570.000000	0.000000	117.000000	58.000000	-18.000000	-70.000000
0.230000	16.400000	31.830000	580.000000	0.000000	117.000000	58.000000	-20.000000	-72.000000
0.240000	16.260000	31.120000	595.000000	0.000000	117.000000	58.000000	-14.000000	-71.000000
0.250000	16.150000	30.450000	606.000000	0.000000	120.000000	58.000000	-11.000000	-67.000000
0.260000	16.070000	29.800000	611.000000	0.000000	120.000000	58.000000	-8.000000	-65.000000
0.270000	15.960000	29.080000	614.000000	0.000000	121.000000	59.000000	-11.000000	-72.000000
0.280000	15.810000	28.320000	610.000000	0.000000	119.000000	60.000000	-15.000000	-76.000000
0.290000	15.650000	27.520000	620.000000	0.000000	120.000000	60.000000	-16.000000	-80.000000
0.300000	15.490000	26.750000	627.000000	0.000000	120.000000	62.000000	-16.000000	-77.000000
0.310000	15.360000	26.190000	633.000000	0.000000	120.000000	62.000000	-13.000000	-56.000000
0.320000	15.310000	25.740000	634.000000	0.000000	119.000000	63.000000	-5.000000	-45.000000
0.330000	15.310000	25.330000	642.000000	0.000000	119.000000	64.000000	0.000000	-41.000000
0.340000	15.310000	25.070000	636.000000	0.000000	117.000000	65.000000	0.000000	-26.000000
0.350000	15.400000	24.900000	641.000000	0.000000	118.000000	65.000000	9.000000	-17.000000
0.360000	15.470000	24.710000	631.000000	0.000000	116.000000	66.000000	7.000000	-19.000000
0.370000	15.560000	24.610000	631.000000	0.000000	117.000000	67.000000	9.000000	-10.000000
0.380000	15.700000	24.610000	638.000000	0.000000	117.000000	67.000000	14.000000	0.000000
0.390000	15.940000	24.610000	641.000000	0.000000	117.000000	67.000000	24.000000	0.000000
0.400000	16.200000	24.610000	642.000000	0.000000	117.000000	67.000000	26.000000	0.000000
0.410000	16.580000	24.700000	636.000000	0.000000	116.000000	66.000000	38.000000	9.000000
0.420000	17.050000	24.820000	641.000000	0.000000	115.000000	65.000000	47.000000	12.000000
0.430000	17.500000	25.010000	643.000000	0.000000	114.000000	64.000000	45.000000	19.000000
0.440000	17.960000	25.250000	644.000000	0.000000	113.000000	63.000000	46.000000	24.000000
0.450000	18.430000	25.540000	650.000000	0.000000	112.000000	62.000000	47.000000	29.000000
0.460000	18.830000	25.830000	652.000000	0.000000	112.000000	62.000000	40.000000	29.000000
0.470000	19.170000	26.160000	658.000000	0.000000	111.000000	61.000000	34.000000	33.000000
0.480000	19.420000	26.520000	664.000000	0.000000	111.000000	61.000000	25.000000	36.000000
0.490000	19.660000	27.010000	662.000000	0.000000	111.000000	61.000000	24.000000	49.000000
0.500000	19.900000	27.490000	659.000000	0.000000	111.000000	61.000000	24.000000	48.000000
0.510000	20.100000	28.040000	659.000000	0.000000	113.000000	61.000000	20.000000	55.000000
0.520000	20.310000	28.640000	659.000000	0.000000	113.000000	61.000000	21.000000	60.000000
0.530000	20.450000	29.070000	659.000000	0.000000	114.000000	61.000000	14.000000	43.000000
0.540000	20.530000	29.490000	659.000000	0.000000	116.000000	60.000000	8.000000	42.000000
0.550000	20.530000	29.880000	653.000000	0.000000	118.000000	60.000000	0.000000	39.000000
0.560000	20.480000	30.250000	655.000000	0.000000	119.000000	60.000000	-5.000000	37.000000
0.570000	20.320000	30.510000	673.000000	0.000000	119.000000	60.000000	-16.000000	26.000000
0.580000	20.130000	30.700000	670.000000	0.000000	119.000000	60.000000	-19.000000	19.000000
0.590000	19.870000	30.900000	666.000000	0.000000	121.000000	59.000000	-26.000000	20.000000
0.600000	19.550000	31.080000	669.000000	0.000000	121.000000	59.000000	-32.000000	18.000000
0.610000	19.190000	31.220000	669.000000	0.000000	121.000000	59.000000	-36.000000	14.000000
0.620000	18.820000	31.350000	667.000000	0.000000	123.000000	59.000000	-37.000000	13.000000
0.630000	18.460000	31.450000	664.000000	0.000000	123.000000	59.000000	-36.000000	10.000000
0.640000	18.030000	31.550000	670.000000	0.000000	123.000000	59.000000	-43.000000	10.000000
0.650000	17.570000	31.600000	669.000000	0.000000	123.000000	59.000000	-46.000000	5.000000
0.660000	17.020000	31.600000	669.000000	0.000000	123.000000	59.000000	-55.000000	0.000000
0.670000	16.400000	31.600000	670.000000	0.000000	123.000000	59.000000	-62.000000	0.000000
0.680000	15.730000	31.540000	678.000000	0.000000	124.000000	60.000000	-67.000000	-6.000000
0.690000	15.060000	31.370000	679.000000	0.000000	124.000000	60.000000	-67.000000	-17.000000
0.700000	14.410000	31.130000	678.000000	0.000000	123.000000	61.000000	-65.000000	-24.000000
0.710000	13.780000	30.810000	676.000000	0.000000	123.000000	61.000000	-63.000000	-32.000000
0.720000	13.120000	30.440000	679.000000	0.000000	124.000000	62.000000	-66.000000	-37.000000
0.730000	12.520000	30.080000	676.000000	0.000000	124.000000	62.000000	-60.000000	-36.000000
0.740000	12.000000	29.720000	676.000000	0.000000	123.000000	62.000000	-52.000000	-36.000000
0.750000	11.660000	29.460000	682.000000	0.000000	123.000000	62.000000	-34.000000	-26.000000
0.760000	11.420000	29.250000	682.000000	0.000000	123.000000	62.000000	-24.000000	-21.000000
0.770000	11.420000	29.160000	664.000000	0.000000	123.000000	62.000000	0.000000	-9.000000
0.780000	11.470000	29.160000	670.000000	0.000000	123.000000	62.000000	5.000000	0.000000
0.790000	11.590000	29.160000	672.000000	0.000000	122.000000	61.000000	12.000000	0.000000
0.800000	11.890000	29.070000	670.000000	0.000000	122.000000	61.000000	30.000000	-9.000000
0.810000	12.320000	29.140000	679.000000	0.000000	122.000000	61.000000	43.000000	7.000000
0.820000	12.950000	29.290000	696.000000	0.000000	122.000000	61.000000	63.000000	15.000000
0.830000	13.610000	29.500000	691.000000	0.000000	123.000000	62.000000	66.000000	21.000000
0.840000	14.370000	29.690000	699.000000	0.000000	123.000000	62.000000	76.000000	19.000000
0.850000	15.200000	29.870000	730.000000	0.000000	123.000000	62.000000	83.000000	18.000000
0.860000	16.250000	30.130000	745.000000	0.000000	124.000000	63.000000	105.000000	26.000000
0.870000	17.440000	30.450000	751.000000	0.000000	124.000000	63.000000	119.000000	32.000000
0.880000	18.780000	30.840000	773.000000	0.000000	124.000000	62.000000	134.000000	39.000000
0.890000	20.220000	31.210000	787.000000	0.000000	124.000000	62.000000	144.000000	37.000000
0.900000	21.720000	31.560000	788.000000	0.000000	124.000000	62.000000	150.000000	35.000000
0.910000	23.100000	31.920000	794.000000	0.000000	126.000000	61.000000	138.000000	36.000000
0.920000	24.260000	32.260000	796.000000	0.000000	126.000000	61.000000	116.000000	34.000000
0.930000	25.280000	32.560000	783.000000	0.000000	125.000000	60.000000	102.000000	30.000000
0.940000	26.180000	32.740000	790.000000	0.000000	125.000000	60.000000	90.000000	18.000000
0.950000	26.790000	32.850000	779.000000	0.000000	125.000000	60.000000	61.000000	11.000000
0.960000	27.210000	32.850000	760.000000	0.000000	125.000000	60.000000	42.000000	0.000000
0.970000	27.350000	32.850000	745.000000	0.000000	125.000000	60.000000	14.000000	0.000000
0.980000	27.350000	32.850000	727.000000	0.000000	123.000000	61.000000	0.000000	0.000000
0.990000	27.350000	32.850000	710.000000	0.000000	123.000000	61.000000	0.000000	0.000000
1.000000	27.290000	32.850000	664.000000	0.000000	122.000000	60.000000	-6.000000	0.000000
1.010000	27.150000	32.800000	616.000000	0.000000	122.000000	60.000000	-14.000000	-5.000000
1.020000	26.940000	32.720000	560.000000	0.000000	122.000000	60.000000	-21.000000	-8.000000
1.030000	26.700000	32.590000	474.000000	0.000000	121.000000	59.000000	-24.000000	-13.000000
1.040000	26.510000	32.450000	310.000000	0.000000	121.000000	59.000000	-19.000000	-14.000000
1.050000	26.390000	32.400000	13.000000	1.000000	122.000000	60.000000	0.000000	0.000000
1.060000	26.390000	32.400000	0.000000	0.000000	122.000000	60.000000	0.000000	0.000000
1.070000	26.190000	32.490000	0.000000	0.000000	125.000000	60.000000	-20.000000	9.000000
1.080000	26.060000	32.610000	0.000000	0.000000	125.000000	60.000000	-13.000000	12.000000
1.090000	25.900000	32.760000	0.000000	0.000000	126.000000	61.000000	-16.000000	15.000000
1.100000	25.780000	32.920000	0.000000	0.000000	127.000000	62.000000	-12.000000	16.000000
1.110000	25.680000	33.050000	0.000000	0.000000	129.000000	63.000000	-10.000000	13.000000
1.120000	25.620000	33.110000	0.000000	0.000000	129.000000	63.000000	-6.000000	6.000000
1.130000	25.560000	33.110000	0.000000	0.000000	130.000000	63.000000	-6.000000	0.000000
1.140000	25.480000	33.110000	0.000000	0.000000	132.000000	63.000000	-8.000000	0.000000
1.150000	25.400000	33.110000	0.000000	0.000000	132.000000	63.000000	-8.000000	0.000000
1.160000	25.240000	32.980000	0.000000	0.000000	133.000000	62.000000	-16.000000	-13.000000
1.170000	25.030000	32.870000	0.000000	0.000000	133.000000	62.000000	-21.000000	-11.000000
1.180000	24.750000	32.750000	0.000000	0.000000	133.000000	62.000000	-28.000000	-12.000000
1.190000	24.380000	32.630000	0.000000	0.000000	135.000000	62.000000	-37.000000	-12.000000
1.200000	23.950000	32.520000	0.000000	0.000000	135.000000	62.000000	-43.000000	-11.000000
1.210000	23.330000	32.420000	0.000000	0.000000	135.000000	62.000000	-62.000000	-10.000000
1.220000	22.670000	31.950000	0.000000	0.000000	134.000000	61.000000	-66.000000	-47.000000
1.230000	21.970000	31.730000	0.000000	0.000000	132.000000	59.000000	-70.000000	-22.000000
1.240000	21.400000	31.670000	0.000000	0.000000	129.000000	59.000000	-57.000000	-6.000000
1.250000	20.890000	31.340000	0.000000	0.000000	127.000000	57.000000	-51.000000	-33.000000
1.260000	20.460000	31.030000	0.000000	0.000000	126.000000	57.000000	-43.000000	-31.000000
1.270000	20.150000	30.750000	0.000000	0.000000	125.000000	56.000000	-31.000000	-28.000000
1.280000	19.930000	30.570000	0.000000	0.000000	122.000000	56.000000	-22.000000	-18.000000
1.290000	19.670000	30.460000	0.000000	0.000000	121.000000	55.000000	-26.000000	-11.000000
1.300000	19.430000	30.530000	0.000000	0.000000	121.000000	55.000000	-24.000000	7.000000
1.310000	19.200000	30.770000	0.000000	0.000000	120.000000	55.000000	-23.000000	24.000000
1.320000	18.980000	31.130000	0.000000	0.000000	119.000000	54.000000	-22.000000	36.000000
1.330000	18.750000	31.700000	0.000000	0.000000	119.000000	54.000000	-23.000000	57.000000
1.340000	18.550000	32.490000	0.000000	0.000000	119.000000	54.000000	-20.000000	79.000000
1.350000	18.370000	33.440000	0.000000	0.000000	120.000000	54.000000	-18.000000	95.000000
1.360000	18.520000	34.350000	0.000000	0.000000	120.000000	54.000000	15.000000	91.000000
1.370000	18.570000	35.250000	0.000000	0.000000	122.000000	54.000000	5.000000	90.000000
1.380000	18.570000	36.330000	0.000000	0.000000	123.000000	53.000000	0.000000	108.000000
1.390000	18.660000	37.540000	0.000000	0.000000	124.000000	52.000000	9.000000	121.000000
1.400000	18.780000	38.000000	0.000000	0.000000	125.000000	51.000000	12.000000	46.000000
1.410000	18.710000	37.860000	0.000000	0.000000	126.000000	50.000000	-7.000000	-14.000000
1.420000	18.500000	37.330000	0.000000	0.000000	125.000000	50.000000	-21.000000	-53.000000
1.430000	18.050000	35.960000	0.000000	0.000000	126.000000	49.000000	-45.000000	-137.000000
1.440000	17.720000	34.980000	0.000000	0.000000	125.000000	48.000000	-33.000000	-98.000000
1.450000	17.460000	34.260000	0.000000	0.000000	125.000000	48.000000	-26.000000	-72.000000
1.460000	17.160000	33.650000	0.000000	0.000000	124.000000	48.000000	-30.000000	-61.000000
1.470000	16.880000	33.030000	0.000000	0.000000	123.000000	48.000000	-28.000000	-62.000000
1.480000	16.600000	32.370000	0.000000	0.000000	122.000000	47.000000	-28.000000	-66.000000
1.490000	16.600000	31.650000	0.000000	0.000000	121.000000	48.000000	0.000000	-72.000000
1.500000	16.600000	31.100000	0.000000	0.000000	121.000000	48.000000	0.000000	-55.000000
1.510000	16.760000	30.660000	0.000000	0.000000	120.000000	48.000000	16.000000	-44.000000
1.520000	16.960000	30.350000	0.000000	0.000000	119.000000	49.000000	20.000000	-31.000000
1.530000	17.120000	30.240000	0.000000	0.000000	118.000000	51.000000	16.000000	-11.000000
1.540000	17.260000	30.240000	0.000000	0.000000	117.000000	52.000000	14.000000	0.000000
1.550000	17.380000	30.240000	0.000000	0.000000	117.000000	53.000000	12.000000	0.000000
1.560000	17.440000	30.160000	0.000000	0.000000	118.000000	54.000000	6.000000	-8.000000
1.570000	17.520000	30.090000	0.000000	0.000000	117.000000	55.000000	8.000000	-7.000000
1.580000	17.680000	30.090000	0.000000	0.000000	118.000000	56.000000	16.000000	0.000000
1.590000	17.940000	30.200000	0.000000	0.000000	118.000000	56.000000	26.000000	11.000000
1.600000	18.250000	30.390000	0.000000	0.000000	118.000000	56.000000	31.000000	19.000000
1.610000	18.540000	30.620000	0.000000	0.000000	118.000000	56.000000	29.000000	23.000000
1.620000	18.780000	30.870000	0.000000	0.000000	118.000000	56.000000	24.000000	25.000000
1.630000	18.910000	31.080000	0.000000	0.000000	118.000000	56.000000	13.000000	21.000000
1.640000	18.990000	31.290000	0.000000	0.000000	118.000000	56.000000	8.000000	21.000000
1.650000	18.910000	31.470000	0.000000	0.000000	117.000000	55.000000	-8.000000	18.000000
1.660000	18.840000	31.620000	0.000000	0.000000	117.000000	55.000000	-7.000000	15.000000
1.670000	18.750000	31.700000	0.000000	0.000000	119.000000	54.000000	-9.000000	8.000000
1.680000	18.640000	31.700000	0.000000	0.000000	119.000000	54.000000	-11.000000	0.000000
1.690000	18.510000	31.600000	0.000000	0.000000	119.000000	54.000000	-13.000000	-10.000000
1.700000	18.380000	31.440000	0.000000	0.000000	120.000000	55.000000	-13.000000	-16.000000
1.710000	18.240000	31.240000	0.000000	0.000000	120.000000	55.000000	-14.000000	-20.000000
1.720000	18.110000	31.060000	0.000000	0.000000	120.000000	55.000000	-13.000000	-18.000000
1.730000	17.980000	30.900000	0.000000	0.000000	120.000000	55.000000	-13.000000	-16.000000
1.740000	17.860000	30.750000	0.000000	0.000000	120.000000	55.000000	-12.000000	-15.000000
1.750000	17.710000	30.620000	0.000000	0.000000	121.000000	56.000000	-15.000000	-13.000000
1.760000	17.550000	30.560000	0.000000	0.000000	119.000000	56.000000	-16.000000	-6.000000
1.770000	17.460000	30.560000	0.000000	0.000000	119.000000	56.000000	-9.000000	0.000000
1.780000	17.400000	30.640000	0.000000	0.000000	119.000000	56.000000	-6.000000	8.000000
1.790000	17.400000	30.770000	0.000000	0.000000	119.000000	56.000000	0.000000	13.000000
1.800000	17.460000	30.940000	0.000000	0.000000	119.000000	56.000000	6.000000	17.000000
1.810000	17.520000	31.120000	0.000000	0.000000	120.000000	57.000000	6.000000	18.000000
1.820000	17.570000	31.310000	0.000000	0.000000	120.000000	57.000000	5.000000	19.000000
1.830000	17.570000	31.510000	0.000000	0.000000	120.000000	57.000000	0.000000	20.000000
1.840000	17.700000	31.810000	0.000000	0.000000	122.000000	57.000000	13.000000	30.000000
1.850000	17.770000	32.120000	0.000000	0.000000	122.000000	57.000000	7.000000	31.000000
1.860000	17.770000	32.120000	115.000000	1.000000	122.000000	57.000000	0.000000	0.000000
1.870000	17.930000	32.720000	214.000000	0.000000	121.000000	56.000000	16.000000	60.000000
1.880000	17.930000	32.950000	247.000000	0.000000	121.000000	56.000000	0.000000	23.000000
1.890000	17.930000	33.020000	277.000000	0.000000	121.000000	56.000000	0.000000	7.000000
1.900000	17.870000	33.020000	317.000000	0.000000	121.000000	56.000000	-6.000000	0.000000
1.910000	17.870000	33.020000	330.000000	0.000000	121.000000	56.000000	0.000000	0.000000
1.920000	17.750000	32.860000	333.000000	0.000000	122.000000	57.000000	-12.000000	-16.000000
1.930000	17.680000	32.620000	334.000000	0.000000	122.000000	57.000000	-7.000000	-24.000000
1.940000	17.580000	32.060000	353.000000	0.000000	122.000000	57.000000	-10.000000	-56.000000
1.950000	17.470000	31.590000	369.000000	0.000000	122.000000	57.000000	-11.000000	-47.000000
1.960000	17.470000	31.180000	371.000000	0.000000	122.000000	57.000000	0.000000	-41.000000
1.970000	17.530000	30.920000	391.000000	0.000000	122.000000	57.000000	6.000000	-26.000000
1.980000	17.670000	30.780000	428.000000	0.000000	122.000000	57.000000	14.000000	-14.000000
1.990000	17.870000	30.720000	463.000000	0.000000	122.000000	57.000000	20.000000	-6.000000
2.000000	18.140000	30.770000	495.000000	0.000000	123.000000	56.000000	27.000000	5.000000
2.010000	18.450000	31.000000	501.000000	0.000000	123.000000	56.000000	31.000000	23.000000
2.020000	18.760000	31.340000	519.000000	0.000000	122.000000	56.000000	31.000000	34.000000
2.030000	19.000000	31.710000	524.000000	0.000000	123.000000	56.000000	24.000000	37.000000
2.040000	19.200000	32.080000	527.000000	0.000000	123.000000	56.000000	20.000000	37.000000
2.050000	19.340000	32.410000	530.000000	0.000000	122.000000	57.000000	14.000000	33.000000
2.060000	19.340000	32.720000	527.000000	0.000000	122.000000	57.000000	0.000000	31.000000
2.070000	19.340000	32.720000	519.000000	0.000000	122.000000	57.000000	0.000000	0.000000
2.080000	19.260000	32.720000	516.000000	0.000000	122.000000	57.000000	-8.000000	0.000000
2.090000	19.200000	32.720000	512.000000	0.000000	123.000000	58.000000	-6.000000	0.000000
2.100000	19.140000	32.720000	513.000000	0.000000	123.000000	58.000000	-6.000000	0.000000
2.110000	19.080000	32.540000	512.000000	0.000000	123.000000	58.000000	-6.000000	-18.000000
2.120000	19.030000	32.310000	515.000000	0.000000	123.000000	58.000000	-5.000000	-23.000000
2.130000	19.030000	32.010000	512.000000	0.000000	123.000000	58.000000	0.000000	-30.000000
2.140000	19.030000	31.770000	512.000000	0.000000	122.000000	57.000000	0.000000	-24.000000
2.150000	19.030000	31.580000	512.000000	0.000000	122.000000	57.000000	0.000000	-19.000000
2.160000	19.150000	31.460000	504.000000	0.000000	122.000000	57.000000	12.000000	-12.000000
2.170000	19.240000	31.340000	509.000000	0.000000	122.000000	57.000000	9.000000	-12.000000
2.180000	19.320000	31.340000	519.000000	0.000000	123.000000	56.000000	8.000000	0.000000
2.190000	19.410000	31.410000	512.000000	0.000000	123.000000	56.000000	9.000000	7.000000
2.200000	19.520000	31.410000	518.000000	0.000000	123.000000	56.000000	11.000000	0.000000
2.210000	19.640000	31.470000	519.000000	0.000000	123.000000	56.000000	12.000000	6.000000
