t	x	y	pressure	penup	azimuth	inclination	v_x	v_y
0.000000	91.650000	23.600000	226.000000	1.000000	174.000000	55.000000	0.000000	0.000000
0.010000	91.420000	23.350000	252.000000	0.000000	176.000000	55.000000	-23.000000	-25.000000
0.020000	91.370000	23.190000	274.000000	0.000000	176.000000	56.000000	-5.000000	-16.000000
0.030000	91.260000	22.320000	388.000000	0.000000	177.000000	55.000000	-11.000000	-87.000000
0.040000	91.090000	20.980000	498.000000	0.000000	177.000000	56.000000	-17.000000	-134.000000
0.050000	90.900000	19.080000	537.000000	0.000000	177.000000	56.000000	-19.000000	-190.000000
0.060000	90.620000	16.470000	562.000000	0.000000	177.000000	56.000000	-28.000000	-261.000000
0.070000	90.280000	13.390000	564.000000	0.000000	175.000000	57.000000	-34.000000	-308.000000
0.080000	89.950000	10.490000	565.000000	0.000000	175.000000	58.000000	-33.000000	-290.000000
0.090000	89.600000	8.260000	560.000000	0.000000	175.000000	59.000000	-35.000000	-223.000000
0.100000	89.490000	6.470000	572.000000	0.000000	177.000000	60.000000	-11.000000	-179.000000
0.110000	89.540000	4.820000	595.000000	0.000000	176.000000	61.000000	5.000000	-165.000000
0.120000	89.750000	3.630000	589.000000	0.000000	176.000000	62.000000	21.000000	-119.000000
0.130000	90.100000	2.760000	588.000000	0.000000	176.000000	64.000000	35.000000	-87.000000
0.140000	90.550000	2.290000	585.000000	0.000000	176.000000	65.000000	45.000000	-47.000000
0.150000	90.960000	2.340000	591.000000	0.000000	178.000000	67.000000	41.000000	5.000000
0.160000	91.380000	2.740000	581.000000	0.000000	178.000000	68.000000	42.000000	40.000000
0.170000	91.810000	3.610000	570.000000	0.000000	177.000000	69.000000	43.000000	87.000000
0.180000	92.150000	4.860000	536.000000	0.000000	177.000000	69.000000	34.000000	125.000000
0.190000	92.410000	6.360000	516.000000	0.000000	178.000000	68.000000	26.000000	150.000000
0.200000	92.410000	7.880000	501.000000	0.000000	180.000000	67.000000	0.000000	152.000000
0.210000	92.010000	9.160000	496.000000	0.000000	180.000000	66.000000	-40.000000	128.000000
0.220000	91.280000	10.290000	504.000000	0.000000	180.000000	65.000000	-73.000000	113.000000
0.230000	89.960000	11.050000	522.000000	0.000000	180.000000	63.000000	-132.000000	76.000000
0.240000	88.420000	11.360000	535.000000	0.000000	180.000000	62.000000	-154.000000	31.000000
0.250000	86.730000	11.360000	561.000000	0.000000	180.000000	61.000000	-169.000000	0.000000
0.260000	85.120000	11.090000	588.000000	0.000000	180.000000	61.000000	-161.000000	-27.000000
0.270000	84.190000	10.700000	595.000000	0.000000	180.000000	61.000000	-93.000000	-39.000000
0.280000	83.700000	10.230000	591.000000	0.000000	180.000000	61.000000	-49.000000	-47.000000
0.290000	83.770000	9.710000	594.000000	0.000000	180.000000	61.000000	7.000000	-52.000000
0.300000	84.330000	9.180000	600.000000	0.000000	180.000000	61.000000	56.000000	-53.000000
0.310000	85.210000	8.660000	614.000000	0.000000	180.000000	61.000000	88.000000	-52.000000
0.320000	86.750000	8.450000	650.000000	0.000000	180.000000	61.000000	154.000000	-21.000000
0.330000	89.000000	8.450000	696.000000	0.000000	182.000000	61.000000	225.000000	0.000000
0.340000	91.720000	8.670000	727.000000	0.000000	182.000000	60.000000	272.000000	22.000000
0.350000	94.780000	8.990000	739.000000	0.000000	183.000000	60.000000	306.000000	32.000000
0.360000	98.080000	9.360000	757.000000	0.000000	183.000000	59.000000	330.000000	37.000000
0.370000	101.540000	9.750000	771.000000	0.000000	185.000000	59.000000	346.000000	39.000000
0.380000	104.650000	10.120000	780.000000	0.000000	186.000000	58.000000	311.000000	37.000000
0.390000	107.710000	10.430000	768.000000	0.000000	186.000000	58.000000	306.000000	31.000000
0.400000	110.140000	10.690000	759.000000	0.000000	186.000000	57.000000	243.000000	26.000000
0.410000	112.170000	10.860000	750.000000	0.000000	184.000000	56.000000	203.000000	17.000000
0.420000	113.550000	11.050000	724.000000	0.000000	181.000000	55.000000	138.000000	19.000000
0.430000	114.380000	11.250000	636.000000	0.000000	179.000000	55.000000	83.000000	20.000000
0.440000	114.830000	11.410000	420.000000	0.000000	176.000000	54.000000	45.000000	16.000000
0.450000	114.670000	11.550000	1.000000	1.000000	175.000000	53.000000	0.000000	0.000000
0.460000	114.670000	11.550000	0.000000	0.000000	172.000000	52.000000	0.000000	0.000000
0.470000	113.380000	11.640000	0.000000	0.000000	170.000000	51.000000	-129.000000	9.000000
0.480000	112.200000	11.640000	0.000000	0.000000	169.000000	50.000000	-118.000000	0.000000
0.490000	110.740000	11.480000	0.000000	0.000000	169.000000	50.000000	-146.000000	-16.000000
0.500000	109.080000	11.270000	0.000000	0.000000	171.000000	49.000000	-166.000000	-21.000000
0.510000	107.470000	11.040000	0.000000	0.000000	173.000000	48.000000	-161.000000	-23.000000
0.520000	105.690000	10.800000	0.000000	0.000000	176.000000	47.000000	-178.000000	-24.000000
0.530000	103.800000	10.530000	0.000000	0.000000	177.000000	46.000000	-189.000000	-27.000000
0.540000	101.870000	10.230000	0.000000	0.000000	178.000000	46.000000	-193.000000	-30.000000
0.550000	100.080000	9.940000	0.000000	0.000000	179.000000	45.000000	-179.000000	-29.000000
0.560000	98.390000	9.640000	0.000000	0.000000	180.000000	45.000000	-169.000000	-30.000000
0.570000	96.950000	9.370000	0.000000	0.000000	180.000000	45.000000	-144.000000	-27.000000
0.580000	95.690000	9.100000	0.000000	0.000000	180.000000	45.000000	-126.000000	-27.000000
0.590000	94.540000	8.830000	0.000000	0.000000	179.000000	46.000000	-115.000000	-27.000000
0.600000	93.610000	8.650000	0.000000	0.000000	178.000000	47.000000	-93.000000	-18.000000
0.610000	92.870000	8.520000	0.000000	0.000000	178.000000	49.000000	-74.000000	-13.000000
0.620000	92.260000	8.450000	0.000000	0.000000	176.000000	50.000000	-61.000000	-7.000000
0.630000	91.790000	8.360000	0.000000	0.000000	176.000000	51.000000	-47.000000	-9.000000
0.640000	91.430000	8.270000	0.000000	0.000000	176.000000	52.000000	-36.000000	-9.000000
0.650000	91.150000	8.220000	0.000000	0.000000	175.000000	54.000000	-28.000000	-5.000000
0.660000	90.870000	8.220000	0.000000	0.000000	174.000000	55.000000	-28.000000	0.000000
0.670000	90.570000	8.140000	0.000000	0.000000	173.000000	55.000000	-30.000000	-8.000000
0.680000	90.260000	8.010000	0.000000	0.000000	173.000000	56.000000	-31.000000	-13.000000
0.690000	89.980000	7.830000	0.000000	0.000000	172.000000	57.000000	-28.000000	-18.000000
0.700000	89.980000	7.830000	422.000000	1.000000	174.000000	57.000000	0.000000	0.000000
0.710000	89.620000	7.640000	444.000000	0.000000	174.000000	58.000000	-36.000000	-19.000000
0.720000	89.620000	7.550000	489.000000	0.000000	175.000000	58.000000	0.000000	-9.000000
0.730000	89.830000	7.450000	586.000000	0.000000	175.000000	58.000000	21.000000	-10.000000
0.740000	90.040000	7.320000	691.000000	0.000000	177.000000	58.000000	21.000000	-13.000000
0.750000	90.280000	7.430000	758.000000	0.000000	178.000000	58.000000	24.000000	11.000000
0.760000	90.520000	7.690000	780.000000	0.000000	178.000000	58.000000	24.000000	26.000000
0.770000	90.970000	8.050000	787.000000	0.000000	180.000000	59.000000	45.000000	36.000000
0.780000	91.540000	8.650000	790.000000	0.000000	180.000000	59.000000	57.000000	60.000000
0.790000	92.010000	9.380000	767.000000	0.000000	180.000000	59.000000	47.000000	73.000000
0.800000	92.440000	10.190000	754.000000	0.000000	180.000000	59.000000	43.000000	81.000000
0.810000	92.840000	11.170000	699.000000	0.000000	180.000000	59.000000	40.000000	98.000000
0.820000	93.090000	12.390000	700.000000	0.000000	180.000000	59.000000	25.000000	122.000000
0.830000	93.150000	13.770000	703.000000	0.000000	180.000000	59.000000	6.000000	138.000000
0.840000	93.080000	14.400000	705.000000	0.000000	180.000000	59.000000	-7.000000	63.000000
0.850000	92.920000	14.520000	699.000000	0.000000	178.000000	59.000000	-16.000000	12.000000
0.860000	92.760000	14.290000	708.000000	0.000000	178.000000	59.000000	-16.000000	-23.000000
0.870000	92.540000	13.780000	724.000000	0.000000	177.000000	59.000000	-22.000000	-51.000000
0.880000	92.290000	12.730000	733.000000	0.000000	177.000000	59.000000	-25.000000	-105.000000
0.890000	92.180000	11.310000	731.000000	0.000000	177.000000	58.000000	-11.000000	-142.000000
0.900000	92.120000	10.160000	724.000000	0.000000	177.000000	59.000000	-6.000000	-115.000000
0.910000	92.170000	9.200000	716.000000	0.000000	177.000000	59.000000	5.000000	-96.000000
0.920000	92.260000	8.380000	716.000000	0.000000	178.000000	59.000000	9.000000	-82.000000
0.930000	92.490000	7.980000	716.000000	0.000000	178.000000	59.000000	23.000000	-40.000000
0.940000	92.820000	7.910000	710.000000	0.000000	178.000000	59.000000	33.000000	-7.000000
0.950000	93.270000	8.060000	708.000000	0.000000	180.000000	59.000000	45.000000	15.000000
0.960000	93.780000	8.420000	675.000000	0.000000	180.000000	59.000000	51.000000	36.000000
0.970000	94.340000	9.060000	616.000000	0.000000	180.000000	59.000000	56.000000	64.000000
0.980000	94.830000	9.900000	553.000000	0.000000	180.000000	59.000000	49.000000	84.000000
0.990000	95.240000	10.950000	546.000000	0.000000	180.000000	59.000000	41.000000	105.000000
1.000000	95.590000	11.930000	560.000000	0.000000	180.000000	59.000000	35.000000	98.000000
1.010000	95.590000	12.860000	595.000000	0.000000	180.000000	59.000000	0.000000	93.000000
1.020000	95.590000	13.080000	594.000000	0.000000	182.000000	59.000000	0.000000	22.000000
1.030000	95.500000	12.970000	611.000000	0.000000	182.000000	59.000000	-9.000000	-11.000000
1.040000	95.450000	12.650000	637.000000	0.000000	182.000000	59.000000	-5.000000	-32.000000
1.050000	95.450000	11.970000	661.000000	0.000000	182.000000	59.000000	0.000000	-68.000000
1.060000	95.530000	11.150000	669.000000	0.000000	183.000000	59.000000	8.000000	-82.000000
1.070000	95.670000	10.230000	678.000000	0.000000	183.000000	59.000000	14.000000	-92.000000
1.080000	95.800000	9.490000	690.000000	0.000000	182.000000	59.000000	13.000000	-74.000000
1.090000	95.930000	9.000000	700.000000	0.000000	182.000000	59.000000	13.000000	-49.000000
1.100000	96.140000	8.670000	700.000000	0.000000	182.000000	59.000000	21.000000	-33.000000
1.110000	96.370000	8.620000	717.000000	0.000000	180.000000	59.000000	23.000000	-5.000000
1.120000	96.720000	8.800000	714.000000	0.000000	180.000000	59.000000	35.000000	18.000000
1.130000	97.100000	9.130000	707.000000	0.000000	180.000000	59.000000	38.000000	33.000000
1.140000	97.550000	9.850000	687.000000	0.000000	180.000000	59.000000	45.000000	72.000000
1.150000	98.040000	11.100000	644.000000	0.000000	182.000000	59.000000	49.000000	125.000000
1.160000	98.570000	12.700000	551.000000	0.000000	183.000000	58.000000	53.000000	160.000000
1.170000	99.120000	14.710000	491.000000	0.000000	185.000000	58.000000	55.000000	201.000000
1.180000	99.670000	16.630000	460.000000	0.000000	186.000000	57.000000	55.000000	192.000000
1.190000	100.040000	18.500000	464.000000	0.000000	188.000000	57.000000	37.000000	187.000000
1.200000	100.160000	19.560000	509.000000	0.000000	187.000000	56.000000	12.000000	106.000000
1.210000	100.160000	19.970000	520.000000	0.000000	187.000000	56.000000	0.000000	41.000000
1.220000	99.890000	19.970000	543.000000	0.000000	187.000000	56.000000	-27.000000	0.000000
1.230000	99.610000	19.540000	620.000000	0.000000	187.000000	55.000000	-28.000000	-43.000000
1.240000	99.270000	18.570000	673.000000	0.000000	187.000000	55.000000	-34.000000	-97.000000
1.250000	98.870000	17.230000	702.000000	0.000000	186.000000	56.000000	-40.000000	-134.000000
1.260000	98.430000	15.370000	719.000000	0.000000	186.000000	56.000000	-44.000000	-186.000000
1.270000	98.240000	13.480000	708.000000	0.000000	187.000000	56.000000	-19.000000	-189.000000
1.280000	98.100000	11.750000	694.000000	0.000000	188.000000	57.000000	-14.000000	-173.000000
1.290000	97.980000	10.130000	678.000000	0.000000	188.000000	57.000000	-12.000000	-162.000000
1.300000	98.090000	9.250000	667.000000	0.000000	188.000000	57.000000	11.000000	-88.000000
1.310000	98.370000	8.840000	666.000000	0.000000	186.000000	57.000000	28.000000	-41.000000
1.320000	98.770000	8.750000	656.000000	0.000000	185.000000	57.000000	40.000000	-9.000000
1.330000	99.310000	8.960000	639.000000	0.000000	183.000000	57.000000	54.000000	21.000000
1.340000	99.880000	9.470000	599.000000	0.000000	182.000000	57.000000	57.000000	51.000000
1.350000	100.480000	10.190000	561.000000	0.000000	180.000000	57.000000	60.000000	72.000000
1.360000	101.000000	11.220000	561.000000	0.000000	180.000000	57.000000	52.000000	103.000000
1.370000	101.190000	12.200000	628.000000	0.000000	180.000000	57.000000	19.000000	98.000000
1.380000	101.190000	13.160000	666.000000	0.000000	180.000000	57.000000	0.000000	96.000000
1.390000	101.060000	13.390000	690.000000	0.000000	180.000000	57.000000	-13.000000	23.000000
1.400000	101.010000	13.300000	722.000000	0.000000	180.000000	57.000000	-5.000000	-9.000000
1.410000	101.010000	13.000000	761.000000	0.000000	180.000000	56.000000	0.000000	-30.000000
1.420000	101.010000	12.330000	760.000000	0.000000	180.000000	56.000000	0.000000	-67.000000
1.430000	101.010000	11.660000	751.000000	0.000000	178.000000	57.000000	0.000000	-67.000000
1.440000	101.080000	10.990000	731.000000	0.000000	178.000000	57.000000	7.000000	-67.000000
1.450000	101.180000	10.600000	643.000000	0.000000	178.000000	57.000000	10.000000	-39.000000
1.460000	101.330000	10.370000	499.000000	0.000000	180.000000	57.000000	15.000000	-23.000000
1.470000	101.540000	10.370000	101.000000	0.000000	180.000000	57.000000	21.000000	0.000000
1.480000	101.540000	10.370000	0.000000	1.000000	180.000000	57.000000	0.000000	0.000000
1.490000	102.320000	11.100000	0.000000	0.000000	180.000000	57.000000	78.000000	73.000000
1.500000	102.560000	12.050000	0.000000	0.000000	180.000000	57.000000	24.000000	95.000000
1.510000	102.760000	13.350000	0.000000	0.000000	180.000000	57.000000	20.000000	130.000000
1.520000	102.870000	14.880000	0.000000	0.000000	181.000000	56.000000	11.000000	153.000000
1.530000	102.770000	16.320000	0.000000	0.000000	181.000000	55.000000	-10.000000	144.000000
1.540000	102.540000	17.110000	0.000000	0.000000	181.000000	54.000000	-23.000000	79.000000
1.550000	102.200000	17.460000	0.000000	0.000000	181.000000	54.000000	-34.000000	35.000000
1.560000	102.200000	17.460000	280.000000	1.000000	183.000000	54.000000	0.000000	0.000000
1.570000	102.200000	17.460000	223.000000	0.000000	183.000000	54.000000	0.000000	0.000000
1.580000	102.270000	17.010000	193.000000	0.000000	183.000000	54.000000	7.000000	-45.000000
1.590000	102.580000	16.450000	144.000000	0.000000	183.000000	53.000000	31.000000	-56.000000
1.600000	102.840000	15.690000	142.000000	0.000000	183.000000	53.000000	26.000000	-76.000000
1.610000	103.010000	14.700000	146.000000	0.000000	183.000000	53.000000	17.000000	-99.000000
1.620000	103.140000	13.570000	66.000000	0.000000	181.000000	53.000000	13.000000	-113.000000
1.630000	103.140000	13.570000	0.000000	1.000000	181.000000	53.000000	0.000000	0.000000
1.640000	103.250000	11.160000	0.000000	0.000000	181.000000	53.000000	11.000000	-241.000000
1.650000	103.250000	10.290000	0.000000	0.000000	181.000000	53.000000	0.000000	-87.000000
1.660000	103.440000	9.880000	0.000000	0.000000	181.000000	53.000000	19.000000	-41.000000
1.670000	103.440000	9.880000	187.000000	1.000000	181.000000	54.000000	0.000000	0.000000
1.680000	103.980000	9.900000	314.000000	0.000000	181.000000	55.000000	54.000000	2.000000
1.690000	104.260000	10.180000	364.000000	0.000000	183.000000	56.000000	28.000000	28.000000
1.700000	104.600000	10.660000	404.000000	0.000000	183.000000	56.000000	34.000000	48.000000
1.710000	104.960000	11.270000	473.000000	0.000000	183.000000	56.000000	36.000000	61.000000
1.720000	105.110000	12.200000	493.000000	0.000000	183.000000	56.000000	15.000000	93.000000
1.730000	105.220000	12.980000	537.000000	0.000000	184.000000	56.000000	11.000000	78.000000
1.740000	105.040000	13.650000	559.000000	0.000000	184.000000	56.000000	-18.000000	67.000000
1.750000	104.670000	13.880000	602.000000	0.000000	186.000000	56.000000	-37.000000	23.000000
1.760000	104.240000	13.760000	644.000000	0.000000	186.000000	56.000000	-43.000000	-12.000000
1.770000	103.790000	13.420000	672.000000	0.000000	186.000000	56.000000	-45.000000	-34.000000
1.780000	103.460000	12.780000	699.000000	0.000000	186.000000	56.000000	-33.000000	-64.000000
1.790000	103.220000	11.930000	708.000000	0.000000	184.000000	56.000000	-24.000000	-85.000000
1.800000	103.220000	10.930000	710.000000	0.000000	184.000000	56.000000	0.000000	-100.000000
1.810000	103.330000	10.250000	710.000000	0.000000	185.000000	57.000000	11.000000	-68.000000
1.820000	103.490000	9.790000	702.000000	0.000000	183.000000	57.000000	16.000000	-46.000000
1.830000	103.700000	9.480000	708.000000	0.000000	183.000000	57.000000	21.000000	-31.000000
1.840000	104.040000	9.370000	708.000000	0.000000	183.000000	58.000000	34.000000	-11.000000
1.850000	104.470000	9.550000	708.000000	0.000000	183.000000	58.000000	43.000000	18.000000
1.860000	105.010000	9.920000	696.000000	0.000000	183.000000	58.000000	54.000000	37.000000
1.870000	105.540000	10.490000	661.000000	0.000000	183.000000	58.000000	53.000000	57.000000
1.880000	106.050000	11.370000	636.000000	0.000000	185.000000	58.000000	51.000000	88.000000
1.890000	106.370000	12.460000	580.000000	0.000000	185.000000	57.000000	32.000000	109.000000
1.900000	106.660000	13.530000	595.000000	0.000000	186.000000	57.000000	29.000000	107.000000
1.910000	106.660000	14.080000	611.000000	0.000000	187.000000	56.000000	0.000000	55.000000
1.920000	106.530000	14.280000	622.000000	0.000000	189.000000	56.000000	-13.000000	20.000000
1.930000	106.460000	14.220000	669.000000	0.000000	189.000000	55.000000	-7.000000	-6.000000
1.940000	106.390000	13.790000	727.000000	0.000000	190.000000	55.000000	-7.000000	-43.000000
1.950000	106.390000	13.120000	751.000000	0.000000	190.000000	55.000000	0.000000	-67.000000
1.960000	106.390000	12.110000	773.000000	0.000000	191.000000	53.000000	0.000000	-101.000000
1.970000	106.580000	11.320000	785.000000	0.000000	191.000000	54.000000	19.000000	-79.000000
1.980000	106.750000	10.670000	788.000000	0.000000	191.000000	54.000000	17.000000	-65.000000
1.990000	106.910000	10.240000	791.000000	0.000000	191.000000	54.000000	16.000000	-43.000000
2.000000	107.110000	10.040000	796.000000	0.000000	190.000000	56.000000	20.000000	-20.000000
2.010000	107.340000	10.040000	794.000000	0.000000	190.000000	56.000000	23.000000	0.000000
2.020000	107.610000	10.140000	765.000000	0.000000	190.000000	56.000000	27.000000	10.000000
2.030000	107.930000	10.490000	748.000000	0.000000	190.000000	56.000000	32.000000	35.000000
2.040000	108.290000	10.970000	691.000000	0.000000	190.000000	56.000000	36.000000	48.000000
2.050000	108.470000	11.720000	636.000000	0.000000	190.000000	56.000000	18.000000	75.000000
2.060000	108.610000	12.420000	647.000000	0.000000	192.000000	55.000000	14.000000	70.000000
2.070000	108.730000	13.090000	665.000000	0.000000	192.000000	55.000000	12.000000	67.000000
2.080000	108.800000	13.190000	676.000000	0.000000	193.000000	54.000000	7.000000	10.000000
2.090000	108.850000	13.070000	730.000000	0.000000	194.000000	54.000000	5.000000	-12.000000
2.100000	108.850000	12.810000	751.000000	0.000000	196.000000	54.000000	0.000000	-26.000000
2.110000	108.930000	12.370000	788.000000	0.000000	196.000000	53.000000	8.000000	-44.000000
2.120000	108.990000	11.890000	818.000000	0.000000	196.000000	53.000000	6.000000	-48.000000
2.130000	109.060000	11.470000	824.000000	0.000000	198.000000	53.000000	7.000000	-42.000000
2.140000	109.160000	11.100000	823.000000	0.000000	198.000000	53.000000	10.000000	-37.000000
2.150000	109.270000	10.960000	812.000000	0.000000	198.000000	54.000000	11.000000	-14.000000
2.160000	109.370000	10.900000	811.000000	0.000000	198.000000	54.000000	10.000000	-6.000000
2.170000	109.660000	10.900000	791.000000	0.000000	197.000000	54.000000	29.000000	0.000000
2.180000	110.070000	11.050000	765.000000	0.000000	196.000000	54.000000	41.000000	15.000000
2.190000	110.560000	11.410000	749.000000	0.000000	193.000000	54.000000	49.000000	36.000000
