t	x	y	pressure	penup	azimuth	inclination	v_x	v_y
0.000000	93.520000	39.060000	312.000000	1.000000	182.000000	64.000000	0.000000	0.000000
0.010000	93.150000	40.100000	389.000000	0.000000	184.000000	63.000000	-37.000000	104.000000
0.020000	93.080000	39.860000	422.000000	0.000000	184.000000	63.000000	-7.000000	-24.000000
0.030000	92.860000	39.240000	509.000000	0.000000	184.000000	63.000000	-22.000000	-62.000000
0.040000	92.540000	37.670000	664.000000	0.000000	184.000000	63.000000	-32.000000	-157.000000
0.050000	92.210000	35.630000	736.000000	0.000000	186.000000	63.000000	-33.000000	-204.000000
0.060000	91.910000	33.280000	753.000000	0.000000	186.000000	64.000000	-30.000000	-235.000000
0.070000	91.640000	30.400000	758.000000	0.000000	186.000000	64.000000	-27.000000	-288.000000
0.080000	91.280000	27.480000	746.000000	0.000000	186.000000	65.000000	-36.000000	-292.000000
0.090000	90.870000	24.530000	746.000000	0.000000	187.000000	66.000000	-41.000000	-295.000000
0.100000	90.430000	22.240000	748.000000	0.000000	187.000000	67.000000	-44.000000	-229.000000
0.110000	90.330000	20.660000	749.000000	0.000000	185.000000	68.000000	-10.000000	-158.000000
0.120000	90.670000	19.560000	754.000000	0.000000	185.000000	69.000000	34.000000	-110.000000
0.130000	91.290000	19.060000	734.000000	0.000000	185.000000	70.000000	62.000000	-50.000000
0.140000	91.890000	19.060000	724.000000	0.000000	183.000000	70.000000	60.000000	0.000000
0.150000	92.540000	19.410000	684.000000	0.000000	183.000000	71.000000	65.000000	35.000000
0.160000	93.230000	20.280000	628.000000	0.000000	183.000000	71.000000	69.000000	87.000000
0.170000	93.800000	21.600000	585.000000	0.000000	183.000000	71.000000	57.000000	132.000000
0.180000	94.350000	23.230000	551.000000	0.000000	186.000000	71.000000	55.000000	163.000000
0.190000	94.530000	24.780000	538.000000	0.000000	185.000000	70.000000	18.000000	155.000000
0.200000	94.460000	26.130000	527.000000	0.000000	185.000000	70.000000	-7.000000	135.000000
0.210000	93.940000	27.340000	537.000000	0.000000	188.000000	70.000000	-52.000000	121.000000
0.220000	92.990000	28.200000	565.000000	0.000000	188.000000	70.000000	-95.000000	86.000000
0.230000	91.740000	28.600000	586.000000	0.000000	188.000000	70.000000	-125.000000	40.000000
0.240000	90.170000	28.690000	620.000000	0.000000	188.000000	70.000000	-157.000000	9.000000
0.250000	88.480000	28.460000	664.000000	0.000000	190.000000	69.000000	-169.000000	-23.000000
0.260000	86.700000	28.150000	691.000000	0.000000	190.000000	69.000000	-178.000000	-31.000000
0.270000	85.700000	27.800000	699.000000	0.000000	190.000000	68.000000	-100.000000	-35.000000
0.280000	85.450000	27.540000	693.000000	0.000000	190.000000	68.000000	-25.000000	-26.000000
0.290000	85.700000	27.260000	691.000000	0.000000	192.000000	68.000000	25.000000	-28.000000
0.300000	86.610000	26.980000	694.000000	0.000000	192.000000	67.000000	91.000000	-28.000000
0.310000	88.050000	26.790000	696.000000	0.000000	194.000000	66.000000	144.000000	-19.000000
0.320000	89.840000	26.790000	721.000000	0.000000	194.000000	66.000000	179.000000	0.000000
0.330000	91.900000	26.980000	758.000000	0.000000	196.000000	66.000000	206.000000	19.000000
0.340000	94.360000	27.230000	790.000000	0.000000	196.000000	66.000000	246.000000	25.000000
0.350000	97.080000	27.470000	794.000000	0.000000	196.000000	66.000000	272.000000	24.000000
0.360000	100.010000	27.820000	791.000000	0.000000	199.000000	67.000000	293.000000	35.000000
0.370000	102.920000	28.240000	799.000000	0.000000	199.000000	67.000000	291.000000	42.000000
0.380000	105.840000	28.660000	818.000000	0.000000	199.000000	67.000000	292.000000	42.000000
0.390000	108.250000	29.030000	797.000000	0.000000	199.000000	67.000000	241.000000	37.000000
0.400000	110.330000	29.330000	777.000000	0.000000	197.000000	67.000000	208.000000	30.000000
0.410000	111.670000	29.570000	661.000000	0.000000	198.000000	68.000000	134.000000	24.000000
0.420000	112.230000	29.770000	389.000000	0.000000	195.000000	68.000000	56.000000	20.000000
0.430000	112.230000	29.770000	0.000000	1.000000	193.000000	69.000000	0.000000	0.000000
0.440000	111.800000	30.000000	0.000000	0.000000	188.000000	70.000000	-43.000000	23.000000
0.450000	111.020000	30.070000	0.000000	0.000000	185.000000	70.000000	-78.000000	7.000000
0.460000	110.030000	30.120000	0.000000	0.000000	183.000000	70.000000	-99.000000	5.000000
0.470000	108.770000	30.120000	0.000000	0.000000	183.000000	70.000000	-126.000000	0.000000
0.480000	107.150000	30.120000	0.000000	0.000000	185.000000	70.000000	-162.000000	0.000000
0.490000	105.300000	30.040000	0.000000	0.000000	188.000000	69.000000	-185.000000	-8.000000
0.500000	103.160000	29.940000	0.000000	0.000000	188.000000	69.000000	-214.000000	-10.000000
0.510000	101.020000	29.840000	0.000000	0.000000	190.000000	69.000000	-214.000000	-10.000000
0.520000	98.870000	29.740000	0.000000	0.000000	190.000000	68.000000	-215.000000	-10.000000
0.530000	97.040000	29.510000	0.000000	0.000000	190.000000	68.000000	-183.000000	-23.000000
0.540000	95.500000	29.420000	0.000000	0.000000	190.000000	68.000000	-154.000000	-9.000000
0.550000	94.160000	29.420000	0.000000	0.000000	187.000000	68.000000	-134.000000	0.000000
0.560000	93.240000	29.210000	0.000000	0.000000	185.000000	68.000000	-92.000000	-21.000000
0.570000	92.490000	28.990000	0.000000	0.000000	180.000000	69.000000	-75.000000	-22.000000
0.580000	91.860000	28.720000	0.000000	0.000000	180.000000	69.000000	-63.000000	-27.000000
0.590000	91.440000	28.380000	0.000000	0.000000	177.000000	69.000000	-42.000000	-34.000000
0.600000	91.070000	27.970000	0.000000	0.000000	177.000000	70.000000	-37.000000	-41.000000
0.610000	90.790000	27.480000	0.000000	0.000000	175.000000	70.000000	-28.000000	-49.000000
0.620000	90.590000	26.880000	0.000000	0.000000	175.000000	70.000000	-20.000000	-60.000000
0.630000	90.470000	26.210000	0.000000	0.000000	175.000000	70.000000	-12.000000	-67.000000
0.640000	90.470000	25.620000	0.000000	0.000000	175.000000	70.000000	0.000000	-59.000000
0.650000	90.470000	25.620000	389.000000	1.000000	175.000000	70.000000	0.000000	0.000000
0.660000	90.860000	25.060000	420.000000	0.000000	177.000000	70.000000	39.000000	-56.000000
0.670000	91.090000	25.060000	502.000000	0.000000	177.000000	70.000000	23.000000	0.000000
0.680000	91.300000	25.230000	668.000000	0.000000	180.000000	70.000000	21.000000	17.000000
0.690000	91.580000	25.520000	728.000000	0.000000	180.000000	70.000000	28.000000	29.000000
0.700000	91.860000	25.950000	753.000000	0.000000	180.000000	71.000000	28.000000	43.000000
0.710000	92.170000	26.630000	787.000000	0.000000	180.000000	71.000000	31.000000	68.000000
0.720000	92.490000	27.470000	791.000000	0.000000	180.000000	71.000000	32.000000	84.000000
0.730000	92.760000	28.490000	774.000000	0.000000	180.000000	71.000000	27.000000	102.000000
0.740000	92.950000	29.450000	779.000000	0.000000	183.000000	71.000000	19.000000	96.000000
0.750000	93.090000	30.290000	779.000000	0.000000	183.000000	70.000000	14.000000	84.000000
0.760000	93.170000	30.790000	767.000000	0.000000	185.000000	70.000000	8.000000	50.000000
0.770000	93.170000	31.070000	759.000000	0.000000	188.000000	69.000000	0.000000	28.000000
0.780000	93.060000	31.070000	750.000000	0.000000	190.000000	68.000000	-11.000000	0.000000
0.790000	93.060000	30.900000	751.000000	0.000000	189.000000	67.000000	0.000000	-17.000000
0.800000	93.060000	30.560000	750.000000	0.000000	189.000000	67.000000	0.000000	-34.000000
0.810000	93.060000	29.750000	737.000000	0.000000	191.000000	66.000000	0.000000	-81.000000
0.820000	93.060000	28.890000	725.000000	0.000000	191.000000	66.000000	0.000000	-86.000000
0.830000	93.190000	27.990000	697.000000	0.000000	192.000000	67.000000	13.000000	-90.000000
0.840000	93.250000	27.110000	687.000000	0.000000	189.000000	67.000000	6.000000	-88.000000
0.850000	93.310000	26.640000	673.000000	0.000000	189.000000	67.000000	6.000000	-47.000000
0.860000	93.450000	26.420000	665.000000	0.000000	190.000000	68.000000	14.000000	-22.000000
0.870000	93.630000	26.420000	656.000000	0.000000	188.000000	69.000000	18.000000	0.000000
0.880000	93.880000	26.770000	620.000000	0.000000	188.000000	70.000000	25.000000	35.000000
0.890000	94.240000	27.280000	611.000000	0.000000	188.000000	70.000000	36.000000	51.000000
0.900000	94.660000	28.070000	561.000000	0.000000	188.000000	70.000000	42.000000	79.000000
0.910000	95.020000	29.010000	537.000000	0.000000	188.000000	70.000000	36.000000	94.000000
0.920000	95.340000	30.050000	532.000000	0.000000	188.000000	70.000000	32.000000	104.000000
0.930000	95.600000	30.960000	551.000000	0.000000	191.000000	70.000000	26.000000	91.000000
0.940000	95.660000	31.400000	560.000000	0.000000	193.000000	69.000000	6.000000	44.000000
0.950000	95.590000	31.530000	561.000000	0.000000	192.000000	68.000000	-7.000000	13.000000
0.960000	95.590000	31.450000	586.000000	0.000000	194.000000	66.000000	0.000000	-8.000000
0.970000	95.520000	31.080000	620.000000	0.000000	196.000000	66.000000	-7.000000	-37.000000
0.980000	95.520000	30.530000	631.000000	0.000000	196.000000	66.000000	0.000000	-55.000000
0.990000	95.520000	29.750000	641.000000	0.000000	198.000000	65.000000	0.000000	-78.000000
1.000000	95.660000	28.940000	645.000000	0.000000	198.000000	65.000000	14.000000	-81.000000
1.010000	95.830000	28.090000	639.000000	0.000000	198.000000	66.000000	17.000000	-85.000000
1.020000	95.960000	27.440000	642.000000	0.000000	198.000000	66.000000	13.000000	-65.000000
1.030000	96.150000	26.920000	636.000000	0.000000	199.000000	67.000000	19.000000	-52.000000
1.040000	96.390000	26.790000	640.000000	0.000000	199.000000	67.000000	24.000000	-13.000000
1.050000	96.730000	26.990000	659.000000	0.000000	200.000000	68.000000	34.000000	20.000000
1.060000	97.140000	27.400000	679.000000	0.000000	201.000000	69.000000	41.000000	41.000000
1.070000	97.590000	28.160000	664.000000	0.000000	201.000000	69.000000	45.000000	76.000000
1.080000	98.090000	29.190000	673.000000	0.000000	201.000000	69.000000	50.000000	103.000000
1.090000	98.560000	30.400000	639.000000	0.000000	201.000000	69.000000	47.000000	121.000000
1.100000	99.000000	31.810000	619.000000	0.000000	200.000000	68.000000	44.000000	141.000000
1.110000	99.380000	33.370000	591.000000	0.000000	202.000000	67.000000	38.000000	156.000000
1.120000	99.730000	35.040000	556.000000	0.000000	201.000000	67.000000	35.000000	167.000000
1.130000	99.880000	36.350000	580.000000	0.000000	201.000000	67.000000	15.000000	131.000000
1.140000	99.880000	37.040000	591.000000	0.000000	203.000000	65.000000	0.000000	69.000000
1.150000	99.680000	37.330000	608.000000	0.000000	202.000000	64.000000	-20.000000	29.000000
1.160000	99.430000	37.200000	641.000000	0.000000	202.000000	64.000000	-25.000000	-13.000000
1.170000	99.020000	36.610000	673.000000	0.000000	202.000000	64.000000	-41.000000	-59.000000
1.180000	98.520000	35.720000	696.000000	0.000000	201.000000	64.000000	-50.000000	-89.000000
1.190000	98.000000	34.380000	710.000000	0.000000	201.000000	64.000000	-52.000000	-134.000000
1.200000	97.670000	32.790000	703.000000	0.000000	201.000000	64.000000	-33.000000	-159.000000
1.210000	97.460000	31.030000	700.000000	0.000000	201.000000	64.000000	-21.000000	-176.000000
1.220000	97.310000	29.550000	691.000000	0.000000	202.000000	64.000000	-15.000000	-148.000000
1.230000	97.250000	28.310000	687.000000	0.000000	202.000000	64.000000	-6.000000	-124.000000
1.240000	97.250000	27.220000	682.000000	0.000000	203.000000	65.000000	0.000000	-109.000000
1.250000	97.510000	26.700000	676.000000	0.000000	200.000000	66.000000	26.000000	-52.000000
1.260000	97.890000	26.580000	634.000000	0.000000	201.000000	67.000000	38.000000	-12.000000
1.270000	98.350000	26.740000	631.000000	0.000000	202.000000	67.000000	46.000000	16.000000
1.280000	98.910000	27.330000	595.000000	0.000000	202.000000	67.000000	56.000000	59.000000
1.290000	99.490000	28.250000	553.000000	0.000000	204.000000	68.000000	58.000000	92.000000
1.300000	100.080000	29.390000	499.000000	0.000000	204.000000	68.000000	59.000000	114.000000
1.310000	100.560000	30.560000	519.000000	0.000000	204.000000	68.000000	48.000000	117.000000
1.320000	100.730000	31.280000	591.000000	0.000000	202.000000	67.000000	17.000000	72.000000
1.330000	100.730000	31.700000	636.000000	0.000000	202.000000	67.000000	0.000000	42.000000
1.340000	100.620000	31.700000	673.000000	0.000000	201.000000	67.000000	-11.000000	0.000000
1.350000	100.570000	31.320000	727.000000	0.000000	200.000000	66.000000	-5.000000	-38.000000
1.360000	100.570000	30.700000	757.000000	0.000000	198.000000	66.000000	0.000000	-62.000000
1.370000	100.350000	29.850000	757.000000	0.000000	198.000000	65.000000	-22.000000	-85.000000
1.380000	100.190000	29.080000	739.000000	0.000000	196.000000	66.000000	-16.000000	-77.000000
1.390000	100.050000	28.370000	659.000000	0.000000	196.000000	66.000000	-14.000000	-71.000000
1.400000	99.970000	27.890000	475.000000	0.000000	194.000000	66.000000	-8.000000	-48.000000
1.410000	100.130000	27.800000	20.000000	0.000000	195.000000	67.000000	16.000000	-9.000000
1.420000	100.130000	27.800000	0.000000	1.000000	195.000000	67.000000	0.000000	0.000000
1.430000	100.870000	28.480000	0.000000	0.000000	193.000000	69.000000	74.000000	68.000000
1.440000	101.260000	29.230000	0.000000	0.000000	193.000000	69.000000	39.000000	75.000000
1.450000	101.590000	30.140000	0.000000	0.000000	193.000000	69.000000	33.000000	91.000000
1.460000	101.760000	31.320000	0.000000	0.000000	193.000000	69.000000	17.000000	118.000000
1.470000	101.830000	32.510000	0.000000	0.000000	195.000000	68.000000	7.000000	119.000000
1.480000	101.770000	33.720000	0.000000	0.000000	195.000000	67.000000	-6.000000	121.000000
1.490000	101.570000	34.210000	0.000000	0.000000	194.000000	66.000000	-20.000000	49.000000
1.500000	101.570000	34.210000	48.000000	1.000000	193.000000	65.000000	0.000000	0.000000
1.510000	101.070000	33.950000	469.000000	0.000000	193.000000	64.000000	-50.000000	-26.000000
1.520000	101.070000	34.120000	443.000000	0.000000	195.000000	64.000000	0.000000	17.000000
1.530000	101.210000	33.870000	409.000000	0.000000	195.000000	64.000000	14.000000	-25.000000
1.540000	101.480000	33.350000	335.000000	0.000000	194.000000	63.000000	27.000000	-52.000000
1.550000	101.720000	32.740000	167.000000	0.000000	195.000000	64.000000	24.000000	-61.000000
1.560000	101.720000	32.740000	0.000000	1.000000	195.000000	64.000000	0.000000	0.000000
1.570000	101.970000	31.010000	0.000000	0.000000	195.000000	64.000000	25.000000	-173.000000
1.580000	102.040000	30.090000	0.000000	0.000000	195.000000	65.000000	7.000000	-92.000000
1.590000	102.040000	29.350000	0.000000	0.000000	195.000000	65.000000	0.000000	-74.000000
1.600000	101.890000	28.720000	0.000000	0.000000	198.000000	65.000000	-15.000000	-63.000000
1.610000	102.110000	28.460000	0.000000	0.000000	198.000000	66.000000	22.000000	-26.000000
1.620000	102.330000	28.460000	0.000000	0.000000	198.000000	66.000000	22.000000	0.000000
1.630000	102.550000	28.710000	0.000000	0.000000	199.000000	67.000000	22.000000	25.000000
1.640000	102.780000	29.080000	0.000000	0.000000	199.000000	67.000000	23.000000	37.000000
1.650000	102.780000	29.080000	54.000000	1.000000	199.000000	67.000000	0.000000	0.000000
1.660000	103.130000	30.290000	216.000000	0.000000	199.000000	67.000000	35.000000	121.000000
1.670000	103.190000	30.960000	304.000000	0.000000	199.000000	67.000000	6.000000	67.000000
1.680000	103.190000	31.600000	464.000000	0.000000	199.000000	67.000000	0.000000	64.000000
1.690000	103.040000	31.910000	568.000000	0.000000	199.000000	67.000000	-15.000000	31.000000
1.700000	102.870000	32.020000	620.000000	0.000000	200.000000	66.000000	-17.000000	11.000000
1.710000	102.680000	31.900000	673.000000	0.000000	200.000000	66.000000	-19.000000	-12.000000
1.720000	102.480000	31.460000	696.000000	0.000000	198.000000	66.000000	-20.000000	-44.000000
1.730000	102.250000	30.810000	705.000000	0.000000	198.000000	65.000000	-23.000000	-65.000000
1.740000	102.130000	29.990000	707.000000	0.000000	198.000000	65.000000	-12.000000	-82.000000
1.750000	102.130000	29.230000	705.000000	0.000000	198.000000	65.000000	0.000000	-76.000000
1.760000	102.020000	28.510000	703.000000	0.000000	198.000000	66.000000	-11.000000	-72.000000
1.770000	102.130000	27.950000	696.000000	0.000000	198.000000	66.000000	11.000000	-56.000000
1.780000	102.360000	27.620000	688.000000	0.000000	199.000000	67.000000	23.000000	-33.000000
1.790000	102.710000	27.440000	670.000000	0.000000	200.000000	68.000000	35.000000	-18.000000
1.800000	103.070000	27.560000	644.000000	0.000000	198.000000	68.000000	36.000000	12.000000
1.810000	103.460000	27.960000	614.000000	0.000000	199.000000	69.000000	39.000000	40.000000
1.820000	103.910000	28.540000	564.000000	0.000000	199.000000	69.000000	45.000000	58.000000
1.830000	104.360000	29.350000	512.000000	0.000000	199.000000	69.000000	45.000000	81.000000
1.840000	104.750000	30.180000	530.000000	0.000000	199.000000	69.000000	39.000000	83.000000
1.850000	104.900000	31.030000	541.000000	0.000000	201.000000	69.000000	15.000000	85.000000
1.860000	104.900000	31.550000	543.000000	0.000000	200.000000	68.000000	0.000000	52.000000
1.870000	104.770000	31.780000	564.000000	0.000000	200.000000	68.000000	-13.000000	23.000000
1.880000	104.640000	31.780000	600.000000	0.000000	199.000000	67.000000	-13.000000	0.000000
1.890000	104.500000	31.600000	627.000000	0.000000	200.000000	66.000000	-14.000000	-18.000000
1.900000	104.400000	31.120000	658.000000	0.000000	200.000000	66.000000	-10.000000	-48.000000
1.910000	104.290000	30.470000	690.000000	0.000000	200.000000	66.000000	-11.000000	-65.000000
1.920000	104.290000	29.810000	708.000000	0.000000	200.000000	66.000000	0.000000	-66.000000
1.930000	104.290000	29.150000	710.000000	0.000000	200.000000	66.000000	0.000000	-66.000000
1.940000	104.430000	28.680000	717.000000	0.000000	201.000000	67.000000	14.000000	-47.000000
1.950000	104.650000	28.340000	713.000000	0.000000	201.000000	67.000000	22.000000	-34.000000
1.960000	104.940000	28.250000	708.000000	0.000000	201.000000	67.000000	29.000000	-9.000000
1.970000	105.200000	28.380000	682.000000	0.000000	202.000000	67.000000	26.000000	13.000000
1.980000	105.570000	28.670000	673.000000	0.000000	202.000000	67.000000	37.000000	29.000000
1.990000	106.000000	29.090000	611.000000	0.000000	204.000000	68.000000	43.000000	42.000000
2.000000	106.310000	29.690000	560.000000	0.000000	204.000000	68.000000	31.000000	60.000000
2.010000	106.610000	30.400000	546.000000	0.000000	204.000000	68.000000	30.000000	71.000000
2.020000	106.750000	31.080000	553.000000	0.000000	205.000000	67.000000	14.000000	68.000000
2.030000	106.750000	31.450000	554.000000	0.000000	205.000000	67.000000	0.000000	37.000000
2.040000	106.700000	31.610000	589.000000	0.000000	204.000000	66.000000	-5.000000	16.000000
2.050000	106.630000	31.550000	642.000000	0.000000	206.000000	66.000000	-7.000000	-6.000000
2.060000	106.560000	31.230000	681.000000	0.000000	206.000000	66.000000	-7.000000	-32.000000
2.070000	106.560000	30.750000	719.000000	0.000000	205.000000	65.000000	0.000000	-48.000000
2.080000	106.630000	30.300000	736.000000	0.000000	205.000000	65.000000	7.000000	-45.000000
2.090000	106.750000	29.840000	763.000000	0.000000	207.000000	65.000000	12.000000	-46.000000
2.100000	106.850000	29.530000	754.000000	0.000000	207.000000	65.000000	10.000000	-31.000000
2.110000	106.950000	29.310000	761.000000	0.000000	208.000000	65.000000	10.000000	-22.000000
2.120000	107.060000	29.310000	752.000000	0.000000	208.000000	65.000000	11.000000	0.000000
2.130000	107.260000	29.410000	717.000000	0.000000	208.000000	65.000000	20.000000	10.000000
2.140000	107.520000	29.660000	697.000000	0.000000	208.000000	65.000000	26.000000	25.000000
2.150000	107.730000	30.050000	670.000000	0.000000	208.000000	65.000000	21.000000	39.000000
2.160000	107.940000	30.480000	662.000000	0.000000	208.000000	65.000000	21.000000	43.000000
2.170000	108.160000	30.930000	670.000000	0.000000	208.000000	65.000000	22.000000	45.000000
2.180000	108.430000	31.140000	691.000000	0.000000	208.000000	65.000000	27.000000	21.000000
