t	x	y	pressure	penup	azimuth	inclination	v_x	v_y
0.000000	53.400000	87.130000	588.000000	1.000000	167.000000	64.000000	0.000000	0.000000
0.010000	53.570000	87.600000	639.000000	0.000000	169.000000	65.000000	17.000000	47.000000
0.020000	53.340000	87.410000	613.000000	0.000000	171.000000	65.000000	-23.000000	-19.000000
0.030000	53.340000	86.890000	668.000000	0.000000	171.000000	66.000000	0.000000	-52.000000
0.040000	53.210000	85.740000	788.000000	0.000000	174.000000	65.000000	-13.000000	-115.000000
0.050000	53.080000	84.170000	888.000000	0.000000	173.000000	66.000000	-13.000000	-157.000000
0.060000	53.080000	82.140000	896.000000	0.000000	176.000000	66.000000	0.000000	-203.000000
0.070000	53.130000	79.680000	906.000000	0.000000	176.000000	66.000000	5.000000	-246.000000
0.080000	53.270000	76.940000	869.000000	0.000000	176.000000	66.000000	14.000000	-274.000000
0.090000	53.120000	74.320000	809.000000	0.000000	176.000000	66.000000	-15.000000	-262.000000
0.100000	53.050000	72.430000	817.000000	0.000000	175.000000	67.000000	-7.000000	-189.000000
0.110000	53.050000	71.040000	830.000000	0.000000	175.000000	67.000000	0.000000	-139.000000
0.120000	53.430000	70.710000	830.000000	0.000000	175.000000	67.000000	38.000000	-33.000000
0.130000	53.840000	70.850000	840.000000	0.000000	175.000000	68.000000	41.000000	14.000000
0.140000	54.280000	71.300000	828.000000	0.000000	175.000000	68.000000	44.000000	45.000000
0.150000	54.690000	72.360000	796.000000	0.000000	178.000000	68.000000	41.000000	106.000000
0.160000	54.800000	73.910000	771.000000	0.000000	178.000000	68.000000	11.000000	155.000000
0.170000	54.710000	75.790000	762.000000	0.000000	178.000000	67.000000	-9.000000	188.000000
0.180000	54.230000	77.370000	777.000000	0.000000	178.000000	67.000000	-48.000000	158.000000
0.190000	53.270000	78.310000	788.000000	0.000000	180.000000	67.000000	-96.000000	94.000000
0.200000	51.980000	78.830000	787.000000	0.000000	180.000000	67.000000	-129.000000	52.000000
0.210000	50.500000	78.900000	796.000000	0.000000	180.000000	67.000000	-148.000000	7.000000
0.220000	49.070000	78.600000	823.000000	0.000000	180.000000	67.000000	-143.000000	-30.000000
0.230000	47.680000	78.050000	826.000000	0.000000	180.000000	66.000000	-139.000000	-55.000000
0.240000	47.230000	77.520000	815.000000	0.000000	180.000000	66.000000	-45.000000	-53.000000
0.250000	47.480000	76.960000	809.000000	0.000000	180.000000	66.000000	25.000000	-56.000000
0.260000	48.190000	76.340000	815.000000	0.000000	180.000000	66.000000	71.000000	-62.000000
0.270000	49.410000	75.950000	818.000000	0.000000	180.000000	65.000000	122.000000	-39.000000
0.280000	51.260000	75.720000	818.000000	0.000000	180.000000	65.000000	185.000000	-23.000000
0.290000	53.520000	75.800000	837.000000	0.000000	180.000000	65.000000	226.000000	8.000000
0.300000	56.200000	76.010000	866.000000	0.000000	180.000000	65.000000	268.000000	21.000000
0.310000	59.120000	76.300000	864.000000	0.000000	180.000000	65.000000	292.000000	29.000000
0.320000	62.210000	76.680000	908.000000	0.000000	180.000000	66.000000	309.000000	38.000000
0.330000	65.210000	77.050000	900.000000	0.000000	180.000000	66.000000	300.000000	37.000000
0.340000	67.850000	77.400000	905.000000	0.000000	182.000000	66.000000	264.000000	35.000000
0.350000	70.260000	77.730000	905.000000	0.000000	182.000000	67.000000	241.000000	33.000000
0.360000	71.980000	77.990000	905.000000	0.000000	182.000000	67.000000	172.000000	26.000000
0.370000	72.980000	78.210000	900.000000	0.000000	182.000000	67.000000	100.000000	22.000000
0.380000	73.500000	78.350000	900.000000	0.000000	185.000000	68.000000	52.000000	14.000000
0.390000	73.500000	78.430000	893.000000	0.000000	185.000000	68.000000	0.000000	8.000000
0.400000	73.390000	78.430000	858.000000	0.000000	185.000000	68.000000	-11.000000	0.000000
0.410000	73.170000	78.520000	796.000000	0.000000	187.000000	68.000000	-22.000000	9.000000
0.420000	72.900000	78.620000	622.000000	0.000000	187.000000	68.000000	-27.000000	10.000000
0.430000	72.560000	78.620000	81.000000	0.000000	187.000000	68.000000	-34.000000	0.000000
0.440000	72.560000	78.620000	0.000000	1.000000	190.000000	68.000000	0.000000	0.000000
0.450000	71.620000	78.360000	0.000000	0.000000	190.000000	68.000000	-94.000000	-26.000000
0.460000	71.130000	78.220000	0.000000	0.000000	189.000000	67.000000	-49.000000	-14.000000
0.470000	70.560000	78.070000	0.000000	0.000000	187.000000	67.000000	-57.000000	-15.000000
0.480000	69.810000	77.920000	0.000000	0.000000	187.000000	66.000000	-75.000000	-15.000000
0.490000	68.950000	77.770000	0.000000	0.000000	186.000000	65.000000	-86.000000	-15.000000
0.500000	67.870000	77.640000	0.000000	0.000000	186.000000	64.000000	-108.000000	-13.000000
0.510000	66.740000	77.530000	0.000000	0.000000	186.000000	63.000000	-113.000000	-11.000000
0.520000	65.530000	77.440000	0.000000	0.000000	186.000000	62.000000	-121.000000	-9.000000
0.530000	64.260000	77.340000	0.000000	0.000000	183.000000	60.000000	-127.000000	-10.000000
0.540000	62.950000	77.210000	0.000000	0.000000	183.000000	58.000000	-131.000000	-13.000000
0.550000	61.630000	77.050000	0.000000	0.000000	181.000000	56.000000	-132.000000	-16.000000
0.560000	60.300000	76.890000	0.000000	0.000000	180.000000	55.000000	-133.000000	-16.000000
0.570000	59.170000	76.750000	0.000000	0.000000	177.000000	54.000000	-113.000000	-14.000000
0.580000	58.160000	76.590000	0.000000	0.000000	176.000000	53.000000	-101.000000	-16.000000
0.590000	57.230000	76.520000	0.000000	0.000000	173.000000	53.000000	-93.000000	-7.000000
0.600000	56.620000	76.520000	0.000000	0.000000	172.000000	52.000000	-61.000000	0.000000
0.610000	56.320000	76.520000	0.000000	0.000000	172.000000	53.000000	-30.000000	0.000000
0.620000	56.230000	76.520000	0.000000	0.000000	173.000000	53.000000	-9.000000	0.000000
0.630000	56.230000	76.520000	0.000000	0.000000	175.000000	53.000000	0.000000	0.000000
0.640000	56.340000	76.520000	0.000000	0.000000	176.000000	54.000000	11.000000	0.000000
0.650000	56.410000	76.520000	0.000000	0.000000	179.000000	55.000000	7.000000	0.000000
0.660000	56.470000	76.520000	0.000000	0.000000	180.000000	56.000000	6.000000	0.000000
0.670000	56.470000	76.610000	0.000000	0.000000	182.000000	57.000000	0.000000	9.000000
0.680000	56.470000	76.660000	0.000000	0.000000	182.000000	58.000000	0.000000	5.000000
0.690000	56.260000	76.660000	0.000000	0.000000	180.000000	59.000000	-21.000000	0.000000
0.700000	56.000000	76.660000	0.000000	0.000000	180.000000	60.000000	-26.000000	0.000000
0.710000	55.660000	76.600000	0.000000	0.000000	180.000000	60.000000	-34.000000	-6.000000
0.720000	55.300000	76.600000	0.000000	0.000000	180.000000	61.000000	-36.000000	0.000000
0.730000	54.930000	76.600000	0.000000	0.000000	180.000000	61.000000	-37.000000	0.000000
0.740000	54.630000	76.600000	0.000000	0.000000	180.000000	62.000000	-30.000000	0.000000
0.750000	54.370000	76.700000	0.000000	0.000000	178.000000	62.000000	-26.000000	10.000000
0.760000	54.180000	76.780000	0.000000	0.000000	178.000000	62.000000	-19.000000	8.000000
0.770000	54.060000	76.850000	0.000000	0.000000	178.000000	62.000000	-12.000000	7.000000
0.780000	54.060000	76.920000	0.000000	0.000000	176.000000	62.000000	0.000000	7.000000
0.790000	54.060000	76.980000	0.000000	0.000000	176.000000	62.000000	0.000000	6.000000
0.800000	54.150000	77.050000	0.000000	0.000000	176.000000	62.000000	9.000000	7.000000
0.810000	54.230000	77.110000	0.000000	0.000000	174.000000	62.000000	8.000000	6.000000
0.820000	54.230000	77.160000	0.000000	0.000000	174.000000	62.000000	0.000000	5.000000
0.830000	54.230000	77.160000	0.000000	0.000000	174.000000	62.000000	0.000000	0.000000
0.840000	54.120000	77.160000	0.000000	0.000000	174.000000	62.000000	-11.000000	0.000000
0.850000	53.970000	77.030000	0.000000	0.000000	174.000000	62.000000	-15.000000	-13.000000
0.860000	53.790000	76.880000	0.000000	0.000000	172.000000	63.000000	-18.000000	-15.000000
0.870000	53.630000	76.670000	0.000000	0.000000	172.000000	63.000000	-16.000000	-21.000000
0.880000	53.470000	76.410000	0.000000	0.000000	172.000000	63.000000	-16.000000	-26.000000
0.890000	53.470000	76.410000	447.000000	1.000000	172.000000	64.000000	0.000000	0.000000
0.900000	53.250000	75.940000	465.000000	0.000000	172.000000	64.000000	-22.000000	-47.000000
0.910000	53.320000	75.810000	527.000000	0.000000	171.000000	65.000000	7.000000	-13.000000
0.920000	53.470000	75.730000	628.000000	0.000000	171.000000	65.000000	15.000000	-8.000000
0.930000	53.600000	75.730000	717.000000	0.000000	171.000000	66.000000	13.000000	0.000000
0.940000	53.760000	75.730000	780.000000	0.000000	173.000000	66.000000	16.000000	0.000000
0.950000	53.960000	75.850000	793.000000	0.000000	173.000000	66.000000	20.000000	12.000000
0.960000	54.220000	76.000000	824.000000	0.000000	173.000000	67.000000	26.000000	15.000000
0.970000	54.460000	76.280000	817.000000	0.000000	173.000000	67.000000	24.000000	28.000000
0.980000	54.670000	76.640000	827.000000	0.000000	173.000000	67.000000	21.000000	36.000000
0.990000	54.860000	77.110000	826.000000	0.000000	173.000000	67.000000	19.000000	47.000000
1.000000	55.030000	77.700000	826.000000	0.000000	173.000000	67.000000	17.000000	59.000000
1.010000	55.200000	78.380000	826.000000	0.000000	173.000000	67.000000	17.000000	68.000000
1.020000	55.200000	79.030000	817.000000	0.000000	175.000000	67.000000	0.000000	65.000000
1.030000	55.110000	79.420000	821.000000	0.000000	175.000000	67.000000	-9.000000	39.000000
1.040000	55.040000	79.640000	824.000000	0.000000	175.000000	67.000000	-7.000000	22.000000
1.050000	54.990000	79.710000	825.000000	0.000000	175.000000	67.000000	-5.000000	7.000000
1.060000	54.990000	79.610000	824.000000	0.000000	175.000000	67.000000	0.000000	-10.000000
1.070000	54.990000	79.400000	830.000000	0.000000	175.000000	67.000000	0.000000	-21.000000
1.080000	55.040000	78.790000	828.000000	0.000000	175.000000	67.000000	5.000000	-61.000000
1.090000	55.130000	78.160000	817.000000	0.000000	175.000000	67.000000	9.000000	-63.000000
1.100000	55.240000	77.490000	817.000000	0.000000	175.000000	67.000000	11.000000	-67.000000
1.110000	55.340000	76.950000	803.000000	0.000000	175.000000	67.000000	10.000000	-54.000000
1.120000	55.460000	76.480000	794.000000	0.000000	175.000000	67.000000	12.000000	-47.000000
1.130000	55.630000	76.340000	788.000000	0.000000	175.000000	67.000000	17.000000	-14.000000
1.140000	55.860000	76.340000	790.000000	0.000000	178.000000	67.000000	23.000000	0.000000
1.150000	56.110000	76.480000	796.000000	0.000000	178.000000	67.000000	25.000000	14.000000
1.160000	56.380000	76.850000	794.000000	0.000000	178.000000	67.000000	27.000000	37.000000
1.170000	56.660000	77.420000	785.000000	0.000000	178.000000	67.000000	28.000000	57.000000
1.180000	56.870000	78.130000	782.000000	0.000000	178.000000	67.000000	21.000000	71.000000
1.190000	57.030000	78.790000	777.000000	0.000000	180.000000	67.000000	16.000000	66.000000
1.200000	57.110000	79.460000	782.000000	0.000000	180.000000	67.000000	8.000000	67.000000
1.210000	57.110000	79.830000	780.000000	0.000000	180.000000	67.000000	0.000000	37.000000
1.220000	57.040000	80.010000	787.000000	0.000000	180.000000	67.000000	-7.000000	18.000000
1.230000	57.040000	80.010000	790.000000	0.000000	180.000000	68.000000	0.000000	0.000000
1.240000	57.040000	79.870000	793.000000	0.000000	180.000000	68.000000	0.000000	-14.000000
1.250000	57.040000	79.440000	814.000000	0.000000	180.000000	68.000000	0.000000	-43.000000
1.260000	57.040000	78.820000	818.000000	0.000000	182.000000	68.000000	0.000000	-62.000000
1.270000	57.120000	78.000000	825.000000	0.000000	182.000000	68.000000	8.000000	-82.000000
1.280000	57.200000	77.180000	819.000000	0.000000	182.000000	68.000000	8.000000	-82.000000
1.290000	57.250000	76.360000	826.000000	0.000000	182.000000	68.000000	5.000000	-82.000000
1.300000	57.250000	75.790000	827.000000	0.000000	182.000000	68.000000	0.000000	-57.000000
1.310000	57.330000	75.370000	832.000000	0.000000	182.000000	68.000000	8.000000	-42.000000
1.320000	57.450000	75.260000	827.000000	0.000000	182.000000	68.000000	12.000000	-11.000000
1.330000	57.590000	75.360000	849.000000	0.000000	182.000000	68.000000	14.000000	10.000000
1.340000	57.940000	75.610000	848.000000	0.000000	182.000000	67.000000	35.000000	25.000000
1.350000	58.360000	76.160000	861.000000	0.000000	182.000000	67.000000	42.000000	55.000000
1.360000	58.820000	76.870000	861.000000	0.000000	182.000000	67.000000	46.000000	71.000000
1.370000	59.120000	77.700000	854.000000	0.000000	182.000000	67.000000	30.000000	83.000000
1.380000	59.430000	78.580000	824.000000	0.000000	182.000000	67.000000	31.000000	88.000000
1.390000	59.750000	79.570000	817.000000	0.000000	182.000000	67.000000	32.000000	99.000000
1.400000	59.940000	80.640000	796.000000	0.000000	182.000000	67.000000	19.000000	107.000000
1.410000	60.130000	81.670000	740.000000	0.000000	182.000000	67.000000	19.000000	103.000000
1.420000	60.310000	82.730000	684.000000	0.000000	182.000000	67.000000	18.000000	106.000000
1.430000	60.480000	83.840000	665.000000	0.000000	182.000000	67.000000	17.000000	111.000000
1.440000	60.580000	84.980000	656.000000	0.000000	182.000000	67.000000	10.000000	114.000000
1.450000	60.580000	85.970000	678.000000	0.000000	184.000000	66.000000	0.000000	99.000000
1.460000	60.410000	86.470000	728.000000	0.000000	184.000000	66.000000	-17.000000	50.000000
1.470000	60.270000	86.640000	748.000000	0.000000	184.000000	66.000000	-14.000000	17.000000
1.480000	60.130000	86.530000	796.000000	0.000000	184.000000	66.000000	-14.000000	-11.000000
1.490000	59.850000	85.950000	860.000000	0.000000	187.000000	66.000000	-28.000000	-58.000000
1.500000	59.560000	85.050000	903.000000	0.000000	186.000000	65.000000	-29.000000	-90.000000
1.510000	59.260000	83.690000	929.000000	0.000000	184.000000	65.000000	-30.000000	-136.000000
1.520000	59.160000	82.100000	929.000000	0.000000	184.000000	65.000000	-10.000000	-159.000000
1.530000	59.160000	80.370000	899.000000	0.000000	184.000000	66.000000	0.000000	-173.000000
1.540000	59.020000	78.610000	908.000000	0.000000	184.000000	66.000000	-14.000000	-176.000000
1.550000	58.860000	77.410000	890.000000	0.000000	182.000000	66.000000	-16.000000	-120.000000
1.560000	58.960000	76.580000	873.000000	0.000000	182.000000	66.000000	10.000000	-83.000000
1.570000	59.240000	76.220000	861.000000	0.000000	182.000000	67.000000	28.000000	-36.000000
1.580000	59.510000	76.220000	869.000000	0.000000	182.000000	67.000000	27.000000	0.000000
1.590000	59.860000	76.350000	864.000000	0.000000	182.000000	67.000000	35.000000	13.000000
1.600000	60.270000	76.830000	861.000000	0.000000	182.000000	68.000000	41.000000	48.000000
1.610000	60.680000	77.590000	842.000000	0.000000	182.000000	68.000000	41.000000	76.000000
1.620000	61.030000	78.550000	808.000000	0.000000	182.000000	68.000000	35.000000	96.000000
1.630000	61.330000	79.680000	811.000000	0.000000	182.000000	68.000000	30.000000	113.000000
1.640000	61.390000	80.430000	827.000000	0.000000	185.000000	67.000000	6.000000	75.000000
1.650000	61.290000	80.920000	824.000000	0.000000	185.000000	67.000000	-10.000000	49.000000
1.660000	61.230000	80.920000	854.000000	0.000000	185.000000	67.000000	-6.000000	0.000000
1.670000	61.230000	80.740000	905.000000	0.000000	187.000000	67.000000	0.000000	-18.000000
1.680000	61.300000	80.370000	935.000000	0.000000	187.000000	67.000000	7.000000	-37.000000
1.690000	61.300000	79.580000	941.000000	0.000000	187.000000	68.000000	0.000000	-79.000000
1.700000	61.440000	78.740000	976.000000	0.000000	187.000000	68.000000	14.000000	-84.000000
1.710000	61.610000	77.960000	974.000000	0.000000	187.000000	68.000000	17.000000	-78.000000
1.720000	61.690000	77.240000	952.000000	0.000000	187.000000	68.000000	8.000000	-72.000000
1.730000	61.780000	76.800000	933.000000	0.000000	187.000000	68.000000	9.000000	-44.000000
1.740000	61.780000	76.800000	888.000000	0.000000	190.000000	68.000000	0.000000	0.000000
1.750000	62.230000	76.710000	826.000000	0.000000	190.000000	68.000000	45.000000	-9.000000
1.760000	62.530000	77.030000	725.000000	0.000000	190.000000	68.000000	30.000000	32.000000
1.770000	62.820000	77.580000	588.000000	0.000000	190.000000	68.000000	29.000000	55.000000
1.780000	63.100000	78.290000	247.000000	0.000000	190.000000	68.000000	28.000000	71.000000
1.790000	63.100000	78.290000	0.000000	1.000000	190.000000	68.000000	0.000000	0.000000
1.800000	63.220000	80.400000	0.000000	0.000000	190.000000	68.000000	12.000000	211.000000
1.810000	63.220000	80.400000	127.000000	1.000000	190.000000	68.000000	0.000000	0.000000
1.820000	62.950000	82.030000	340.000000	0.000000	190.000000	68.000000	-27.000000	163.000000
1.830000	62.800000	82.270000	483.000000	0.000000	190.000000	68.000000	-15.000000	24.000000
1.840000	62.800000	82.270000	526.000000	0.000000	189.000000	67.000000	0.000000	0.000000
1.850000	62.870000	82.270000	537.000000	0.000000	189.000000	67.000000	7.000000	0.000000
1.860000	62.930000	82.120000	539.000000	0.000000	189.000000	67.000000	6.000000	-15.000000
1.870000	63.070000	81.820000	541.000000	0.000000	189.000000	67.000000	14.000000	-30.000000
1.880000	63.250000	81.290000	497.000000	0.000000	189.000000	67.000000	18.000000	-53.000000
1.890000	63.450000	80.570000	469.000000	0.000000	187.000000	67.000000	20.000000	-72.000000
1.900000	63.580000	79.720000	397.000000	0.000000	187.000000	67.000000	13.000000	-85.000000
1.910000	63.580000	78.720000	257.000000	0.000000	187.000000	67.000000	0.000000	-100.000000
1.920000	63.580000	77.900000	100.000000	0.000000	187.000000	67.000000	0.000000	-82.000000
1.930000	63.630000	77.200000	65.000000	0.000000	187.000000	67.000000	5.000000	-70.000000
1.940000	63.840000	76.930000	90.000000	0.000000	187.000000	67.000000	21.000000	-27.000000
1.950000	64.180000	76.930000	262.000000	0.000000	187.000000	68.000000	34.000000	0.000000
1.960000	64.430000	77.090000	366.000000	0.000000	187.000000	68.000000	25.000000	16.000000
1.970000	64.690000	77.420000	499.000000	0.000000	187.000000	68.000000	26.000000	33.000000
1.980000	64.940000	77.910000	589.000000	0.000000	187.000000	68.000000	25.000000	49.000000
1.990000	65.180000	78.510000	639.000000	0.000000	187.000000	68.000000	24.000000	60.000000
2.000000	65.350000	79.210000	691.000000	0.000000	187.000000	68.000000	17.000000	70.000000
2.010000	65.350000	79.860000	757.000000	0.000000	187.000000	68.000000	0.000000	65.000000
2.020000	65.180000	80.220000	820.000000	0.000000	187.000000	68.000000	-17.000000	36.000000
2.030000	64.930000	80.420000	855.000000	0.000000	187.000000	68.000000	-25.000000	20.000000
2.040000	64.670000	80.420000	888.000000	0.000000	187.000000	68.000000	-26.000000	0.000000
2.050000	64.410000	80.030000	906.000000	0.000000	187.000000	68.000000	-26.000000	-39.000000
2.060000	64.160000	79.480000	917.000000	0.000000	187.000000	68.000000	-25.000000	-55.000000
2.070000	64.010000	78.770000	921.000000	0.000000	188.000000	69.000000	-15.000000	-71.000000
2.080000	63.930000	78.050000	906.000000	0.000000	188.000000	69.000000	-8.000000	-72.000000
2.090000	63.930000	77.460000	893.000000	0.000000	188.000000	69.000000	0.000000	-59.000000
2.100000	64.130000	76.970000	881.000000	0.000000	188.000000	69.000000	20.000000	-49.000000
2.110000	64.380000	76.840000	869.000000	0.000000	188.000000	69.000000	25.000000	-13.000000
2.120000	64.670000	76.900000	853.000000	0.000000	188.000000	69.000000	29.000000	6.000000
2.130000	65.010000	77.100000	845.000000	0.000000	187.000000	68.000000	34.000000	20.000000
2.140000	65.390000	77.520000	818.000000	0.000000	187.000000	68.000000	38.000000	42.000000
2.150000	65.710000	78.220000	773.000000	0.000000	187.000000	68.000000	32.000000	70.000000
2.160000	65.980000	79.110000	731.000000	0.000000	187.000000	68.000000	27.000000	89.000000
2.170000	66.160000	80.080000	736.000000	0.000000	187.000000	68.000000	18.000000	97.000000
2.180000	66.160000	80.680000	748.000000	0.000000	187.000000	68.000000	0.000000	60.000000
2.190000	66.110000	81.040000	776.000000	0.000000	187.000000	68.000000	-5.000000	36.000000
2.200000	66.030000	81.040000	814.000000	0.000000	187.000000	68.000000	-8.000000	0.000000
