t	x	y	pressure	penup	azimuth	inclination	v_x	v_y
0.000000	65.610000	51.160000	287.000000	1.000000	183.000000	53.000000	0.000000	0.000000
0.010000	64.680000	50.780000	513.000000	0.000000	183.000000	53.000000	-93.000000	-38.000000
0.020000	64.460000	50.780000	619.000000	0.000000	183.000000	53.000000	-22.000000	0.000000
0.030000	64.460000	50.720000	672.000000	0.000000	184.000000	53.000000	0.000000	-6.000000
0.040000	64.580000	50.670000	758.000000	0.000000	184.000000	53.000000	12.000000	-5.000000
0.050000	64.790000	50.620000	821.000000	0.000000	185.000000	53.000000	21.000000	-5.000000
0.060000	65.580000	50.490000	870.000000	0.000000	185.000000	53.000000	79.000000	-13.000000
0.070000	67.140000	50.490000	918.000000	0.000000	187.000000	54.000000	156.000000	0.000000
0.080000	69.200000	50.580000	942.000000	0.000000	187.000000	54.000000	206.000000	9.000000
0.090000	71.320000	50.750000	933.000000	0.000000	187.000000	54.000000	212.000000	17.000000
0.100000	72.950000	51.030000	940.000000	0.000000	188.000000	54.000000	163.000000	28.000000
0.110000	74.250000	51.380000	965.000000	0.000000	188.000000	54.000000	130.000000	35.000000
0.120000	74.400000	51.760000	956.000000	0.000000	190.000000	55.000000	15.000000	38.000000
0.130000	73.650000	52.330000	924.000000	0.000000	191.000000	54.000000	-75.000000	57.000000
0.140000	72.310000	53.020000	899.000000	0.000000	191.000000	54.000000	-134.000000	69.000000
0.150000	69.690000	53.470000	899.000000	0.000000	191.000000	54.000000	-262.000000	45.000000
0.160000	67.020000	53.860000	933.000000	0.000000	193.000000	54.000000	-267.000000	39.000000
0.170000	64.310000	53.920000	939.000000	0.000000	192.000000	53.000000	-271.000000	6.000000
0.180000	62.900000	53.770000	947.000000	0.000000	191.000000	53.000000	-141.000000	-15.000000
0.190000	62.630000	53.220000	973.000000	0.000000	191.000000	53.000000	-27.000000	-55.000000
0.200000	63.110000	52.290000	1002.000000	0.000000	191.000000	53.000000	48.000000	-93.000000
0.210000	64.450000	51.110000	1023.000000	0.000000	191.000000	53.000000	134.000000	-118.000000
0.220000	66.420000	49.620000	1015.000000	0.000000	190.000000	54.000000	197.000000	-149.000000
0.230000	68.810000	48.080000	991.000000	0.000000	190.000000	54.000000	239.000000	-154.000000
0.240000	70.470000	46.790000	941.000000	0.000000	190.000000	54.000000	166.000000	-129.000000
0.250000	71.130000	45.670000	863.000000	0.000000	190.000000	55.000000	66.000000	-112.000000
0.260000	71.130000	44.810000	823.000000	0.000000	190.000000	55.000000	0.000000	-86.000000
0.270000	70.080000	44.230000	805.000000	0.000000	190.000000	56.000000	-105.000000	-58.000000
0.280000	67.820000	43.850000	826.000000	0.000000	189.000000	56.000000	-226.000000	-38.000000
0.290000	64.750000	43.930000	872.000000	0.000000	189.000000	57.000000	-307.000000	8.000000
0.300000	61.100000	44.220000	896.000000	0.000000	189.000000	57.000000	-365.000000	29.000000
0.310000	57.580000	44.650000	929.000000	0.000000	188.000000	58.000000	-352.000000	43.000000
0.320000	54.150000	45.160000	937.000000	0.000000	188.000000	58.000000	-343.000000	51.000000
0.330000	51.460000	45.660000	958.000000	0.000000	186.000000	58.000000	-269.000000	50.000000
0.340000	50.320000	46.150000	984.000000	0.000000	185.000000	59.000000	-114.000000	49.000000
0.350000	50.210000	46.320000	991.000000	0.000000	185.000000	59.000000	-11.000000	17.000000
0.360000	51.630000	46.550000	981.000000	0.000000	183.000000	59.000000	142.000000	23.000000
0.370000	55.000000	46.820000	1008.000000	0.000000	183.000000	59.000000	337.000000	27.000000
0.380000	59.660000	46.720000	1023.000000	0.000000	183.000000	59.000000	466.000000	-10.000000
0.390000	65.010000	46.590000	1023.000000	0.000000	185.000000	59.000000	535.000000	-13.000000
0.400000	69.210000	46.350000	1006.000000	0.000000	185.000000	59.000000	420.000000	-24.000000
0.410000	72.640000	46.040000	987.000000	0.000000	187.000000	59.000000	343.000000	-31.000000
0.420000	74.280000	45.910000	976.000000	0.000000	187.000000	59.000000	164.000000	-13.000000
0.430000	74.360000	45.970000	933.000000	0.000000	188.000000	59.000000	8.000000	6.000000
0.440000	73.400000	46.170000	926.000000	0.000000	190.000000	59.000000	-96.000000	20.000000
0.450000	70.750000	46.840000	947.000000	0.000000	190.000000	59.000000	-265.000000	67.000000
0.460000	66.820000	47.870000	1023.000000	0.000000	192.000000	58.000000	-393.000000	103.000000
0.470000	62.040000	49.130000	1023.000000	0.000000	190.000000	59.000000	-478.000000	126.000000
0.480000	57.400000	50.260000	1023.000000	0.000000	190.000000	59.000000	-464.000000	113.000000
0.490000	53.550000	51.350000	1023.000000	0.000000	190.000000	58.000000	-385.000000	109.000000
0.500000	50.220000	52.020000	1023.000000	0.000000	188.000000	58.000000	-333.000000	67.000000
0.510000	48.710000	52.420000	1017.000000	0.000000	186.000000	57.000000	-151.000000	40.000000
0.520000	48.710000	52.420000	944.000000	0.000000	186.000000	56.000000	0.000000	0.000000
0.530000	49.740000	52.230000	768.000000	0.000000	184.000000	55.000000	103.000000	-19.000000
0.540000	52.640000	51.830000	70.000000	0.000000	184.000000	55.000000	290.000000	-40.000000
0.550000	52.640000	51.830000	0.000000	1.000000	184.000000	55.000000	0.000000	0.000000
0.560000	60.890000	50.330000	0.000000	0.000000	184.000000	55.000000	825.000000	-150.000000
0.570000	64.780000	49.550000	0.000000	0.000000	184.000000	55.000000	389.000000	-78.000000
0.580000	67.630000	48.740000	0.000000	0.000000	184.000000	55.000000	285.000000	-81.000000
0.590000	69.780000	47.990000	0.000000	0.000000	184.000000	55.000000	215.000000	-75.000000
0.600000	70.860000	47.590000	0.000000	0.000000	186.000000	55.000000	108.000000	-40.000000
0.610000	71.070000	47.390000	0.000000	0.000000	186.000000	55.000000	21.000000	-20.000000
0.620000	70.690000	47.390000	0.000000	0.000000	185.000000	54.000000	-38.000000	0.000000
0.630000	69.870000	47.510000	0.000000	0.000000	187.000000	53.000000	-82.000000	12.000000
0.640000	68.570000	47.760000	0.000000	0.000000	186.000000	52.000000	-130.000000	25.000000
0.650000	66.940000	48.130000	0.000000	0.000000	186.000000	50.000000	-163.000000	37.000000
0.660000	65.070000	48.460000	0.000000	0.000000	186.000000	49.000000	-187.000000	33.000000
0.670000	63.050000	48.720000	0.000000	0.000000	184.000000	48.000000	-202.000000	26.000000
0.680000	60.940000	48.800000	0.000000	0.000000	184.000000	48.000000	-211.000000	8.000000
0.690000	59.430000	48.800000	0.000000	0.000000	183.000000	49.000000	-151.000000	0.000000
0.700000	58.590000	48.710000	0.000000	0.000000	184.000000	51.000000	-84.000000	-9.000000
0.710000	58.200000	48.660000	0.000000	0.000000	183.000000	52.000000	-39.000000	-5.000000
0.720000	58.290000	48.660000	0.000000	0.000000	183.000000	54.000000	9.000000	0.000000
0.730000	58.490000	48.720000	0.000000	0.000000	181.000000	56.000000	20.000000	6.000000
0.740000	58.770000	48.720000	0.000000	0.000000	180.000000	57.000000	28.000000	0.000000
0.750000	59.120000	48.820000	0.000000	0.000000	180.000000	58.000000	35.000000	10.000000
0.760000	59.450000	49.020000	0.000000	0.000000	180.000000	59.000000	33.000000	20.000000
0.770000	59.750000	49.080000	0.000000	0.000000	180.000000	59.000000	30.000000	6.000000
0.780000	60.030000	49.130000	0.000000	0.000000	180.000000	58.000000	28.000000	5.000000
0.790000	60.240000	49.190000	0.000000	0.000000	180.000000	58.000000	21.000000	6.000000
0.800000	60.240000	49.190000	0.000000	0.000000	182.000000	57.000000	0.000000	0.000000
0.810000	60.240000	49.190000	173.000000	1.000000	182.000000	57.000000	0.000000	0.000000
0.820000	59.900000	49.690000	291.000000	0.000000	182.000000	57.000000	-34.000000	50.000000
0.830000	59.590000	49.880000	389.000000	0.000000	181.000000	56.000000	-31.000000	19.000000
0.840000	59.300000	49.880000	521.000000	0.000000	183.000000	56.000000	-29.000000	0.000000
0.850000	59.040000	49.730000	630.000000	0.000000	183.000000	56.000000	-26.000000	-15.000000
0.860000	58.780000	49.360000	697.000000	0.000000	183.000000	55.000000	-26.000000	-37.000000
0.870000	58.530000	48.840000	763.000000	0.000000	183.000000	55.000000	-25.000000	-52.000000
0.880000	58.530000	48.190000	802.000000	0.000000	181.000000	55.000000	0.000000	-65.000000
0.890000	58.720000	47.660000	830.000000	0.000000	181.000000	56.000000	19.000000	-53.000000
0.900000	59.240000	47.300000	860.000000	0.000000	181.000000	56.000000	52.000000	-36.000000
0.910000	59.990000	47.010000	900.000000	0.000000	180.000000	56.000000	75.000000	-29.000000
0.920000	60.890000	47.060000	921.000000	0.000000	180.000000	57.000000	90.000000	5.000000
0.930000	61.700000	47.330000	933.000000	0.000000	180.000000	57.000000	81.000000	27.000000
0.940000	62.210000	47.740000	934.000000	0.000000	180.000000	57.000000	51.000000	41.000000
0.950000	62.510000	48.280000	923.000000	0.000000	180.000000	57.000000	30.000000	54.000000
0.960000	62.630000	48.890000	914.000000	0.000000	180.000000	57.000000	12.000000	61.000000
0.970000	62.680000	49.540000	915.000000	0.000000	180.000000	57.000000	5.000000	65.000000
0.980000	62.680000	49.880000	920.000000	0.000000	180.000000	57.000000	0.000000	34.000000
0.990000	62.680000	49.970000	915.000000	0.000000	180.000000	57.000000	0.000000	9.000000
1.000000	62.680000	49.900000	917.000000	0.000000	181.000000	56.000000	0.000000	-7.000000
1.010000	62.570000	49.690000	917.000000	0.000000	181.000000	56.000000	-11.000000	-21.000000
1.020000	62.480000	49.340000	915.000000	0.000000	181.000000	56.000000	-9.000000	-35.000000
1.030000	62.340000	48.890000	920.000000	0.000000	181.000000	55.000000	-14.000000	-45.000000
1.040000	62.460000	48.440000	921.000000	0.000000	181.000000	55.000000	12.000000	-45.000000
1.050000	62.750000	48.150000	938.000000	0.000000	181.000000	55.000000	29.000000	-29.000000
1.060000	63.230000	47.970000	933.000000	0.000000	181.000000	55.000000	48.000000	-18.000000
1.070000	63.910000	48.120000	947.000000	0.000000	181.000000	56.000000	68.000000	15.000000
1.080000	64.720000	48.360000	962.000000	0.000000	181.000000	56.000000	81.000000	24.000000
1.090000	65.230000	48.670000	967.000000	0.000000	181.000000	56.000000	51.000000	31.000000
1.100000	65.450000	48.940000	973.000000	0.000000	181.000000	56.000000	22.000000	27.000000
1.110000	65.450000	49.150000	973.000000	0.000000	181.000000	56.000000	0.000000	21.000000
1.120000	65.450000	49.150000	973.000000	0.000000	181.000000	56.000000	0.000000	0.000000
1.130000	65.450000	49.150000	973.000000	0.000000	181.000000	56.000000	0.000000	0.000000
1.140000	65.450000	49.150000	974.000000	0.000000	181.000000	56.000000	0.000000	0.000000
1.150000	65.450000	48.640000	988.000000	0.000000	183.000000	56.000000	0.000000	-51.000000
1.160000	65.760000	48.150000	988.000000	0.000000	183.000000	56.000000	31.000000	-49.000000
1.170000	66.270000	47.560000	1023.000000	0.000000	183.000000	56.000000	51.000000	-59.000000
1.180000	67.280000	47.190000	1023.000000	0.000000	183.000000	56.000000	101.000000	-37.000000
1.190000	68.680000	47.010000	1023.000000	0.000000	183.000000	56.000000	140.000000	-18.000000
1.200000	70.350000	46.960000	1023.000000	0.000000	185.000000	57.000000	167.000000	-5.000000
1.210000	71.080000	47.090000	939.000000	0.000000	185.000000	57.000000	73.000000	13.000000
1.220000	71.020000	47.280000	595.000000	0.000000	185.000000	57.000000	-6.000000	19.000000
1.230000	71.020000	47.280000	0.000000	1.000000	185.000000	57.000000	0.000000	0.000000
1.240000	69.070000	47.520000	0.000000	0.000000	185.000000	57.000000	-195.000000	24.000000
1.250000	67.690000	47.520000	0.000000	0.000000	183.000000	57.000000	-138.000000	0.000000
1.260000	66.880000	47.520000	0.000000	0.000000	183.000000	57.000000	-81.000000	0.000000
1.270000	66.460000	47.520000	0.000000	0.000000	183.000000	57.000000	-42.000000	0.000000
1.280000	66.390000	47.590000	0.000000	0.000000	182.000000	57.000000	-7.000000	7.000000
1.290000	66.560000	47.640000	0.000000	0.000000	182.000000	57.000000	17.000000	5.000000
1.300000	66.880000	47.640000	0.000000	0.000000	181.000000	56.000000	32.000000	0.000000
1.310000	67.240000	47.510000	0.000000	0.000000	181.000000	56.000000	36.000000	-13.000000
1.320000	67.520000	47.360000	0.000000	0.000000	181.000000	55.000000	28.000000	-15.000000
1.330000	67.700000	47.230000	0.000000	0.000000	181.000000	55.000000	18.000000	-13.000000
1.340000	67.580000	47.230000	0.000000	0.000000	183.000000	54.000000	-12.000000	0.000000
1.350000	67.270000	47.230000	0.000000	0.000000	183.000000	54.000000	-31.000000	0.000000
1.360000	66.720000	47.400000	0.000000	0.000000	183.000000	54.000000	-55.000000	17.000000
1.370000	66.140000	47.610000	0.000000	0.000000	183.000000	55.000000	-58.000000	21.000000
1.380000	65.520000	47.850000	0.000000	0.000000	183.000000	55.000000	-62.000000	24.000000
1.390000	64.990000	48.160000	0.000000	0.000000	183.000000	55.000000	-53.000000	31.000000
1.400000	64.500000	48.470000	0.000000	0.000000	183.000000	56.000000	-49.000000	31.000000
1.410000	64.270000	48.800000	0.000000	0.000000	183.000000	56.000000	-23.000000	33.000000
1.420000	64.270000	49.240000	0.000000	0.000000	183.000000	56.000000	0.000000	44.000000
1.430000	64.390000	49.670000	0.000000	0.000000	183.000000	56.000000	12.000000	43.000000
1.440000	64.660000	50.130000	0.000000	0.000000	183.000000	56.000000	27.000000	46.000000
1.450000	65.150000	50.670000	0.000000	0.000000	184.000000	56.000000	49.000000	54.000000
1.460000	65.780000	51.270000	0.000000	0.000000	184.000000	55.000000	63.000000	60.000000
1.470000	65.780000	51.270000	371.000000	1.000000	186.000000	55.000000	0.000000	0.000000
1.480000	67.130000	52.260000	538.000000	0.000000	187.000000	54.000000	135.000000	99.000000
1.490000	67.330000	52.410000	564.000000	0.000000	187.000000	54.000000	20.000000	15.000000
1.500000	67.240000	52.410000	606.000000	0.000000	188.000000	54.000000	-9.000000	0.000000
1.510000	66.970000	52.120000	670.000000	0.000000	188.000000	53.000000	-27.000000	-29.000000
1.520000	66.140000	51.280000	730.000000	0.000000	188.000000	53.000000	-83.000000	-84.000000
1.530000	64.940000	50.080000	800.000000	0.000000	189.000000	53.000000	-120.000000	-120.000000
1.540000	63.830000	48.360000	855.000000	0.000000	188.000000	54.000000	-111.000000	-172.000000
1.550000	62.950000	46.850000	870.000000	0.000000	188.000000	54.000000	-88.000000	-151.000000
1.560000	62.230000	45.470000	897.000000	0.000000	187.000000	55.000000	-72.000000	-138.000000
1.570000	61.800000	44.370000	899.000000	0.000000	186.000000	56.000000	-43.000000	-110.000000
1.580000	61.690000	43.720000	908.000000	0.000000	184.000000	56.000000	-11.000000	-65.000000
1.590000	61.800000	43.360000	935.000000	0.000000	183.000000	57.000000	11.000000	-36.000000
1.600000	61.800000	43.300000	897.000000	0.000000	183.000000	58.000000	0.000000	-6.000000
1.610000	61.860000	43.750000	749.000000	0.000000	182.000000	58.000000	6.000000	45.000000
1.620000	62.130000	44.550000	89.000000	0.000000	182.000000	59.000000	27.000000	80.000000
1.630000	62.130000	44.550000	0.000000	1.000000	182.000000	59.000000	0.000000	0.000000
1.640000	63.390000	46.910000	0.000000	0.000000	182.000000	59.000000	126.000000	236.000000
1.650000	64.210000	47.840000	0.000000	0.000000	182.000000	59.000000	82.000000	93.000000
1.660000	65.040000	48.620000	0.000000	0.000000	182.000000	59.000000	83.000000	78.000000
1.670000	65.760000	49.450000	0.000000	0.000000	182.000000	58.000000	72.000000	83.000000
1.680000	66.360000	50.250000	0.000000	0.000000	182.000000	58.000000	60.000000	80.000000
1.690000	66.880000	50.970000	0.000000	0.000000	182.000000	58.000000	52.000000	72.000000
1.700000	67.300000	51.790000	0.000000	0.000000	182.000000	57.000000	42.000000	82.000000
1.710000	67.660000	52.660000	0.000000	0.000000	181.000000	56.000000	36.000000	87.000000
1.720000	67.920000	53.620000	0.000000	0.000000	181.000000	55.000000	26.000000	96.000000
1.730000	68.100000	54.100000	0.000000	0.000000	183.000000	54.000000	18.000000	48.000000
1.740000	68.020000	54.260000	0.000000	0.000000	183.000000	54.000000	-8.000000	16.000000
1.750000	68.020000	54.260000	512.000000	1.000000	183.000000	53.000000	0.000000	0.000000
1.760000	67.390000	53.610000	567.000000	0.000000	183.000000	53.000000	-63.000000	-65.000000
1.770000	67.190000	54.160000	577.000000	0.000000	183.000000	53.000000	-20.000000	55.000000
1.780000	67.100000	53.910000	638.000000	0.000000	183.000000	53.000000	-9.000000	-25.000000
1.790000	66.870000	53.670000	713.000000	0.000000	184.000000	53.000000	-23.000000	-24.000000
1.800000	66.870000	53.430000	768.000000	0.000000	184.000000	53.000000	0.000000	-24.000000
1.810000	66.960000	53.280000	826.000000	0.000000	184.000000	53.000000	9.000000	-15.000000
1.820000	67.200000	53.200000	855.000000	0.000000	185.000000	53.000000	24.000000	-8.000000
1.830000	67.940000	53.200000	896.000000	0.000000	185.000000	53.000000	74.000000	0.000000
1.840000	69.000000	53.410000	908.000000	0.000000	185.000000	53.000000	106.000000	21.000000
1.850000	69.640000	53.770000	952.000000	0.000000	185.000000	53.000000	64.000000	36.000000
1.860000	69.700000	54.210000	934.000000	0.000000	185.000000	53.000000	6.000000	44.000000
1.870000	69.360000	54.560000	941.000000	0.000000	185.000000	54.000000	-34.000000	35.000000
1.880000	68.540000	54.840000	921.000000	0.000000	185.000000	54.000000	-82.000000	28.000000
1.890000	67.610000	54.840000	872.000000	0.000000	185.000000	54.000000	-93.000000	0.000000
1.900000	66.610000	54.720000	750.000000	0.000000	185.000000	54.000000	-100.000000	-12.000000
1.910000	66.050000	54.520000	530.000000	0.000000	185.000000	54.000000	-56.000000	-20.000000
