t	x	y	pressure	penup	azimuth	inclination	v_x	v_y
0.000000	27.750000	68.050000	412.000000	1.000000	182.000000	59.000000	0.000000	0.000000
0.010000	27.410000	67.810000	537.000000	0.000000	182.000000	59.000000	-34.000000	-24.000000
0.020000	27.320000	67.810000	616.000000	0.000000	180.000000	59.000000	-9.000000	0.000000
0.030000	27.320000	67.750000	707.000000	0.000000	180.000000	59.000000	0.000000	-6.000000
0.040000	27.260000	67.750000	770.000000	0.000000	180.000000	58.000000	-6.000000	0.000000
0.050000	27.360000	67.660000	824.000000	0.000000	180.000000	58.000000	10.000000	-9.000000
0.060000	27.540000	67.600000	878.000000	0.000000	180.000000	58.000000	18.000000	-6.000000
0.070000	28.390000	67.550000	908.000000	0.000000	180.000000	58.000000	85.000000	-5.000000
0.080000	29.890000	67.640000	933.000000	0.000000	180.000000	58.000000	150.000000	9.000000
0.090000	31.810000	67.820000	950.000000	0.000000	180.000000	58.000000	192.000000	18.000000
0.100000	34.170000	68.230000	949.000000	0.000000	182.000000	58.000000	236.000000	41.000000
0.110000	36.000000	68.640000	968.000000	0.000000	182.000000	58.000000	183.000000	41.000000
0.120000	37.480000	69.040000	995.000000	0.000000	182.000000	58.000000	148.000000	40.000000
0.130000	37.930000	69.440000	956.000000	0.000000	183.000000	57.000000	45.000000	40.000000
0.140000	37.480000	69.880000	915.000000	0.000000	183.000000	56.000000	-45.000000	44.000000
0.150000	36.430000	70.360000	882.000000	0.000000	183.000000	56.000000	-105.000000	48.000000
0.160000	34.150000	70.740000	887.000000	0.000000	184.000000	55.000000	-228.000000	38.000000
0.170000	31.480000	70.850000	909.000000	0.000000	184.000000	55.000000	-267.000000	11.000000
0.180000	28.560000	70.770000	933.000000	0.000000	186.000000	55.000000	-292.000000	-8.000000
0.190000	26.580000	70.500000	951.000000	0.000000	185.000000	54.000000	-198.000000	-27.000000
0.200000	25.590000	69.990000	964.000000	0.000000	186.000000	55.000000	-99.000000	-51.000000
0.210000	25.260000	69.310000	988.000000	0.000000	186.000000	55.000000	-33.000000	-68.000000
0.220000	25.450000	68.280000	1023.000000	0.000000	187.000000	55.000000	19.000000	-103.000000
0.230000	26.260000	67.240000	1023.000000	0.000000	187.000000	56.000000	81.000000	-104.000000
0.240000	27.480000	66.200000	1023.000000	0.000000	188.000000	57.000000	122.000000	-104.000000
0.250000	28.580000	65.320000	1009.000000	0.000000	188.000000	57.000000	110.000000	-88.000000
0.260000	29.230000	64.550000	983.000000	0.000000	186.000000	58.000000	65.000000	-77.000000
0.270000	29.570000	63.930000	948.000000	0.000000	186.000000	58.000000	34.000000	-62.000000
0.280000	29.380000	63.310000	923.000000	0.000000	185.000000	58.000000	-19.000000	-62.000000
0.290000	28.130000	62.700000	903.000000	0.000000	185.000000	58.000000	-125.000000	-61.000000
0.300000	26.180000	63.090000	933.000000	0.000000	183.000000	58.000000	-195.000000	39.000000
0.310000	23.440000	63.240000	965.000000	0.000000	183.000000	58.000000	-274.000000	15.000000
0.320000	20.330000	63.240000	991.000000	0.000000	182.000000	58.000000	-311.000000	0.000000
0.330000	16.960000	63.480000	997.000000	0.000000	182.000000	58.000000	-337.000000	24.000000
0.340000	14.050000	63.840000	1023.000000	0.000000	182.000000	58.000000	-291.000000	36.000000
0.350000	12.010000	64.270000	1023.000000	0.000000	182.000000	59.000000	-204.000000	43.000000
0.360000	10.560000	64.640000	1023.000000	0.000000	182.000000	59.000000	-145.000000	37.000000
0.370000	10.450000	64.890000	1023.000000	0.000000	180.000000	59.000000	-11.000000	25.000000
0.380000	11.320000	65.050000	1023.000000	0.000000	180.000000	60.000000	87.000000	16.000000
0.390000	12.840000	65.350000	1023.000000	0.000000	180.000000	60.000000	152.000000	30.000000
0.400000	15.630000	65.630000	1023.000000	0.000000	180.000000	61.000000	279.000000	28.000000
0.410000	19.710000	65.900000	1023.000000	0.000000	180.000000	61.000000	408.000000	27.000000
0.420000	24.640000	66.210000	1023.000000	0.000000	180.000000	61.000000	493.000000	31.000000
0.430000	29.520000	66.560000	1023.000000	0.000000	180.000000	61.000000	488.000000	35.000000
0.440000	34.170000	66.560000	1014.000000	0.000000	182.000000	61.000000	465.000000	0.000000
0.450000	36.880000	66.460000	968.000000	0.000000	182.000000	61.000000	271.000000	-10.000000
0.460000	38.360000	66.300000	908.000000	0.000000	182.000000	61.000000	148.000000	-16.000000
0.470000	37.810000	66.300000	906.000000	0.000000	183.000000	60.000000	-55.000000	0.000000
0.480000	35.030000	66.370000	958.000000	0.000000	183.000000	60.000000	-278.000000	7.000000
0.490000	30.770000	66.570000	1023.000000	0.000000	183.000000	60.000000	-426.000000	20.000000
0.500000	25.860000	66.880000	1023.000000	0.000000	183.000000	60.000000	-491.000000	31.000000
0.510000	21.640000	67.270000	1023.000000	0.000000	183.000000	60.000000	-422.000000	39.000000
0.520000	17.890000	67.730000	1023.000000	0.000000	182.000000	60.000000	-375.000000	46.000000
0.530000	15.210000	68.140000	1023.000000	0.000000	182.000000	60.000000	-268.000000	41.000000
0.540000	13.870000	68.490000	1002.000000	0.000000	182.000000	61.000000	-134.000000	35.000000
0.550000	13.430000	68.820000	823.000000	0.000000	182.000000	61.000000	-44.000000	33.000000
0.560000	13.920000	68.930000	514.000000	0.000000	182.000000	61.000000	49.000000	11.000000
0.570000	15.800000	68.780000	1.000000	1.000000	184.000000	61.000000	0.000000	0.000000
0.580000	15.800000	68.780000	0.000000	0.000000	184.000000	61.000000	0.000000	0.000000
0.590000	21.720000	68.150000	0.000000	0.000000	183.000000	60.000000	592.000000	-63.000000
0.600000	24.800000	67.810000	0.000000	0.000000	182.000000	60.000000	308.000000	-34.000000
0.610000	27.580000	67.420000	0.000000	0.000000	182.000000	60.000000	278.000000	-39.000000
0.620000	30.170000	67.110000	0.000000	0.000000	182.000000	59.000000	259.000000	-31.000000
0.630000	32.000000	66.850000	0.000000	0.000000	180.000000	59.000000	183.000000	-26.000000
0.640000	32.930000	66.690000	0.000000	0.000000	180.000000	58.000000	93.000000	-16.000000
0.650000	33.250000	66.690000	0.000000	0.000000	180.000000	56.000000	32.000000	0.000000
0.660000	32.710000	66.690000	0.000000	0.000000	180.000000	55.000000	-54.000000	0.000000
0.670000	31.450000	66.740000	0.000000	0.000000	179.000000	53.000000	-126.000000	5.000000
0.680000	29.720000	66.740000	0.000000	0.000000	178.000000	51.000000	-173.000000	0.000000
0.690000	27.820000	66.690000	0.000000	0.000000	176.000000	50.000000	-190.000000	-5.000000
0.700000	25.870000	66.570000	0.000000	0.000000	176.000000	50.000000	-195.000000	-12.000000
0.710000	23.890000	66.410000	0.000000	0.000000	175.000000	49.000000	-198.000000	-16.000000
0.720000	22.560000	66.230000	0.000000	0.000000	175.000000	50.000000	-133.000000	-18.000000
0.730000	21.350000	66.280000	0.000000	0.000000	175.000000	51.000000	-121.000000	5.000000
0.740000	20.230000	66.360000	0.000000	0.000000	176.000000	52.000000	-112.000000	8.000000
0.750000	19.370000	66.470000	0.000000	0.000000	176.000000	54.000000	-86.000000	11.000000
0.760000	18.890000	66.560000	0.000000	0.000000	177.000000	55.000000	-48.000000	9.000000
0.770000	18.660000	66.690000	0.000000	0.000000	179.000000	56.000000	-23.000000	13.000000
0.780000	18.760000	66.840000	0.000000	0.000000	180.000000	58.000000	10.000000	15.000000
0.790000	19.120000	67.040000	0.000000	0.000000	180.000000	58.000000	36.000000	20.000000
0.800000	19.660000	67.250000	0.000000	0.000000	180.000000	59.000000	54.000000	21.000000
0.810000	20.120000	67.480000	0.000000	0.000000	180.000000	59.000000	46.000000	23.000000
0.820000	20.430000	67.670000	0.000000	0.000000	180.000000	59.000000	31.000000	19.000000
0.830000	20.430000	67.670000	44.000000	1.000000	180.000000	60.000000	0.000000	0.000000
0.840000	20.700000	68.000000	139.000000	0.000000	180.000000	60.000000	27.000000	33.000000
0.850000	20.640000	68.160000	270.000000	0.000000	180.000000	60.000000	-6.000000	16.000000
0.860000	20.490000	68.290000	396.000000	0.000000	182.000000	60.000000	-15.000000	13.000000
0.870000	20.330000	68.370000	514.000000	0.000000	182.000000	60.000000	-16.000000	8.000000
0.880000	20.180000	68.370000	599.000000	0.000000	182.000000	60.000000	-15.000000	0.000000
0.890000	20.000000	68.200000	725.000000	0.000000	182.000000	60.000000	-18.000000	-17.000000
0.900000	19.750000	67.860000	791.000000	0.000000	182.000000	60.000000	-25.000000	-34.000000
0.910000	19.580000	67.310000	799.000000	0.000000	182.000000	60.000000	-17.000000	-55.000000
0.920000	19.470000	66.840000	826.000000	0.000000	182.000000	60.000000	-11.000000	-47.000000
0.930000	19.790000	66.430000	867.000000	0.000000	182.000000	60.000000	32.000000	-41.000000
0.940000	20.510000	66.150000	897.000000	0.000000	182.000000	61.000000	72.000000	-28.000000
0.950000	21.490000	66.150000	930.000000	0.000000	182.000000	61.000000	98.000000	0.000000
0.960000	22.570000	66.240000	948.000000	0.000000	182.000000	61.000000	108.000000	9.000000
0.970000	23.510000	66.640000	946.000000	0.000000	182.000000	62.000000	94.000000	40.000000
0.980000	23.970000	67.030000	950.000000	0.000000	182.000000	62.000000	46.000000	39.000000
0.990000	24.140000	67.310000	953.000000	0.000000	182.000000	62.000000	17.000000	28.000000
1.000000	24.140000	67.510000	956.000000	0.000000	182.000000	62.000000	0.000000	20.000000
1.010000	24.080000	67.510000	946.000000	0.000000	182.000000	62.000000	-6.000000	0.000000
1.020000	23.970000	67.510000	949.000000	0.000000	182.000000	61.000000	-11.000000	0.000000
1.030000	23.770000	67.180000	944.000000	0.000000	182.000000	61.000000	-20.000000	-33.000000
1.040000	23.510000	66.720000	933.000000	0.000000	182.000000	61.000000	-26.000000	-46.000000
1.050000	23.560000	66.440000	947.000000	0.000000	182.000000	61.000000	5.000000	-28.000000
1.060000	23.810000	66.160000	938.000000	0.000000	182.000000	61.000000	25.000000	-28.000000
1.070000	24.470000	66.070000	939.000000	0.000000	182.000000	61.000000	66.000000	-9.000000
1.080000	25.490000	66.120000	950.000000	0.000000	182.000000	61.000000	102.000000	5.000000
1.090000	26.750000	66.410000	943.000000	0.000000	182.000000	61.000000	126.000000	29.000000
1.100000	27.580000	66.680000	959.000000	0.000000	180.000000	61.000000	83.000000	27.000000
1.110000	27.900000	66.890000	967.000000	0.000000	180.000000	61.000000	32.000000	21.000000
1.120000	27.900000	67.030000	973.000000	0.000000	180.000000	61.000000	0.000000	14.000000
1.130000	27.830000	67.090000	974.000000	0.000000	178.000000	61.000000	-7.000000	6.000000
1.140000	27.770000	67.090000	973.000000	0.000000	178.000000	61.000000	-6.000000	0.000000
1.150000	27.690000	67.090000	976.000000	0.000000	176.000000	61.000000	-8.000000	0.000000
1.160000	27.690000	67.030000	968.000000	0.000000	175.000000	61.000000	0.000000	-6.000000
1.170000	27.690000	67.030000	965.000000	0.000000	175.000000	61.000000	0.000000	0.000000
1.180000	27.800000	67.030000	968.000000	0.000000	175.000000	61.000000	11.000000	0.000000
1.190000	28.180000	66.940000	986.000000	0.000000	173.000000	61.000000	38.000000	-9.000000
1.200000	28.750000	66.940000	997.000000	0.000000	173.000000	61.000000	57.000000	0.000000
1.210000	29.680000	66.940000	1023.000000	0.000000	173.000000	61.000000	93.000000	0.000000
1.220000	30.640000	66.840000	1023.000000	0.000000	173.000000	61.000000	96.000000	-10.000000
1.230000	31.290000	66.570000	1023.000000	0.000000	173.000000	61.000000	65.000000	-27.000000
1.240000	31.710000	66.200000	1023.000000	0.000000	175.000000	61.000000	42.000000	-37.000000
1.250000	31.990000	65.880000	1023.000000	0.000000	175.000000	61.000000	28.000000	-32.000000
1.260000	32.240000	65.530000	934.000000	0.000000	175.000000	61.000000	25.000000	-35.000000
1.270000	32.470000	65.330000	659.000000	0.000000	177.000000	60.000000	23.000000	-20.000000
1.280000	32.470000	65.330000	0.000000	1.000000	177.000000	60.000000	0.000000	0.000000
1.290000	32.770000	65.530000	0.000000	0.000000	177.000000	60.000000	30.000000	20.000000
1.300000	32.770000	66.030000	0.000000	0.000000	177.000000	60.000000	0.000000	50.000000
1.310000	32.560000	66.680000	0.000000	0.000000	177.000000	60.000000	-21.000000	65.000000
1.320000	32.140000	67.300000	0.000000	0.000000	177.000000	60.000000	-42.000000	62.000000
1.330000	31.580000	67.760000	0.000000	0.000000	177.000000	59.000000	-56.000000	46.000000
1.340000	30.880000	68.110000	0.000000	0.000000	175.000000	59.000000	-70.000000	35.000000
1.350000	30.100000	68.200000	0.000000	0.000000	175.000000	58.000000	-78.000000	9.000000
1.360000	29.270000	68.120000	0.000000	0.000000	174.000000	57.000000	-83.000000	-8.000000
1.370000	28.370000	67.920000	0.000000	0.000000	174.000000	57.000000	-90.000000	-20.000000
1.380000	27.480000	67.710000	0.000000	0.000000	174.000000	57.000000	-89.000000	-21.000000
1.390000	26.590000	67.600000	0.000000	0.000000	173.000000	56.000000	-89.000000	-11.000000
1.400000	25.990000	67.550000	0.000000	0.000000	174.000000	57.000000	-60.000000	-5.000000
1.410000	25.660000	67.500000	0.000000	0.000000	174.000000	57.000000	-33.000000	-5.000000
1.420000	25.520000	67.730000	0.000000	0.000000	174.000000	58.000000	-14.000000	23.000000
1.430000	25.520000	68.140000	0.000000	0.000000	175.000000	58.000000	0.000000	41.000000
1.440000	25.810000	68.540000	0.000000	0.000000	175.000000	59.000000	29.000000	40.000000
1.450000	26.320000	68.980000	0.000000	0.000000	177.000000	59.000000	51.000000	44.000000
1.460000	27.120000	69.450000	0.000000	0.000000	178.000000	59.000000	80.000000	47.000000
1.470000	27.120000	69.450000	373.000000	1.000000	178.000000	59.000000	0.000000	0.000000
1.480000	28.960000	70.220000	545.000000	0.000000	178.000000	58.000000	184.000000	77.000000
1.490000	29.500000	70.600000	611.000000	0.000000	178.000000	58.000000	54.000000	38.000000
1.500000	29.800000	70.820000	750.000000	0.000000	178.000000	57.000000	30.000000	22.000000
1.510000	29.930000	70.910000	832.000000	0.000000	179.000000	56.000000	13.000000	9.000000
1.520000	29.860000	70.960000	853.000000	0.000000	179.000000	56.000000	-7.000000	5.000000
1.530000	29.490000	70.780000	879.000000	0.000000	179.000000	56.000000	-37.000000	-18.000000
1.540000	28.910000	70.450000	921.000000	0.000000	179.000000	55.000000	-58.000000	-33.000000
1.550000	27.810000	69.420000	987.000000	0.000000	179.000000	55.000000	-110.000000	-103.000000
1.560000	26.350000	67.940000	1023.000000	0.000000	179.000000	56.000000	-146.000000	-148.000000
1.570000	24.660000	66.160000	1023.000000	0.000000	179.000000	56.000000	-169.000000	-178.000000
1.580000	23.090000	64.290000	1023.000000	0.000000	178.000000	57.000000	-157.000000	-187.000000
1.590000	22.080000	62.890000	1023.000000	0.000000	178.000000	58.000000	-101.000000	-140.000000
1.600000	21.430000	61.810000	1023.000000	0.000000	178.000000	58.000000	-65.000000	-108.000000
1.610000	21.320000	61.340000	1023.000000	0.000000	178.000000	59.000000	-11.000000	-47.000000
1.620000	21.410000	61.230000	1023.000000	0.000000	178.000000	60.000000	9.000000	-11.000000
1.630000	21.630000	61.350000	920.000000	0.000000	176.000000	61.000000	22.000000	12.000000
1.640000	22.030000	62.040000	610.000000	0.000000	176.000000	61.000000	40.000000	69.000000
1.650000	22.030000	62.040000	0.000000	1.000000	176.000000	61.000000	0.000000	0.000000
1.660000	23.520000	64.810000	0.000000	0.000000	175.000000	61.000000	149.000000	277.000000
1.670000	24.290000	66.160000	0.000000	0.000000	175.000000	61.000000	77.000000	135.000000
1.680000	25.120000	67.350000	0.000000	0.000000	175.000000	61.000000	83.000000	119.000000
1.690000	25.930000	68.430000	0.000000	0.000000	175.000000	61.000000	81.000000	108.000000
1.700000	26.700000	69.540000	0.000000	0.000000	175.000000	60.000000	77.000000	111.000000
1.710000	27.500000	70.610000	0.000000	0.000000	175.000000	59.000000	80.000000	107.000000
1.720000	28.300000	71.660000	0.000000	0.000000	175.000000	59.000000	80.000000	105.000000
1.730000	29.020000	72.340000	0.000000	0.000000	175.000000	58.000000	72.000000	68.000000
1.740000	29.680000	72.750000	0.000000	0.000000	175.000000	57.000000	66.000000	41.000000
1.750000	29.680000	72.750000	410.000000	1.000000	174.000000	56.000000	0.000000	0.000000
1.760000	30.170000	72.860000	691.000000	0.000000	174.000000	56.000000	49.000000	11.000000
1.770000	29.990000	72.810000	666.000000	0.000000	174.000000	55.000000	-18.000000	-5.000000
1.780000	29.630000	72.810000	714.000000	0.000000	176.000000	55.000000	-36.000000	0.000000
1.790000	29.050000	72.280000	811.000000	0.000000	176.000000	54.000000	-58.000000	-53.000000
1.800000	28.330000	71.730000	833.000000	0.000000	176.000000	54.000000	-72.000000	-55.000000
1.810000	28.110000	71.170000	861.000000	0.000000	176.000000	54.000000	-22.000000	-56.000000
1.820000	28.390000	70.770000	921.000000	0.000000	176.000000	54.000000	28.000000	-40.000000
1.830000	28.990000	70.490000	959.000000	0.000000	176.000000	54.000000	60.000000	-28.000000
1.840000	29.830000	70.620000	997.000000	0.000000	176.000000	55.000000	84.000000	13.000000
1.850000	30.490000	70.910000	1023.000000	0.000000	176.000000	55.000000	66.000000	29.000000
1.860000	31.040000	71.310000	1023.000000	0.000000	176.000000	55.000000	55.000000	40.000000
1.870000	31.130000	71.750000	986.000000	0.000000	176.000000	55.000000	9.000000	44.000000
1.880000	30.950000	72.170000	912.000000	0.000000	177.000000	55.000000	-18.000000	42.000000
1.890000	30.600000	72.580000	763.000000	0.000000	177.000000	55.000000	-35.000000	41.000000
1.900000	29.970000	72.640000	391.000000	0.000000	177.000000	55.000000	-63.000000	6.000000
