t	x	y	pressure	penup	azimuth	inclination	v_x	v_y
0.000000	54.800000	86.150000	18.000000	1.000000	142.000000	47.000000	0.000000	0.000000
0.010000	54.800000	86.150000	104.000000	0.000000	142.000000	47.000000	0.000000	0.000000
0.020000	54.800000	86.150000	139.000000	0.000000	142.000000	47.000000	0.000000	0.000000
0.030000	54.470000	86.060000	132.000000	0.000000	142.000000	47.000000	-33.000000	-9.000000
0.040000	54.200000	85.880000	190.000000	0.000000	142.000000	47.000000	-27.000000	-18.000000
0.050000	53.810000	85.550000	241.000000	0.000000	142.000000	47.000000	-39.000000	-33.000000
0.060000	53.350000	84.990000	279.000000	0.000000	142.000000	47.000000	-46.000000	-56.000000
0.070000	52.670000	84.290000	314.000000	0.000000	142.000000	47.000000	-68.000000	-70.000000
0.080000	51.950000	83.490000	351.000000	0.000000	141.000000	46.000000	-72.000000	-80.000000
0.090000	51.200000	82.730000	382.000000	0.000000	141.000000	46.000000	-75.000000	-76.000000
0.100000	50.690000	82.050000	394.000000	0.000000	142.000000	45.000000	-51.000000	-68.000000
0.110000	50.230000	81.410000	405.000000	0.000000	142.000000	45.000000	-46.000000	-64.000000
0.120000	49.990000	80.850000	412.000000	0.000000	141.000000	45.000000	-24.000000	-56.000000
0.130000	49.870000	80.450000	417.000000	0.000000	142.000000	44.000000	-12.000000	-40.000000
0.140000	49.970000	80.160000	418.000000	0.000000	142.000000	44.000000	10.000000	-29.000000
0.150000	50.130000	79.950000	413.000000	0.000000	142.000000	44.000000	16.000000	-21.000000
0.160000	50.470000	79.800000	417.000000	0.000000	141.000000	45.000000	34.000000	-15.000000
0.170000	50.910000	79.690000	405.000000	0.000000	140.000000	45.000000	44.000000	-11.000000
0.180000	51.520000	79.620000	409.000000	0.000000	140.000000	45.000000	61.000000	-7.000000
0.190000	52.200000	79.770000	404.000000	0.000000	140.000000	46.000000	68.000000	15.000000
0.200000	52.930000	80.080000	402.000000	0.000000	140.000000	46.000000	73.000000	31.000000
0.210000	53.540000	80.390000	394.000000	0.000000	140.000000	46.000000	61.000000	31.000000
0.220000	54.060000	80.700000	392.000000	0.000000	141.000000	46.000000	52.000000	31.000000
0.230000	54.510000	81.080000	388.000000	0.000000	141.000000	46.000000	45.000000	38.000000
0.240000	55.060000	81.510000	396.000000	0.000000	141.000000	46.000000	55.000000	43.000000
0.250000	55.580000	81.970000	396.000000	0.000000	143.000000	46.000000	52.000000	46.000000
0.260000	56.040000	82.420000	398.000000	0.000000	143.000000	46.000000	46.000000	45.000000
0.270000	56.460000	82.850000	398.000000	0.000000	143.000000	46.000000	42.000000	43.000000
0.280000	56.740000	83.070000	399.000000	0.000000	144.000000	47.000000	28.000000	22.000000
0.290000	56.840000	83.150000	391.000000	0.000000	144.000000	47.000000	10.000000	8.000000
0.300000	56.840000	83.150000	404.000000	0.000000	145.000000	46.000000	0.000000	0.000000
0.310000	56.740000	83.150000	400.000000	0.000000	145.000000	46.000000	-10.000000	0.000000
0.320000	56.670000	83.150000	394.000000	0.000000	145.000000	46.000000	-7.000000	0.000000
0.330000	56.510000	83.090000	396.000000	0.000000	145.000000	46.000000	-16.000000	-6.000000
0.340000	56.280000	82.920000	402.000000	0.000000	146.000000	46.000000	-23.000000	-17.000000
0.350000	55.950000	82.640000	402.000000	0.000000	146.000000	46.000000	-33.000000	-28.000000
0.360000	55.620000	82.280000	407.000000	0.000000	146.000000	46.000000	-33.000000	-36.000000
0.370000	55.290000	81.920000	415.000000	0.000000	146.000000	46.000000	-33.000000	-36.000000
0.380000	55.090000	81.690000	413.000000	0.000000	145.000000	46.000000	-20.000000	-23.000000
0.390000	55.090000	81.560000	405.000000	0.000000	145.000000	46.000000	0.000000	-13.000000
0.400000	55.240000	81.500000	415.000000	0.000000	145.000000	46.000000	15.000000	-6.000000
0.410000	55.500000	81.500000	420.000000	0.000000	145.000000	46.000000	26.000000	0.000000
0.420000	56.040000	81.620000	425.000000	0.000000	145.000000	46.000000	54.000000	12.000000
0.430000	56.770000	81.910000	423.000000	0.000000	145.000000	46.000000	73.000000	29.000000
0.440000	57.580000	82.250000	422.000000	0.000000	145.000000	46.000000	81.000000	34.000000
0.450000	58.280000	82.630000	422.000000	0.000000	145.000000	46.000000	70.000000	38.000000
0.460000	58.910000	82.900000	415.000000	0.000000	145.000000	46.000000	63.000000	27.000000
0.470000	59.360000	83.170000	412.000000	0.000000	145.000000	46.000000	45.000000	27.000000
0.480000	59.720000	83.430000	404.000000	0.000000	145.000000	46.000000	36.000000	26.000000
0.490000	60.010000	83.680000	396.000000	0.000000	145.000000	46.000000	29.000000	25.000000
0.500000	60.180000	83.880000	391.000000	0.000000	145.000000	46.000000	17.000000	20.000000
0.510000	60.180000	83.880000	397.000000	0.000000	144.000000	46.000000	0.000000	0.000000
0.520000	60.010000	83.720000	397.000000	0.000000	144.000000	46.000000	-17.000000	-16.000000
0.530000	59.840000	83.600000	397.000000	0.000000	144.000000	46.000000	-17.000000	-12.000000
0.540000	59.560000	83.280000	400.000000	0.000000	143.000000	45.000000	-28.000000	-32.000000
0.550000	59.200000	82.840000	402.000000	0.000000	143.000000	45.000000	-36.000000	-44.000000
0.560000	59.200000	82.670000	397.000000	0.000000	143.000000	45.000000	0.000000	-17.000000
0.570000	59.310000	82.530000	412.000000	0.000000	143.000000	45.000000	11.000000	-14.000000
0.580000	59.490000	82.420000	415.000000	0.000000	143.000000	45.000000	18.000000	-11.000000
0.590000	59.770000	82.360000	423.000000	0.000000	144.000000	44.000000	28.000000	-6.000000
0.600000	60.170000	82.360000	431.000000	0.000000	144.000000	44.000000	40.000000	0.000000
0.610000	60.690000	82.510000	433.000000	0.000000	144.000000	44.000000	52.000000	15.000000
0.620000	61.310000	82.710000	435.000000	0.000000	144.000000	44.000000	62.000000	20.000000
0.630000	62.030000	82.980000	431.000000	0.000000	144.000000	44.000000	72.000000	27.000000
0.640000	62.850000	83.290000	431.000000	0.000000	145.000000	44.000000	82.000000	31.000000
0.650000	63.720000	83.650000	423.000000	0.000000	145.000000	45.000000	87.000000	36.000000
0.660000	64.500000	84.030000	417.000000	0.000000	145.000000	45.000000	78.000000	38.000000
0.670000	65.130000	84.420000	422.000000	0.000000	146.000000	46.000000	63.000000	39.000000
0.680000	65.670000	84.750000	413.000000	0.000000	145.000000	46.000000	54.000000	33.000000
0.690000	65.910000	84.830000	402.000000	0.000000	145.000000	46.000000	24.000000	8.000000
0.700000	65.910000	84.740000	422.000000	0.000000	145.000000	46.000000	0.000000	-9.000000
0.710000	65.780000	84.610000	430.000000	0.000000	146.000000	47.000000	-13.000000	-13.000000
0.720000	65.590000	84.320000	433.000000	0.000000	146.000000	47.000000	-19.000000	-29.000000
0.730000	65.440000	83.930000	433.000000	0.000000	146.000000	47.000000	-15.000000	-39.000000
0.740000	65.440000	83.790000	447.000000	0.000000	146.000000	47.000000	0.000000	-14.000000
0.750000	65.440000	83.660000	458.000000	0.000000	146.000000	47.000000	0.000000	-13.000000
0.760000	65.500000	83.550000	468.000000	0.000000	147.000000	46.000000	6.000000	-11.000000
0.770000	65.730000	83.550000	472.000000	0.000000	147.000000	46.000000	23.000000	0.000000
0.780000	66.060000	83.550000	477.000000	0.000000	147.000000	46.000000	33.000000	0.000000
0.790000	66.370000	83.550000	477.000000	0.000000	147.000000	46.000000	31.000000	0.000000
0.800000	66.680000	83.660000	481.000000	0.000000	147.000000	46.000000	31.000000	11.000000
0.810000	66.980000	83.750000	481.000000	0.000000	147.000000	46.000000	30.000000	9.000000
0.820000	67.490000	83.880000	480.000000	0.000000	147.000000	46.000000	51.000000	13.000000
0.830000	68.030000	84.100000	478.000000	0.000000	147.000000	46.000000	54.000000	22.000000
0.840000	68.690000	84.370000	467.000000	0.000000	147.000000	46.000000	66.000000	27.000000
0.850000	69.420000	84.720000	469.000000	0.000000	146.000000	47.000000	73.000000	35.000000
0.860000	70.010000	85.040000	465.000000	0.000000	146.000000	47.000000	59.000000	32.000000
0.870000	70.410000	85.330000	453.000000	0.000000	146.000000	47.000000	40.000000	29.000000
0.880000	70.670000	85.330000	439.000000	0.000000	145.000000	47.000000	26.000000	0.000000
0.890000	70.670000	85.330000	448.000000	0.000000	145.000000	47.000000	0.000000	0.000000
0.900000	70.670000	85.250000	455.000000	0.000000	144.000000	48.000000	0.000000	-8.000000
0.910000	70.560000	85.200000	450.000000	0.000000	144.000000	48.000000	-11.000000	-5.000000
0.920000	70.560000	85.150000	461.000000	0.000000	144.000000	48.000000	0.000000	-5.000000
0.930000	70.610000	85.100000	467.000000	0.000000	143.000000	48.000000	5.000000	-5.000000
0.940000	70.770000	85.020000	485.000000	0.000000	143.000000	48.000000	16.000000	-8.000000
0.950000	71.070000	85.020000	493.000000	0.000000	143.000000	48.000000	30.000000	0.000000
0.960000	71.460000	85.080000	496.000000	0.000000	144.000000	47.000000	39.000000	6.000000
0.970000	71.930000	85.310000	498.000000	0.000000	144.000000	47.000000	47.000000	23.000000
0.980000	72.340000	85.380000	488.000000	0.000000	144.000000	47.000000	41.000000	7.000000
0.990000	72.670000	85.380000	485.000000	0.000000	145.000000	46.000000	33.000000	0.000000
1.000000	73.040000	85.380000	474.000000	0.000000	146.000000	47.000000	37.000000	0.000000
1.010000	73.240000	85.510000	460.000000	0.000000	145.000000	47.000000	20.000000	13.000000
1.020000	73.320000	85.620000	452.000000	0.000000	145.000000	47.000000	8.000000	11.000000
1.030000	73.400000	85.740000	433.000000	0.000000	145.000000	47.000000	8.000000	12.000000
1.040000	73.550000	85.940000	427.000000	0.000000	145.000000	47.000000	15.000000	20.000000
1.050000	73.830000	86.190000	425.000000	0.000000	146.000000	48.000000	28.000000	25.000000
1.060000	74.050000	86.260000	420.000000	0.000000	146.000000	48.000000	22.000000	7.000000
1.070000	74.230000	86.320000	422.000000	0.000000	145.000000	48.000000	18.000000	6.000000
1.080000	74.280000	86.370000	366.000000	0.000000	145.000000	48.000000	5.000000	5.000000
1.090000	74.280000	86.370000	220.000000	0.000000	145.000000	48.000000	0.000000	0.000000
1.100000	74.280000	86.370000	0.000000	1.000000	145.000000	48.000000	0.000000	0.000000
1.110000	74.130000	86.320000	0.000000	0.000000	146.000000	49.000000	-15.000000	-5.000000
1.120000	74.030000	86.390000	0.000000	0.000000	146.000000	49.000000	-10.000000	7.000000
1.130000	73.900000	86.500000	0.000000	0.000000	145.000000	50.000000	-13.000000	11.000000
1.140000	74.070000	86.690000	0.000000	0.000000	145.000000	50.000000	17.000000	19.000000
1.150000	74.500000	86.940000	0.000000	0.000000	145.000000	50.000000	43.000000	25.000000
1.160000	75.090000	86.940000	0.000000	0.000000	146.000000	50.000000	59.000000	0.000000
1.170000	75.980000	87.240000	0.000000	0.000000	146.000000	50.000000	89.000000	30.000000
1.180000	76.880000	87.780000	0.000000	0.000000	146.000000	50.000000	90.000000	54.000000
1.190000	77.730000	87.970000	0.000000	0.000000	148.000000	50.000000	85.000000	19.000000
1.200000	78.350000	88.100000	0.000000	0.000000	148.000000	50.000000	62.000000	13.000000
1.210000	78.850000	88.100000	0.000000	0.000000	148.000000	50.000000	50.000000	0.000000
1.220000	78.970000	88.100000	0.000000	0.000000	148.000000	50.000000	12.000000	0.000000
1.230000	78.800000	88.100000	0.000000	0.000000	148.000000	50.000000	-17.000000	0.000000
1.240000	78.440000	88.100000	0.000000	0.000000	147.000000	51.000000	-36.000000	0.000000
1.250000	77.970000	88.100000	0.000000	0.000000	147.000000	51.000000	-47.000000	0.000000
1.260000	77.540000	88.150000	0.000000	0.000000	146.000000	52.000000	-43.000000	5.000000
1.270000	77.170000	88.150000	0.000000	0.000000	144.000000	51.000000	-37.000000	0.000000
1.280000	76.800000	88.150000	0.000000	0.000000	144.000000	51.000000	-37.000000	0.000000
1.290000	76.570000	88.150000	0.000000	0.000000	144.000000	51.000000	-23.000000	0.000000
1.300000	76.570000	88.150000	39.000000	1.000000	143.000000	51.000000	0.000000	0.000000
1.310000	76.570000	88.150000	139.000000	0.000000	143.000000	51.000000	0.000000	0.000000
1.320000	76.570000	88.150000	132.000000	0.000000	143.000000	51.000000	0.000000	0.000000
1.330000	76.220000	88.240000	179.000000	0.000000	143.000000	51.000000	-35.000000	9.000000
1.340000	76.310000	88.290000	214.000000	0.000000	143.000000	51.000000	9.000000	5.000000
1.350000	76.450000	88.390000	249.000000	0.000000	143.000000	51.000000	14.000000	10.000000
1.360000	76.650000	88.530000	282.000000	0.000000	142.000000	50.000000	20.000000	14.000000
1.370000	77.040000	88.730000	316.000000	0.000000	143.000000	50.000000	39.000000	20.000000
1.380000	77.560000	88.970000	322.000000	0.000000	143.000000	50.000000	52.000000	24.000000
1.390000	78.140000	89.250000	327.000000	0.000000	144.000000	50.000000	58.000000	28.000000
1.400000	78.590000	89.570000	329.000000	0.000000	145.000000	50.000000	45.000000	32.000000
1.410000	78.950000	89.840000	335.000000	0.000000	145.000000	50.000000	36.000000	27.000000
1.420000	79.210000	90.070000	322.000000	0.000000	144.000000	50.000000	26.000000	23.000000
1.430000	79.290000	90.300000	319.000000	0.000000	144.000000	50.000000	8.000000	23.000000
1.440000	79.290000	90.470000	324.000000	0.000000	143.000000	50.000000	0.000000	17.000000
1.450000	78.980000	90.400000	330.000000	0.000000	142.000000	50.000000	-31.000000	-7.000000
1.460000	78.460000	90.170000	340.000000	0.000000	142.000000	50.000000	-52.000000	-23.000000
1.470000	77.770000	89.770000	361.000000	0.000000	142.000000	50.000000	-69.000000	-40.000000
1.480000	77.140000	89.260000	386.000000	0.000000	143.000000	50.000000	-63.000000	-51.000000
1.490000	76.770000	88.680000	392.000000	0.000000	143.000000	50.000000	-37.000000	-58.000000
1.500000	76.560000	88.260000	402.000000	0.000000	144.000000	49.000000	-21.000000	-42.000000
1.510000	76.510000	87.920000	420.000000	0.000000	146.000000	49.000000	-5.000000	-34.000000
1.520000	76.650000	87.630000	418.000000	0.000000	147.000000	48.000000	14.000000	-29.000000
1.530000	76.920000	87.330000	422.000000	0.000000	148.000000	47.000000	27.000000	-30.000000
1.540000	77.320000	87.100000	423.000000	0.000000	149.000000	47.000000	40.000000	-23.000000
1.550000	77.780000	86.930000	428.000000	0.000000	149.000000	47.000000	46.000000	-17.000000
1.560000	78.330000	86.780000	431.000000	0.000000	149.000000	47.000000	55.000000	-15.000000
1.570000	78.870000	86.620000	438.000000	0.000000	149.000000	47.000000	54.000000	-16.000000
1.580000	79.120000	86.270000	439.000000	0.000000	149.000000	47.000000	25.000000	-35.000000
1.590000	79.180000	85.800000	453.000000	0.000000	148.000000	47.000000	6.000000	-47.000000
1.600000	78.980000	85.000000	473.000000	0.000000	146.000000	48.000000	-20.000000	-80.000000
1.610000	78.410000	84.170000	493.000000	0.000000	146.000000	48.000000	-57.000000	-83.000000
1.620000	77.590000	83.320000	494.000000	0.000000	146.000000	48.000000	-82.000000	-85.000000
1.630000	76.540000	82.350000	504.000000	0.000000	146.000000	48.000000	-105.000000	-97.000000
1.640000	75.580000	81.580000	518.000000	0.000000	147.000000	48.000000	-96.000000	-77.000000
1.650000	74.690000	80.940000	550.000000	0.000000	147.000000	48.000000	-89.000000	-64.000000
1.660000	73.880000	80.480000	574.000000	0.000000	147.000000	48.000000	-81.000000	-46.000000
1.670000	73.370000	80.240000	580.000000	0.000000	148.000000	47.000000	-51.000000	-24.000000
1.680000	73.070000	80.160000	586.000000	0.000000	148.000000	47.000000	-30.000000	-8.000000
1.690000	72.960000	80.160000	580.000000	0.000000	148.000000	47.000000	-11.000000	0.000000
1.700000	73.080000	80.420000	566.000000	0.000000	148.000000	47.000000	12.000000	26.000000
1.710000	73.340000	80.760000	561.000000	0.000000	148.000000	47.000000	26.000000	34.000000
1.720000	74.200000	81.330000	530.000000	0.000000	148.000000	47.000000	86.000000	57.000000
1.730000	75.500000	82.050000	494.000000	0.000000	148.000000	47.000000	130.000000	72.000000
1.740000	77.100000	82.870000	466.000000	0.000000	148.000000	47.000000	160.000000	82.000000
1.750000	78.980000	83.820000	445.000000	0.000000	148.000000	47.000000	188.000000	95.000000
1.760000	80.620000	84.770000	423.000000	0.000000	148.000000	47.000000	164.000000	95.000000
1.770000	82.110000	85.770000	410.000000	0.000000	148.000000	47.000000	149.000000	100.000000
1.780000	83.420000	86.800000	409.000000	0.000000	148.000000	48.000000	131.000000	103.000000
1.790000	84.160000	87.510000	409.000000	0.000000	148.000000	48.000000	74.000000	71.000000
1.800000	84.510000	87.800000	423.000000	0.000000	147.000000	49.000000	35.000000	29.000000
1.810000	84.430000	87.800000	461.000000	0.000000	146.000000	50.000000	-8.000000	0.000000
1.820000	83.670000	87.450000	492.000000	0.000000	146.000000	50.000000	-76.000000	-35.000000
1.830000	82.460000	86.720000	556.000000	0.000000	146.000000	50.000000	-121.000000	-73.000000
1.840000	81.080000	85.740000	600.000000	0.000000	146.000000	50.000000	-138.000000	-98.000000
1.850000	79.960000	84.650000	639.000000	0.000000	147.000000	49.000000	-112.000000	-109.000000
1.860000	79.000000	83.680000	656.000000	0.000000	148.000000	48.000000	-96.000000	-97.000000
1.870000	78.110000	82.870000	671.000000	0.000000	149.000000	48.000000	-89.000000	-81.000000
1.880000	77.220000	82.140000	691.000000	0.000000	150.000000	47.000000	-89.000000	-73.000000
1.890000	76.430000	81.410000	696.000000	0.000000	150.000000	47.000000	-79.000000	-73.000000
1.900000	75.700000	80.880000	687.000000	0.000000	151.000000	46.000000	-73.000000	-53.000000
1.910000	75.380000	80.490000	666.000000	0.000000	151.000000	46.000000	-32.000000	-39.000000
1.920000	75.480000	80.210000	662.000000	0.000000	152.000000	46.000000	10.000000	-28.000000
1.930000	75.860000	80.300000	643.000000	0.000000	152.000000	46.000000	38.000000	9.000000
1.940000	76.820000	80.650000	638.000000	0.000000	153.000000	47.000000	96.000000	35.000000
1.950000	78.170000	81.560000	619.000000	0.000000	153.000000	47.000000	135.000000	91.000000
1.960000	79.790000	82.630000	572.000000	0.000000	153.000000	47.000000	162.000000	107.000000
1.970000	81.060000	83.800000	543.000000	0.000000	152.000000	48.000000	127.000000	117.000000
1.980000	81.540000	84.950000	530.000000	0.000000	152.000000	48.000000	48.000000	115.000000
1.990000	81.490000	85.730000	542.000000	0.000000	151.000000	48.000000	-5.000000	78.000000
2.000000	80.580000	86.270000	583.000000	0.000000	151.000000	48.000000	-91.000000	54.000000
2.010000	78.790000	86.270000	616.000000	0.000000	151.000000	49.000000	-179.000000	0.000000
2.020000	76.410000	85.870000	642.000000	0.000000	151.000000	49.000000	-238.000000	-40.000000
2.030000	73.510000	85.290000	641.000000	0.000000	151.000000	49.000000	-290.000000	-58.000000
2.040000	69.920000	84.160000	647.000000	0.000000	149.000000	49.000000	-359.000000	-113.000000
2.050000	65.860000	82.990000	649.000000	0.000000	149.000000	49.000000	-406.000000	-117.000000
2.060000	61.370000	81.470000	659.000000	0.000000	149.000000	49.000000	-449.000000	-152.000000
2.070000	56.930000	79.720000	661.000000	0.000000	148.000000	48.000000	-444.000000	-175.000000
2.080000	52.500000	77.980000	669.000000	0.000000	147.000000	48.000000	-443.000000	-174.000000
2.090000	48.070000	76.560000	717.000000	0.000000	146.000000	48.000000	-443.000000	-142.000000
2.100000	45.040000	75.350000	721.000000	0.000000	145.000000	47.000000	-303.000000	-121.000000
2.110000	43.840000	74.700000	719.000000	0.000000	144.000000	47.000000	-120.000000	-65.000000
2.120000	43.840000	74.900000	721.000000	0.000000	141.000000	46.000000	0.000000	20.000000
2.130000	45.760000	75.660000	721.000000	0.000000	140.000000	46.000000	192.000000	76.000000
2.140000	49.720000	77.340000	758.000000	0.000000	140.000000	46.000000	396.000000	168.000000
2.150000	55.060000	79.490000	823.000000	0.000000	140.000000	46.000000	534.000000	215.000000
2.160000	61.560000	81.960000	842.000000	0.000000	140.000000	46.000000	650.000000	247.000000
2.170000	68.460000	83.580000	827.000000	0.000000	141.000000	46.000000	690.000000	162.000000
2.180000	75.630000	84.690000	750.000000	0.000000	143.000000	46.000000	717.000000	111.000000
2.190000	81.830000	85.460000	516.000000	0.000000	146.000000	47.000000	620.000000	77.000000
