t	x	y	pressure	penup	azimuth	inclination	v_x	v_y
0.000000	55.440000	66.280000	91.000000	1.000000	137.000000	52.000000	0.000000	0.000000
0.010000	55.330000	66.700000	193.000000	0.000000	137.000000	52.000000	-11.000000	42.000000
0.020000	55.270000	66.870000	247.000000	0.000000	137.000000	52.000000	-6.000000	17.000000
0.030000	55.210000	66.960000	291.000000	0.000000	136.000000	52.000000	-6.000000	9.000000
0.040000	55.100000	66.960000	339.000000	0.000000	137.000000	53.000000	-11.000000	0.000000
0.050000	55.100000	66.960000	367.000000	0.000000	137.000000	53.000000	0.000000	0.000000
0.060000	54.760000	66.840000	423.000000	0.000000	137.000000	53.000000	-34.000000	-12.000000
0.070000	54.490000	66.650000	427.000000	0.000000	137.000000	53.000000	-27.000000	-19.000000
0.080000	54.160000	66.370000	447.000000	0.000000	137.000000	53.000000	-33.000000	-28.000000
0.090000	53.770000	65.920000	466.000000	0.000000	139.000000	52.000000	-39.000000	-45.000000
0.100000	53.280000	65.360000	483.000000	0.000000	139.000000	52.000000	-49.000000	-56.000000
0.110000	52.730000	64.680000	496.000000	0.000000	139.000000	52.000000	-55.000000	-68.000000
0.120000	52.110000	63.960000	507.000000	0.000000	139.000000	52.000000	-62.000000	-72.000000
0.130000	51.500000	63.190000	527.000000	0.000000	139.000000	52.000000	-61.000000	-77.000000
0.140000	50.890000	62.450000	541.000000	0.000000	139.000000	52.000000	-61.000000	-74.000000
0.150000	50.400000	61.880000	537.000000	0.000000	138.000000	51.000000	-49.000000	-57.000000
0.160000	50.140000	61.400000	542.000000	0.000000	138.000000	51.000000	-26.000000	-48.000000
0.170000	50.040000	61.090000	546.000000	0.000000	138.000000	51.000000	-10.000000	-31.000000
0.180000	50.040000	60.910000	533.000000	0.000000	138.000000	51.000000	0.000000	-18.000000
0.190000	50.040000	60.810000	532.000000	0.000000	138.000000	50.000000	0.000000	-10.000000
0.200000	50.240000	60.720000	537.000000	0.000000	138.000000	50.000000	20.000000	-9.000000
0.210000	50.500000	60.720000	540.000000	0.000000	138.000000	50.000000	26.000000	0.000000
0.220000	51.150000	60.810000	546.000000	0.000000	138.000000	50.000000	65.000000	9.000000
0.230000	52.400000	61.220000	574.000000	0.000000	138.000000	50.000000	125.000000	41.000000
0.240000	54.060000	61.860000	613.000000	0.000000	140.000000	51.000000	166.000000	64.000000
0.250000	56.090000	62.650000	650.000000	0.000000	140.000000	51.000000	203.000000	79.000000
0.260000	58.440000	63.630000	668.000000	0.000000	141.000000	51.000000	235.000000	98.000000
0.270000	60.990000	64.580000	668.000000	0.000000	141.000000	51.000000	255.000000	95.000000
0.280000	63.720000	65.520000	671.000000	0.000000	141.000000	52.000000	273.000000	94.000000
0.290000	66.270000	66.230000	675.000000	0.000000	142.000000	53.000000	255.000000	71.000000
0.300000	68.710000	66.880000	678.000000	0.000000	143.000000	53.000000	244.000000	65.000000
0.310000	70.660000	67.400000	675.000000	0.000000	143.000000	53.000000	195.000000	52.000000
0.320000	72.300000	67.680000	666.000000	0.000000	145.000000	54.000000	164.000000	28.000000
0.330000	73.730000	67.800000	659.000000	0.000000	145.000000	54.000000	143.000000	12.000000
0.340000	74.730000	67.800000	652.000000	0.000000	146.000000	54.000000	100.000000	0.000000
0.350000	75.380000	67.800000	636.000000	0.000000	146.000000	54.000000	65.000000	0.000000
0.360000	75.800000	67.730000	613.000000	0.000000	147.000000	55.000000	42.000000	-7.000000
0.370000	75.800000	67.560000	610.000000	0.000000	147.000000	55.000000	0.000000	-17.000000
0.380000	75.220000	67.210000	610.000000	0.000000	147.000000	55.000000	-58.000000	-35.000000
0.390000	74.320000	66.820000	622.000000	0.000000	147.000000	55.000000	-90.000000	-39.000000
0.400000	72.770000	66.250000	624.000000	0.000000	147.000000	55.000000	-155.000000	-57.000000
0.410000	70.980000	65.570000	644.000000	0.000000	147.000000	55.000000	-179.000000	-68.000000
0.420000	69.020000	64.770000	645.000000	0.000000	147.000000	55.000000	-196.000000	-80.000000
0.430000	66.740000	63.850000	641.000000	0.000000	147.000000	55.000000	-228.000000	-92.000000
0.440000	64.520000	62.850000	668.000000	0.000000	147.000000	55.000000	-222.000000	-100.000000
0.450000	62.380000	61.920000	679.000000	0.000000	147.000000	55.000000	-214.000000	-93.000000
0.460000	60.270000	61.020000	673.000000	0.000000	146.000000	54.000000	-211.000000	-90.000000
0.470000	58.650000	60.150000	669.000000	0.000000	146.000000	54.000000	-162.000000	-87.000000
0.480000	57.420000	59.410000	685.000000	0.000000	146.000000	53.000000	-123.000000	-74.000000
0.490000	56.440000	58.920000	664.000000	0.000000	146.000000	53.000000	-98.000000	-49.000000
0.500000	56.270000	58.610000	628.000000	0.000000	145.000000	53.000000	-17.000000	-31.000000
0.510000	56.270000	58.610000	617.000000	0.000000	145.000000	53.000000	0.000000	0.000000
0.520000	56.830000	58.480000	586.000000	0.000000	143.000000	53.000000	56.000000	-13.000000
0.530000	57.520000	58.560000	524.000000	0.000000	143.000000	53.000000	69.000000	8.000000
0.540000	58.260000	58.750000	181.000000	0.000000	143.000000	53.000000	74.000000	19.000000
0.550000	58.260000	58.750000	0.000000	1.000000	145.000000	54.000000	0.000000	0.000000
0.560000	59.450000	59.190000	0.000000	0.000000	145.000000	54.000000	119.000000	44.000000
0.570000	59.730000	59.540000	0.000000	0.000000	145.000000	54.000000	28.000000	35.000000
0.580000	59.800000	59.920000	0.000000	0.000000	144.000000	54.000000	7.000000	38.000000
0.590000	59.720000	60.290000	0.000000	0.000000	144.000000	54.000000	-8.000000	37.000000
0.600000	59.890000	60.660000	0.000000	0.000000	142.000000	54.000000	17.000000	37.000000
0.610000	60.110000	61.530000	0.000000	0.000000	141.000000	53.000000	22.000000	87.000000
0.620000	60.360000	62.120000	0.000000	0.000000	141.000000	53.000000	25.000000	59.000000
0.630000	60.870000	62.530000	0.000000	0.000000	140.000000	53.000000	51.000000	41.000000
0.640000	61.400000	63.110000	0.000000	0.000000	140.000000	53.000000	53.000000	58.000000
0.650000	61.950000	63.900000	0.000000	0.000000	140.000000	53.000000	55.000000	79.000000
0.660000	62.450000	64.830000	0.000000	0.000000	140.000000	53.000000	50.000000	93.000000
0.670000	62.920000	66.080000	0.000000	0.000000	140.000000	53.000000	47.000000	125.000000
0.680000	63.310000	66.290000	0.000000	0.000000	140.000000	53.000000	39.000000	21.000000
0.690000	63.310000	65.810000	0.000000	0.000000	140.000000	53.000000	0.000000	-48.000000
0.700000	63.080000	64.440000	0.000000	0.000000	140.000000	53.000000	-23.000000	-137.000000
0.710000	62.380000	63.400000	0.000000	0.000000	137.000000	52.000000	-70.000000	-104.000000
0.720000	61.760000	62.580000	0.000000	0.000000	133.000000	50.000000	-62.000000	-82.000000
0.730000	61.180000	62.190000	0.000000	0.000000	130.000000	48.000000	-58.000000	-39.000000
0.740000	60.560000	61.790000	0.000000	0.000000	125.000000	45.000000	-62.000000	-40.000000
0.750000	59.870000	61.380000	0.000000	0.000000	127.000000	45.000000	-69.000000	-41.000000
0.760000	58.990000	61.010000	0.000000	0.000000	126.000000	44.000000	-88.000000	-37.000000
0.770000	57.990000	60.610000	0.000000	0.000000	126.000000	44.000000	-100.000000	-40.000000
0.780000	57.190000	60.200000	0.000000	0.000000	126.000000	44.000000	-80.000000	-41.000000
0.790000	56.630000	60.070000	0.000000	0.000000	126.000000	44.000000	-56.000000	-13.000000
0.800000	56.220000	60.120000	0.000000	0.000000	125.000000	43.000000	-41.000000	5.000000
0.810000	55.830000	60.370000	0.000000	0.000000	127.000000	44.000000	-39.000000	25.000000
0.820000	55.620000	60.740000	0.000000	0.000000	128.000000	44.000000	-21.000000	37.000000
0.830000	55.520000	61.200000	0.000000	0.000000	130.000000	46.000000	-10.000000	46.000000
0.840000	55.400000	61.380000	0.000000	0.000000	132.000000	48.000000	-12.000000	18.000000
0.850000	55.340000	61.540000	0.000000	0.000000	134.000000	49.000000	-6.000000	16.000000
0.860000	55.340000	61.670000	0.000000	0.000000	137.000000	51.000000	0.000000	13.000000
0.870000	55.510000	61.850000	0.000000	0.000000	138.000000	51.000000	17.000000	18.000000
0.880000	55.690000	62.050000	0.000000	0.000000	141.000000	52.000000	18.000000	20.000000
0.890000	55.830000	62.290000	0.000000	0.000000	141.000000	52.000000	14.000000	24.000000
0.900000	55.950000	62.530000	0.000000	0.000000	142.000000	52.000000	12.000000	24.000000
0.910000	56.000000	62.760000	0.000000	0.000000	142.000000	52.000000	5.000000	23.000000
0.920000	56.000000	62.860000	0.000000	0.000000	142.000000	52.000000	0.000000	10.000000
0.930000	56.000000	62.860000	0.000000	0.000000	142.000000	52.000000	0.000000	0.000000
0.940000	55.880000	62.860000	0.000000	0.000000	143.000000	51.000000	-12.000000	0.000000
0.950000	55.770000	62.700000	0.000000	0.000000	143.000000	51.000000	-11.000000	-16.000000
0.960000	55.630000	62.570000	0.000000	0.000000	142.000000	50.000000	-14.000000	-13.000000
0.970000	55.460000	62.440000	0.000000	0.000000	142.000000	50.000000	-17.000000	-13.000000
0.980000	55.280000	62.310000	0.000000	0.000000	142.000000	50.000000	-18.000000	-13.000000
0.990000	55.120000	62.220000	0.000000	0.000000	142.000000	50.000000	-16.000000	-9.000000
1.000000	54.990000	62.150000	0.000000	0.000000	142.000000	50.000000	-13.000000	-7.000000
1.010000	54.990000	62.150000	0.000000	0.000000	141.000000	51.000000	0.000000	0.000000
1.020000	54.990000	62.220000	0.000000	0.000000	141.000000	51.000000	0.000000	7.000000
1.030000	54.990000	62.300000	0.000000	0.000000	141.000000	51.000000	0.000000	8.000000
1.040000	54.990000	62.390000	0.000000	0.000000	140.000000	51.000000	0.000000	9.000000
1.050000	54.990000	62.510000	0.000000	0.000000	140.000000	51.000000	0.000000	12.000000
1.060000	55.130000	62.650000	0.000000	0.000000	140.000000	51.000000	14.000000	14.000000
1.070000	55.250000	62.800000	0.000000	0.000000	140.000000	51.000000	12.000000	15.000000
1.080000	55.360000	62.950000	0.000000	0.000000	140.000000	51.000000	11.000000	15.000000
1.090000	55.500000	63.100000	0.000000	0.000000	140.000000	51.000000	14.000000	15.000000
1.100000	55.620000	63.220000	0.000000	0.000000	141.000000	50.000000	12.000000	12.000000
1.110000	55.730000	63.330000	0.000000	0.000000	141.000000	50.000000	11.000000	11.000000
1.120000	55.830000	63.490000	0.000000	0.000000	141.000000	50.000000	10.000000	16.000000
1.130000	55.950000	63.680000	0.000000	0.000000	141.000000	50.000000	12.000000	19.000000
1.140000	56.050000	63.810000	0.000000	0.000000	141.000000	50.000000	10.000000	13.000000
1.150000	56.130000	63.900000	0.000000	0.000000	141.000000	50.000000	8.000000	9.000000
1.160000	56.180000	63.900000	0.000000	0.000000	141.000000	50.000000	5.000000	0.000000
1.170000	56.180000	63.960000	0.000000	0.000000	141.000000	50.000000	0.000000	6.000000
1.180000	56.180000	63.960000	0.000000	0.000000	141.000000	50.000000	0.000000	0.000000
1.190000	56.180000	63.960000	0.000000	0.000000	140.000000	51.000000	0.000000	0.000000
1.200000	56.240000	64.010000	0.000000	0.000000	140.000000	51.000000	6.000000	5.000000
1.210000	56.240000	64.070000	0.000000	0.000000	140.000000	51.000000	0.000000	6.000000
1.220000	56.310000	64.190000	0.000000	0.000000	141.000000	51.000000	7.000000	12.000000
1.230000	56.410000	64.350000	0.000000	0.000000	141.000000	51.000000	10.000000	16.000000
1.240000	56.410000	64.350000	56.000000	1.000000	140.000000	52.000000	0.000000	0.000000
1.250000	56.640000	64.700000	132.000000	0.000000	140.000000	52.000000	23.000000	35.000000
1.260000	56.710000	64.930000	187.000000	0.000000	141.000000	52.000000	7.000000	23.000000
1.270000	56.710000	65.010000	239.000000	0.000000	141.000000	52.000000	0.000000	8.000000
1.280000	56.710000	65.100000	279.000000	0.000000	141.000000	52.000000	0.000000	9.000000
1.290000	56.710000	65.160000	305.000000	0.000000	141.000000	52.000000	0.000000	6.000000
1.300000	56.710000	65.160000	354.000000	0.000000	141.000000	52.000000	0.000000	0.000000
1.310000	56.620000	65.210000	394.000000	0.000000	141.000000	52.000000	-9.000000	5.000000
1.320000	56.620000	65.210000	417.000000	0.000000	141.000000	52.000000	0.000000	0.000000
1.330000	56.540000	65.090000	418.000000	0.000000	141.000000	52.000000	-8.000000	-12.000000
1.340000	56.330000	64.910000	422.000000	0.000000	141.000000	52.000000	-21.000000	-18.000000
1.350000	56.020000	64.440000	415.000000	0.000000	141.000000	52.000000	-31.000000	-47.000000
1.360000	55.700000	63.800000	425.000000	0.000000	140.000000	52.000000	-32.000000	-64.000000
1.370000	55.400000	63.230000	414.000000	0.000000	140.000000	52.000000	-30.000000	-57.000000
1.380000	55.160000	62.630000	413.000000	0.000000	140.000000	52.000000	-24.000000	-60.000000
1.390000	55.000000	62.170000	400.000000	0.000000	140.000000	52.000000	-16.000000	-46.000000
1.400000	55.000000	61.820000	394.000000	0.000000	140.000000	52.000000	0.000000	-35.000000
1.410000	55.000000	61.630000	400.000000	0.000000	141.000000	51.000000	0.000000	-19.000000
1.420000	55.190000	61.550000	412.000000	0.000000	141.000000	51.000000	19.000000	-8.000000
1.430000	55.380000	61.550000	417.000000	0.000000	141.000000	51.000000	19.000000	0.000000
1.440000	55.660000	61.650000	447.000000	0.000000	140.000000	51.000000	28.000000	10.000000
1.450000	55.980000	61.860000	469.000000	0.000000	140.000000	51.000000	32.000000	21.000000
1.460000	56.310000	62.150000	470.000000	0.000000	141.000000	51.000000	33.000000	29.000000
1.470000	56.630000	62.480000	472.000000	0.000000	141.000000	51.000000	32.000000	33.000000
1.480000	56.970000	62.870000	492.000000	0.000000	141.000000	51.000000	34.000000	39.000000
1.490000	57.360000	63.290000	514.000000	0.000000	141.000000	51.000000	39.000000	42.000000
1.500000	57.820000	63.770000	512.000000	0.000000	141.000000	51.000000	46.000000	48.000000
1.510000	58.290000	64.330000	515.000000	0.000000	141.000000	51.000000	47.000000	56.000000
1.520000	58.690000	64.950000	519.000000	0.000000	141.000000	51.000000	40.000000	62.000000
1.530000	59.050000	65.410000	519.000000	0.000000	140.000000	52.000000	36.000000	46.000000
1.540000	59.300000	65.800000	518.000000	0.000000	140.000000	52.000000	25.000000	39.000000
1.550000	59.420000	66.090000	515.000000	0.000000	140.000000	52.000000	12.000000	29.000000
1.560000	59.420000	66.260000	513.000000	0.000000	139.000000	52.000000	0.000000	17.000000
1.570000	59.370000	66.350000	521.000000	0.000000	139.000000	52.000000	-5.000000	9.000000
1.580000	59.280000	66.350000	522.000000	0.000000	139.000000	52.000000	-9.000000	0.000000
1.590000	59.190000	66.350000	521.000000	0.000000	137.000000	53.000000	-9.000000	0.000000
1.600000	59.050000	66.200000	519.000000	0.000000	137.000000	53.000000	-14.000000	-15.000000
1.610000	58.870000	66.000000	519.000000	0.000000	137.000000	53.000000	-18.000000	-20.000000
1.620000	58.630000	65.650000	513.000000	0.000000	137.000000	53.000000	-24.000000	-35.000000
1.630000	58.370000	65.210000	522.000000	0.000000	137.000000	53.000000	-26.000000	-44.000000
1.640000	58.090000	64.780000	512.000000	0.000000	137.000000	53.000000	-28.000000	-43.000000
1.650000	57.860000	64.370000	510.000000	0.000000	137.000000	52.000000	-23.000000	-41.000000
1.660000	57.660000	63.980000	507.000000	0.000000	137.000000	52.000000	-20.000000	-39.000000
1.670000	57.520000	63.610000	505.000000	0.000000	137.000000	52.000000	-14.000000	-37.000000
1.680000	57.370000	63.210000	504.000000	0.000000	138.000000	51.000000	-15.000000	-40.000000
1.690000	57.370000	62.920000	507.000000	0.000000	138.000000	51.000000	0.000000	-29.000000
1.700000	57.370000	62.700000	512.000000	0.000000	138.000000	51.000000	0.000000	-22.000000
1.710000	57.500000	62.490000	514.000000	0.000000	141.000000	51.000000	13.000000	-21.000000
1.720000	57.670000	62.370000	518.000000	0.000000	141.000000	51.000000	17.000000	-12.000000
1.730000	57.940000	62.310000	521.000000	0.000000	141.000000	51.000000	27.000000	-6.000000
1.740000	58.250000	62.390000	533.000000	0.000000	141.000000	51.000000	31.000000	8.000000
1.750000	58.570000	62.650000	545.000000	0.000000	141.000000	51.000000	32.000000	26.000000
1.760000	58.930000	63.040000	563.000000	0.000000	141.000000	51.000000	36.000000	39.000000
1.770000	59.300000	63.550000	572.000000	0.000000	140.000000	51.000000	37.000000	51.000000
1.780000	59.660000	64.090000	583.000000	0.000000	138.000000	51.000000	36.000000	54.000000
1.790000	59.950000	64.640000	581.000000	0.000000	138.000000	51.000000	29.000000	55.000000
1.800000	60.150000	65.140000	569.000000	0.000000	137.000000	51.000000	20.000000	50.000000
1.810000	60.280000	65.490000	563.000000	0.000000	137.000000	51.000000	13.000000	35.000000
1.820000	60.280000	65.740000	569.000000	0.000000	138.000000	51.000000	0.000000	25.000000
1.830000	60.280000	65.890000	566.000000	0.000000	137.000000	52.000000	0.000000	15.000000
1.840000	60.280000	65.990000	568.000000	0.000000	137.000000	52.000000	0.000000	10.000000
1.850000	60.280000	65.990000	551.000000	0.000000	139.000000	52.000000	0.000000	0.000000
1.860000	60.190000	65.990000	538.000000	0.000000	139.000000	52.000000	-9.000000	0.000000
1.870000	60.110000	65.930000	512.000000	0.000000	139.000000	52.000000	-8.000000	-6.000000
1.880000	59.950000	65.720000	488.000000	0.000000	139.000000	52.000000	-16.000000	-21.000000
1.890000	59.790000	65.410000	477.000000	0.000000	139.000000	52.000000	-16.000000	-31.000000
1.900000	59.630000	65.080000	475.000000	0.000000	139.000000	52.000000	-16.000000	-33.000000
1.910000	59.570000	64.720000	475.000000	0.000000	139.000000	52.000000	-6.000000	-36.000000
1.920000	59.570000	64.310000	473.000000	0.000000	139.000000	52.000000	0.000000	-41.000000
1.930000	59.570000	64.010000	469.000000	0.000000	137.000000	52.000000	0.000000	-30.000000
1.940000	59.570000	63.790000	468.000000	0.000000	137.000000	52.000000	0.000000	-22.000000
1.950000	59.620000	63.700000	483.000000	0.000000	137.000000	52.000000	5.000000	-9.000000
1.960000	59.770000	63.700000	494.000000	0.000000	138.000000	51.000000	15.000000	0.000000
1.970000	59.990000	63.830000	512.000000	0.000000	138.000000	51.000000	22.000000	13.000000
1.980000	60.270000	64.180000	514.000000	0.000000	137.000000	51.000000	28.000000	35.000000
1.990000	60.590000	64.580000	518.000000	0.000000	138.000000	51.000000	32.000000	40.000000
2.000000	60.930000	65.010000	522.000000	0.000000	138.000000	51.000000	34.000000	43.000000
2.010000	61.200000	65.390000	522.000000	0.000000	138.000000	51.000000	27.000000	38.000000
2.020000	61.420000	65.750000	522.000000	0.000000	139.000000	52.000000	22.000000	36.000000
2.030000	61.570000	65.940000	520.000000	0.000000	139.000000	52.000000	15.000000	19.000000
2.040000	61.570000	66.020000	522.000000	0.000000	139.000000	52.000000	0.000000	8.000000
2.050000	61.570000	65.960000	520.000000	0.000000	139.000000	52.000000	0.000000	-6.000000
2.060000	61.480000	65.870000	519.000000	0.000000	140.000000	53.000000	-9.000000	-9.000000
2.070000	61.350000	65.720000	510.000000	0.000000	140.000000	53.000000	-13.000000	-15.000000
2.080000	61.160000	65.360000	504.000000	0.000000	140.000000	53.000000	-19.000000	-36.000000
2.090000	60.950000	64.890000	481.000000	0.000000	140.000000	53.000000	-21.000000	-47.000000
2.100000	60.810000	64.550000	471.000000	0.000000	139.000000	52.000000	-14.000000	-34.000000
2.110000	60.810000	64.280000	452.000000	0.000000	139.000000	52.000000	0.000000	-27.000000
2.120000	60.810000	64.070000	453.000000	0.000000	139.000000	52.000000	0.000000	-21.000000
2.130000	60.860000	64.020000	467.000000	0.000000	139.000000	52.000000	5.000000	-5.000000
2.140000	60.970000	64.070000	501.000000	0.000000	140.000000	52.000000	11.000000	5.000000
2.150000	61.130000	64.190000	524.000000	0.000000	140.000000	52.000000	16.000000	12.000000
2.160000	61.360000	64.480000	535.000000	0.000000	140.000000	52.000000	23.000000	29.000000
2.170000	61.720000	64.920000	551.000000	0.000000	140.000000	52.000000	36.000000	44.000000
2.180000	62.170000	65.450000	561.000000	0.000000	139.000000	52.000000	45.000000	53.000000
2.190000	62.710000	66.020000	592.000000	0.000000	139.000000	52.000000	54.000000	57.000000
2.200000	63.300000	66.730000	594.000000	0.000000	139.000000	52.000000	59.000000	71.000000
2.210000	63.960000	67.540000	592.000000	0.000000	140.000000	53.000000	66.000000	81.000000
