t	x	y	pressure	penup	azimuth	inclination	v_x	v_y
0.000000	93.120000	66.020000	44.000000	1.000000	144.000000	56.000000	0.000000	0.000000
0.010000	93.940000	66.350000	101.000000	0.000000	144.000000	56.000000	82.000000	33.000000
0.020000	94.260000	66.520000	187.000000	0.000000	141.000000	56.000000	32.000000	17.000000
0.030000	94.520000	66.660000	254.000000	0.000000	141.000000	56.000000	26.000000	14.000000
0.040000	94.670000	66.790000	315.000000	0.000000	141.000000	56.000000	15.000000	13.000000
0.050000	94.670000	66.890000	366.000000	0.000000	141.000000	56.000000	0.000000	10.000000
0.060000	94.620000	66.960000	387.000000	0.000000	141.000000	56.000000	-5.000000	7.000000
0.070000	94.410000	66.960000	394.000000	0.000000	141.000000	56.000000	-21.000000	0.000000
0.080000	93.870000	66.900000	396.000000	0.000000	141.000000	56.000000	-54.000000	-6.000000
0.090000	93.120000	66.460000	396.000000	0.000000	141.000000	56.000000	-75.000000	-44.000000
0.100000	92.070000	65.780000	407.000000	0.000000	141.000000	56.000000	-105.000000	-68.000000
0.110000	90.910000	64.880000	414.000000	0.000000	141.000000	56.000000	-116.000000	-90.000000
0.120000	89.670000	63.770000	449.000000	0.000000	141.000000	56.000000	-124.000000	-111.000000
0.130000	88.190000	62.530000	502.000000	0.000000	141.000000	55.000000	-148.000000	-124.000000
0.140000	86.760000	61.440000	541.000000	0.000000	141.000000	55.000000	-143.000000	-109.000000
0.150000	85.860000	60.470000	554.000000	0.000000	141.000000	55.000000	-90.000000	-97.000000
0.160000	85.280000	59.580000	562.000000	0.000000	142.000000	54.000000	-58.000000	-89.000000
0.170000	85.280000	59.140000	595.000000	0.000000	142.000000	54.000000	0.000000	-44.000000
0.180000	85.810000	58.700000	633.000000	0.000000	144.000000	54.000000	53.000000	-44.000000
0.190000	86.750000	58.700000	667.000000	0.000000	145.000000	54.000000	94.000000	0.000000
0.200000	88.720000	58.940000	699.000000	0.000000	145.000000	54.000000	197.000000	24.000000
0.210000	91.420000	59.680000	716.000000	0.000000	145.000000	54.000000	270.000000	74.000000
0.220000	94.610000	60.630000	720.000000	0.000000	145.000000	54.000000	319.000000	95.000000
0.230000	98.260000	61.720000	745.000000	0.000000	146.000000	54.000000	365.000000	109.000000
0.240000	102.030000	62.760000	750.000000	0.000000	145.000000	55.000000	377.000000	104.000000
0.250000	105.890000	63.750000	754.000000	0.000000	145.000000	55.000000	386.000000	99.000000
0.260000	109.420000	64.670000	737.000000	0.000000	145.000000	55.000000	353.000000	92.000000
0.270000	112.560000	65.380000	696.000000	0.000000	144.000000	56.000000	314.000000	71.000000
0.280000	115.450000	65.940000	641.000000	0.000000	144.000000	56.000000	289.000000	56.000000
0.290000	117.250000	66.340000	445.000000	0.000000	143.000000	56.000000	180.000000	40.000000
0.300000	118.390000	66.620000	130.000000	0.000000	142.000000	57.000000	114.000000	28.000000
0.310000	118.390000	66.620000	0.000000	1.000000	140.000000	58.000000	0.000000	0.000000
0.320000	119.080000	66.960000	0.000000	0.000000	139.000000	58.000000	69.000000	34.000000
0.330000	118.740000	67.080000	0.000000	0.000000	138.000000	59.000000	-34.000000	12.000000
0.340000	118.090000	67.160000	0.000000	0.000000	138.000000	59.000000	-65.000000	8.000000
0.350000	117.500000	67.220000	0.000000	0.000000	136.000000	58.000000	-59.000000	6.000000
0.360000	116.820000	67.300000	0.000000	0.000000	136.000000	58.000000	-68.000000	8.000000
0.370000	116.090000	67.300000	0.000000	0.000000	138.000000	58.000000	-73.000000	0.000000
0.380000	115.230000	67.190000	0.000000	0.000000	138.000000	57.000000	-86.000000	-11.000000
0.390000	114.350000	66.940000	0.000000	0.000000	139.000000	55.000000	-88.000000	-25.000000
0.400000	113.460000	66.940000	0.000000	0.000000	139.000000	52.000000	-89.000000	0.000000
0.410000	112.710000	67.010000	0.000000	0.000000	138.000000	51.000000	-75.000000	7.000000
0.420000	111.930000	67.100000	0.000000	0.000000	139.000000	48.000000	-78.000000	9.000000
0.430000	111.120000	67.170000	0.000000	0.000000	139.000000	45.000000	-81.000000	7.000000
0.440000	110.340000	67.300000	0.000000	0.000000	138.000000	43.000000	-78.000000	13.000000
0.450000	109.590000	67.480000	0.000000	0.000000	137.000000	39.000000	-75.000000	18.000000
0.460000	108.910000	67.580000	0.000000	0.000000	138.000000	37.000000	-68.000000	10.000000
0.470000	108.240000	67.650000	0.000000	0.000000	140.000000	35.000000	-67.000000	7.000000
0.480000	107.550000	67.650000	0.000000	0.000000	143.000000	33.000000	-69.000000	0.000000
0.490000	107.030000	67.600000	0.000000	0.000000	148.000000	32.000000	-52.000000	-5.000000
0.500000	106.550000	67.530000	0.000000	0.000000	151.000000	31.000000	-48.000000	-7.000000
0.510000	106.130000	67.470000	0.000000	0.000000	155.000000	30.000000	-42.000000	-6.000000
0.520000	105.760000	67.360000	0.000000	0.000000	158.000000	30.000000	-37.000000	-11.000000
0.530000	105.450000	67.240000	0.000000	0.000000	160.000000	30.000000	-31.000000	-12.000000
0.540000	105.180000	67.240000	0.000000	0.000000	162.000000	31.000000	-27.000000	0.000000
0.550000	104.980000	67.340000	0.000000	0.000000	162.000000	31.000000	-20.000000	10.000000
0.560000	104.780000	67.490000	0.000000	0.000000	162.000000	32.000000	-20.000000	15.000000
0.570000	104.710000	67.820000	0.000000	0.000000	160.000000	31.000000	-7.000000	33.000000
0.580000	104.710000	68.260000	0.000000	0.000000	159.000000	32.000000	0.000000	44.000000
0.590000	104.710000	68.870000	0.000000	0.000000	158.000000	32.000000	0.000000	61.000000
0.600000	104.550000	69.480000	0.000000	0.000000	156.000000	33.000000	-16.000000	61.000000
0.610000	104.320000	70.090000	0.000000	0.000000	153.000000	36.000000	-23.000000	61.000000
0.620000	104.170000	70.750000	0.000000	0.000000	149.000000	39.000000	-15.000000	66.000000
0.630000	104.220000	71.410000	0.000000	0.000000	146.000000	41.000000	5.000000	66.000000
0.640000	104.410000	72.140000	0.000000	0.000000	142.000000	43.000000	19.000000	73.000000
0.650000	104.700000	72.910000	0.000000	0.000000	141.000000	45.000000	29.000000	77.000000
0.660000	104.810000	73.630000	0.000000	0.000000	138.000000	47.000000	11.000000	72.000000
0.670000	104.810000	74.750000	0.000000	0.000000	138.000000	48.000000	0.000000	112.000000
0.680000	105.230000	76.150000	0.000000	0.000000	138.000000	48.000000	42.000000	140.000000
0.690000	105.670000	77.030000	0.000000	0.000000	142.000000	47.000000	44.000000	88.000000
0.700000	105.970000	77.540000	0.000000	0.000000	147.000000	45.000000	30.000000	51.000000
0.710000	106.170000	77.800000	0.000000	0.000000	152.000000	42.000000	20.000000	26.000000
0.720000	106.060000	77.860000	0.000000	0.000000	156.000000	40.000000	-11.000000	6.000000
0.730000	105.920000	77.510000	0.000000	0.000000	159.000000	36.000000	-14.000000	-35.000000
0.740000	105.750000	76.880000	0.000000	0.000000	161.000000	35.000000	-17.000000	-63.000000
0.750000	105.560000	75.920000	0.000000	0.000000	162.000000	34.000000	-19.000000	-96.000000
0.760000	105.110000	74.740000	0.000000	0.000000	163.000000	33.000000	-45.000000	-118.000000
0.770000	104.480000	73.420000	0.000000	0.000000	162.000000	34.000000	-63.000000	-132.000000
0.780000	104.480000	72.870000	0.000000	0.000000	160.000000	36.000000	0.000000	-55.000000
0.790000	104.070000	71.830000	0.000000	0.000000	158.000000	39.000000	-41.000000	-104.000000
0.800000	103.430000	70.470000	0.000000	0.000000	155.000000	41.000000	-64.000000	-136.000000
0.810000	102.540000	69.330000	0.000000	0.000000	152.000000	44.000000	-89.000000	-114.000000
0.820000	101.820000	68.300000	0.000000	0.000000	150.000000	45.000000	-72.000000	-103.000000
0.830000	101.200000	67.340000	0.000000	0.000000	147.000000	46.000000	-62.000000	-96.000000
0.840000	100.460000	66.110000	0.000000	0.000000	145.000000	46.000000	-74.000000	-123.000000
0.850000	99.780000	65.580000	0.000000	0.000000	144.000000	46.000000	-68.000000	-53.000000
0.860000	99.210000	65.520000	0.000000	0.000000	142.000000	45.000000	-57.000000	-6.000000
0.870000	98.910000	65.640000	0.000000	0.000000	144.000000	46.000000	-30.000000	12.000000
0.880000	98.790000	66.040000	0.000000	0.000000	146.000000	46.000000	-12.000000	40.000000
0.890000	98.680000	66.640000	0.000000	0.000000	149.000000	46.000000	-11.000000	60.000000
0.900000	98.600000	67.440000	0.000000	0.000000	152.000000	46.000000	-8.000000	80.000000
0.910000	98.550000	68.390000	0.000000	0.000000	155.000000	47.000000	-5.000000	95.000000
0.920000	98.550000	69.430000	0.000000	0.000000	159.000000	48.000000	0.000000	104.000000
0.930000	98.460000	69.990000	0.000000	0.000000	163.000000	50.000000	-9.000000	56.000000
0.940000	98.240000	70.350000	0.000000	0.000000	165.000000	50.000000	-22.000000	36.000000
0.950000	97.900000	70.580000	0.000000	0.000000	166.000000	52.000000	-34.000000	23.000000
0.960000	97.680000	70.910000	0.000000	0.000000	165.000000	53.000000	-22.000000	33.000000
0.970000	97.680000	71.200000	0.000000	0.000000	163.000000	54.000000	0.000000	29.000000
0.980000	97.780000	71.430000	0.000000	0.000000	163.000000	55.000000	10.000000	23.000000
0.990000	97.940000	71.520000	0.000000	0.000000	160.000000	56.000000	16.000000	9.000000
1.000000	98.050000	71.520000	0.000000	0.000000	159.000000	57.000000	11.000000	0.000000
1.010000	98.120000	71.340000	0.000000	0.000000	157.000000	58.000000	7.000000	-18.000000
1.020000	97.770000	70.890000	0.000000	0.000000	157.000000	58.000000	-35.000000	-45.000000
1.030000	97.450000	70.270000	0.000000	0.000000	157.000000	58.000000	-32.000000	-62.000000
1.040000	97.140000	69.710000	0.000000	0.000000	155.000000	58.000000	-31.000000	-56.000000
1.050000	97.140000	69.450000	0.000000	0.000000	155.000000	58.000000	0.000000	-26.000000
1.060000	96.910000	69.380000	0.000000	0.000000	156.000000	57.000000	-23.000000	-7.000000
1.070000	96.630000	69.380000	0.000000	0.000000	154.000000	56.000000	-28.000000	0.000000
1.080000	96.510000	69.700000	0.000000	0.000000	153.000000	56.000000	-12.000000	32.000000
1.090000	96.380000	70.220000	0.000000	0.000000	153.000000	56.000000	-13.000000	52.000000
1.100000	96.280000	70.940000	0.000000	0.000000	152.000000	56.000000	-10.000000	72.000000
1.110000	96.280000	71.760000	0.000000	0.000000	152.000000	56.000000	0.000000	82.000000
1.120000	96.340000	72.650000	0.000000	0.000000	151.000000	54.000000	6.000000	89.000000
1.130000	96.490000	73.550000	0.000000	0.000000	152.000000	54.000000	15.000000	90.000000
1.140000	96.700000	74.480000	0.000000	0.000000	153.000000	53.000000	21.000000	93.000000
1.150000	96.990000	75.430000	0.000000	0.000000	154.000000	52.000000	29.000000	95.000000
1.160000	97.300000	76.130000	0.000000	0.000000	157.000000	51.000000	31.000000	70.000000
1.170000	97.660000	76.830000	0.000000	0.000000	160.000000	48.000000	36.000000	70.000000
1.180000	98.080000	77.510000	0.000000	0.000000	164.000000	46.000000	42.000000	68.000000
1.190000	98.600000	78.170000	0.000000	0.000000	167.000000	42.000000	52.000000	66.000000
1.200000	99.180000	78.540000	0.000000	0.000000	168.000000	39.000000	58.000000	37.000000
1.210000	99.430000	78.730000	0.000000	0.000000	168.000000	36.000000	25.000000	19.000000
1.220000	99.430000	78.380000	0.000000	0.000000	167.000000	34.000000	0.000000	-35.000000
1.230000	99.360000	77.600000	0.000000	0.000000	166.000000	32.000000	-7.000000	-78.000000
1.240000	99.090000	76.530000	0.000000	0.000000	166.000000	31.000000	-27.000000	-107.000000
1.250000	98.780000	75.240000	0.000000	0.000000	165.000000	31.000000	-31.000000	-129.000000
1.260000	98.450000	73.920000	0.000000	0.000000	163.000000	33.000000	-33.000000	-132.000000
1.270000	98.340000	72.570000	0.000000	0.000000	163.000000	35.000000	-11.000000	-135.000000
1.280000	98.280000	71.580000	0.000000	0.000000	161.000000	38.000000	-6.000000	-99.000000
1.290000	98.380000	70.710000	0.000000	0.000000	162.000000	43.000000	10.000000	-87.000000
1.300000	98.580000	69.920000	0.000000	0.000000	162.000000	47.000000	20.000000	-79.000000
1.310000	98.770000	69.450000	0.000000	0.000000	165.000000	50.000000	19.000000	-47.000000
1.320000	98.980000	69.120000	0.000000	0.000000	167.000000	52.000000	21.000000	-33.000000
1.330000	99.240000	68.880000	0.000000	0.000000	167.000000	51.000000	26.000000	-24.000000
1.340000	99.560000	68.780000	0.000000	0.000000	165.000000	50.000000	32.000000	-10.000000
1.350000	100.020000	68.920000	0.000000	0.000000	162.000000	48.000000	46.000000	14.000000
1.360000	100.590000	69.230000	0.000000	0.000000	159.000000	44.000000	57.000000	31.000000
1.370000	101.040000	69.730000	0.000000	0.000000	158.000000	42.000000	45.000000	50.000000
1.380000	101.420000	70.280000	0.000000	0.000000	155.000000	40.000000	38.000000	55.000000
1.390000	101.740000	70.870000	0.000000	0.000000	150.000000	40.000000	32.000000	59.000000
1.400000	101.850000	71.340000	0.000000	0.000000	145.000000	40.000000	11.000000	47.000000
1.410000	101.750000	71.600000	0.000000	0.000000	140.000000	41.000000	-10.000000	26.000000
1.420000	101.520000	71.720000	0.000000	0.000000	135.000000	43.000000	-23.000000	12.000000
1.430000	101.520000	71.850000	0.000000	0.000000	132.000000	45.000000	0.000000	13.000000
1.440000	101.520000	71.940000	0.000000	0.000000	130.000000	46.000000	0.000000	9.000000
1.450000	101.330000	71.800000	0.000000	0.000000	127.000000	46.000000	-19.000000	-14.000000
1.460000	100.990000	71.530000	0.000000	0.000000	126.000000	47.000000	-34.000000	-27.000000
1.470000	100.380000	71.030000	0.000000	0.000000	126.000000	47.000000	-61.000000	-50.000000
1.480000	99.750000	70.510000	0.000000	0.000000	126.000000	47.000000	-63.000000	-52.000000
1.490000	99.100000	69.950000	0.000000	0.000000	126.000000	47.000000	-65.000000	-56.000000
1.500000	98.500000	69.400000	0.000000	0.000000	127.000000	48.000000	-60.000000	-55.000000
1.510000	97.910000	68.880000	0.000000	0.000000	129.000000	49.000000	-59.000000	-52.000000
1.520000	97.360000	68.390000	0.000000	0.000000	135.000000	50.000000	-55.000000	-49.000000
1.530000	96.890000	67.860000	0.000000	0.000000	140.000000	50.000000	-47.000000	-53.000000
1.540000	96.460000	67.360000	0.000000	0.000000	144.000000	49.000000	-43.000000	-50.000000
1.550000	95.910000	67.020000	0.000000	0.000000	149.000000	49.000000	-55.000000	-34.000000
1.560000	95.270000	66.790000	0.000000	0.000000	153.000000	48.000000	-64.000000	-23.000000
1.570000	94.840000	66.340000	0.000000	0.000000	156.000000	46.000000	-43.000000	-45.000000
1.580000	94.400000	65.880000	0.000000	0.000000	158.000000	46.000000	-44.000000	-46.000000
1.590000	93.940000	65.420000	0.000000	0.000000	157.000000	46.000000	-46.000000	-46.000000
1.600000	93.650000	65.040000	0.000000	0.000000	155.000000	45.000000	-29.000000	-38.000000
1.610000	93.390000	64.740000	0.000000	0.000000	152.000000	46.000000	-26.000000	-30.000000
1.620000	93.210000	64.490000	0.000000	0.000000	149.000000	48.000000	-18.000000	-25.000000
1.630000	93.050000	63.680000	0.000000	0.000000	146.000000	49.000000	-16.000000	-81.000000
1.640000	92.950000	63.560000	0.000000	0.000000	145.000000	50.000000	-10.000000	-12.000000
1.650000	92.870000	63.890000	0.000000	0.000000	143.000000	50.000000	-8.000000	33.000000
1.660000	92.750000	63.750000	0.000000	0.000000	142.000000	49.000000	-12.000000	-14.000000
1.670000	92.590000	63.560000	0.000000	0.000000	141.000000	50.000000	-16.000000	-19.000000
1.680000	92.390000	63.320000	0.000000	0.000000	141.000000	50.000000	-20.000000	-24.000000
1.690000	92.210000	63.090000	0.000000	0.000000	138.000000	50.000000	-18.000000	-23.000000
1.700000	92.030000	62.910000	0.000000	0.000000	138.000000	50.000000	-18.000000	-18.000000
1.710000	91.880000	62.750000	0.000000	0.000000	137.000000	51.000000	-15.000000	-16.000000
1.720000	91.700000	62.630000	0.000000	0.000000	137.000000	51.000000	-18.000000	-12.000000
1.730000	91.500000	62.470000	0.000000	0.000000	137.000000	51.000000	-20.000000	-16.000000
1.740000	91.260000	62.270000	0.000000	0.000000	136.000000	51.000000	-24.000000	-20.000000
1.750000	91.050000	62.050000	0.000000	0.000000	136.000000	51.000000	-21.000000	-22.000000
1.760000	90.880000	61.860000	0.000000	0.000000	137.000000	52.000000	-17.000000	-19.000000
1.770000	90.720000	61.650000	0.000000	0.000000	136.000000	52.000000	-16.000000	-21.000000
1.780000	90.600000	61.440000	0.000000	0.000000	136.000000	52.000000	-12.000000	-21.000000
1.790000	90.370000	61.220000	0.000000	0.000000	136.000000	54.000000	-23.000000	-22.000000
1.800000	90.050000	61.020000	0.000000	0.000000	136.000000	54.000000	-32.000000	-20.000000
1.810000	89.860000	60.830000	0.000000	0.000000	136.000000	54.000000	-19.000000	-19.000000
1.820000	89.680000	60.720000	0.000000	0.000000	137.000000	54.000000	-18.000000	-11.000000
1.830000	89.540000	60.640000	0.000000	0.000000	137.000000	54.000000	-14.000000	-8.000000
1.840000	89.460000	60.640000	0.000000	0.000000	137.000000	54.000000	-8.000000	0.000000
1.850000	89.460000	60.640000	0.000000	0.000000	139.000000	55.000000	0.000000	0.000000
1.860000	89.460000	60.640000	0.000000	0.000000	139.000000	55.000000	0.000000	0.000000
1.870000	89.520000	60.640000	0.000000	0.000000	139.000000	55.000000	6.000000	0.000000
1.880000	89.570000	60.640000	0.000000	0.000000	139.000000	55.000000	5.000000	0.000000
1.890000	89.640000	60.640000	0.000000	0.000000	139.000000	55.000000	7.000000	0.000000
1.900000	89.640000	60.570000	0.000000	0.000000	139.000000	55.000000	0.000000	-7.000000
1.910000	89.710000	60.570000	0.000000	0.000000	139.000000	55.000000	7.000000	0.000000
1.920000	89.820000	60.520000	0.000000	0.000000	140.000000	55.000000	11.000000	-5.000000
1.930000	89.930000	60.520000	0.000000	0.000000	140.000000	55.000000	11.000000	0.000000
1.940000	90.060000	60.590000	0.000000	0.000000	140.000000	55.000000	13.000000	7.000000
1.950000	90.190000	60.640000	0.000000	0.000000	140.000000	55.000000	13.000000	5.000000
1.960000	90.280000	60.640000	0.000000	0.000000	140.000000	55.000000	9.000000	0.000000
1.970000	90.330000	60.690000	0.000000	0.000000	141.000000	56.000000	5.000000	5.000000
1.980000	90.330000	60.690000	0.000000	0.000000	141.000000	56.000000	0.000000	0.000000
1.990000	90.330000	60.590000	0.000000	0.000000	141.000000	56.000000	0.000000	-10.000000
2.000000	90.330000	60.520000	0.000000	0.000000	140.000000	56.000000	0.000000	-7.000000
2.010000	90.380000	60.430000	0.000000	0.000000	140.000000	56.000000	5.000000	-9.000000
2.020000	90.380000	60.430000	0.000000	0.000000	140.000000	56.000000	0.000000	0.000000
2.030000	90.500000	60.430000	0.000000	0.000000	140.000000	56.000000	12.000000	0.000000
2.040000	90.590000	60.430000	0.000000	0.000000	142.000000	57.000000	9.000000	0.000000
2.050000	90.670000	60.500000	0.000000	0.000000	142.000000	57.000000	8.000000	7.000000
2.060000	90.670000	60.500000	0.000000	0.000000	142.000000	57.000000	0.000000	0.000000
2.070000	90.670000	60.550000	0.000000	0.000000	142.000000	57.000000	0.000000	5.000000
2.080000	90.670000	60.550000	0.000000	0.000000	142.000000	57.000000	0.000000	0.000000
2.090000	90.670000	60.550000	0.000000	0.000000	142.000000	57.000000	0.000000	0.000000
2.100000	90.670000	60.550000	0.000000	0.000000	142.000000	57.000000	0.000000	0.000000
2.110000	90.750000	60.550000	0.000000	0.000000	140.000000	56.000000	8.000000	0.000000
2.120000	90.800000	60.550000	0.000000	0.000000	140.000000	56.000000	5.000000	0.000000
2.130000	90.890000	60.620000	0.000000	0.000000	140.000000	56.000000	9.000000	7.000000
2.140000	90.980000	60.620000	0.000000	0.000000	140.000000	56.000000	9.000000	0.000000
2.150000	91.060000	60.710000	0.000000	0.000000	140.000000	56.000000	8.000000	9.000000
2.160000	91.060000	60.770000	0.000000	0.000000	140.000000	56.000000	0.000000	6.000000
2.170000	91.060000	60.770000	0.000000	0.000000	140.000000	56.000000	0.000000	0.000000
2.180000	91.060000	60.770000	0.000000	0.000000	141.000000	56.000000	0.000000	0.000000
2.190000	90.990000	60.770000	0.000000	0.000000	141.000000	56.000000	-7.000000	0.000000
2.200000	90.990000	60.770000	0.000000	0.000000	141.000000	56.000000	0.000000	0.000000
2.210000	90.990000	60.770000	0.000000	0.000000	140.000000	55.000000	0.000000	0.000000
2.220000	90.990000	60.770000	0.000000	0.000000	140.000000	55.000000	0.000000	0.000000
