t	x	y	pressure	penup	azimuth	inclination	v_x	v_y
0.000000	88.100000	32.530000	5.000000	1.000000	156.000000	50.000000	0.000000	0.000000
0.010000	88.100000	32.530000	63.000000	1.000000	156.000000	50.000000	0.000000	0.000000
0.020000	88.100000	32.530000	130.000000	0.000000	156.000000	50.000000	0.000000	0.000000
0.030000	88.160000	32.780000	156.000000	0.000000	156.000000	50.000000	6.000000	25.000000
0.040000	88.160000	32.880000	175.000000	0.000000	156.000000	50.000000	0.000000	10.000000
0.050000	88.160000	33.010000	247.000000	0.000000	156.000000	50.000000	0.000000	13.000000
0.060000	88.210000	33.130000	317.000000	0.000000	157.000000	50.000000	5.000000	12.000000
0.070000	88.210000	33.250000	371.000000	0.000000	157.000000	51.000000	0.000000	12.000000
0.080000	88.160000	33.380000	417.000000	0.000000	157.000000	51.000000	-5.000000	13.000000
0.090000	88.060000	33.490000	452.000000	0.000000	157.000000	51.000000	-10.000000	11.000000
0.100000	87.890000	33.590000	473.000000	0.000000	157.000000	51.000000	-17.000000	10.000000
0.110000	87.660000	33.590000	490.000000	0.000000	157.000000	51.000000	-23.000000	0.000000
0.120000	87.300000	33.590000	491.000000	0.000000	157.000000	51.000000	-36.000000	0.000000
0.130000	86.770000	33.380000	483.000000	0.000000	157.000000	51.000000	-53.000000	-21.000000
0.140000	86.130000	33.040000	481.000000	0.000000	157.000000	51.000000	-64.000000	-34.000000
0.150000	85.350000	32.550000	478.000000	0.000000	157.000000	51.000000	-78.000000	-49.000000
0.160000	84.320000	31.850000	478.000000	0.000000	157.000000	51.000000	-103.000000	-70.000000
0.170000	83.130000	31.020000	473.000000	0.000000	155.000000	50.000000	-119.000000	-83.000000
0.180000	82.130000	30.130000	473.000000	0.000000	155.000000	50.000000	-100.000000	-89.000000
0.190000	81.370000	29.210000	475.000000	0.000000	154.000000	50.000000	-76.000000	-92.000000
0.200000	80.770000	28.200000	472.000000	0.000000	152.000000	51.000000	-60.000000	-101.000000
0.210000	80.360000	27.110000	475.000000	0.000000	152.000000	51.000000	-41.000000	-109.000000
0.220000	80.200000	26.210000	483.000000	0.000000	152.000000	51.000000	-16.000000	-90.000000
0.230000	80.200000	25.450000	483.000000	0.000000	150.000000	51.000000	0.000000	-76.000000
0.240000	80.500000	24.820000	496.000000	0.000000	149.000000	52.000000	30.000000	-63.000000
0.250000	81.330000	24.400000	515.000000	0.000000	149.000000	52.000000	83.000000	-42.000000
0.260000	82.510000	24.120000	551.000000	0.000000	149.000000	53.000000	118.000000	-28.000000
0.270000	83.820000	24.180000	591.000000	0.000000	148.000000	54.000000	131.000000	6.000000
0.280000	85.800000	24.620000	624.000000	0.000000	148.000000	54.000000	198.000000	44.000000
0.290000	88.220000	25.310000	664.000000	0.000000	149.000000	55.000000	242.000000	69.000000
0.300000	91.120000	26.260000	690.000000	0.000000	149.000000	55.000000	290.000000	95.000000
0.310000	94.270000	27.420000	714.000000	0.000000	150.000000	54.000000	315.000000	116.000000
0.320000	97.580000	28.730000	721.000000	0.000000	152.000000	54.000000	331.000000	131.000000
0.330000	100.970000	29.870000	746.000000	0.000000	153.000000	54.000000	339.000000	114.000000
0.340000	103.910000	30.980000	750.000000	0.000000	154.000000	53.000000	294.000000	111.000000
0.350000	106.560000	31.870000	751.000000	0.000000	156.000000	53.000000	265.000000	89.000000
0.360000	108.790000	32.620000	749.000000	0.000000	156.000000	53.000000	223.000000	75.000000
0.370000	110.510000	33.190000	719.000000	0.000000	158.000000	53.000000	172.000000	57.000000
0.380000	111.900000	33.490000	653.000000	0.000000	158.000000	53.000000	139.000000	30.000000
0.390000	112.350000	33.600000	537.000000	0.000000	158.000000	53.000000	45.000000	11.000000
0.400000	112.220000	33.530000	362.000000	0.000000	156.000000	53.000000	-13.000000	-7.000000
0.410000	112.220000	33.530000	0.000000	1.000000	156.000000	53.000000	0.000000	0.000000
0.420000	110.720000	32.900000	0.000000	0.000000	156.000000	53.000000	-150.000000	-63.000000
0.430000	109.350000	32.540000	0.000000	0.000000	155.000000	52.000000	-137.000000	-36.000000
0.440000	107.710000	32.180000	0.000000	0.000000	156.000000	53.000000	-164.000000	-36.000000
0.450000	105.830000	31.810000	0.000000	0.000000	156.000000	53.000000	-188.000000	-37.000000
0.460000	103.980000	31.410000	0.000000	0.000000	156.000000	53.000000	-185.000000	-40.000000
0.470000	102.140000	31.080000	0.000000	0.000000	156.000000	53.000000	-184.000000	-33.000000
0.480000	100.020000	30.780000	0.000000	0.000000	157.000000	52.000000	-212.000000	-30.000000
0.490000	97.910000	30.400000	0.000000	0.000000	157.000000	52.000000	-211.000000	-38.000000
0.500000	96.140000	29.990000	0.000000	0.000000	157.000000	52.000000	-177.000000	-41.000000
0.510000	94.590000	29.540000	0.000000	0.000000	156.000000	51.000000	-155.000000	-45.000000
0.520000	92.500000	28.970000	0.000000	0.000000	154.000000	52.000000	-209.000000	-57.000000
0.530000	90.980000	28.330000	0.000000	0.000000	151.000000	51.000000	-152.000000	-64.000000
0.540000	89.840000	27.790000	0.000000	0.000000	151.000000	50.000000	-114.000000	-54.000000
0.550000	88.730000	27.190000	0.000000	0.000000	149.000000	49.000000	-111.000000	-60.000000
0.560000	87.850000	26.540000	0.000000	0.000000	150.000000	48.000000	-88.000000	-65.000000
0.570000	87.110000	26.060000	0.000000	0.000000	150.000000	47.000000	-74.000000	-48.000000
0.580000	86.550000	25.540000	0.000000	0.000000	151.000000	46.000000	-56.000000	-52.000000
0.590000	86.070000	25.260000	0.000000	0.000000	151.000000	46.000000	-48.000000	-28.000000
0.600000	85.630000	25.160000	0.000000	0.000000	153.000000	46.000000	-44.000000	-10.000000
0.610000	85.290000	24.960000	0.000000	0.000000	154.000000	45.000000	-34.000000	-20.000000
0.620000	84.970000	24.830000	0.000000	0.000000	153.000000	46.000000	-32.000000	-13.000000
0.630000	84.840000	24.750000	0.000000	0.000000	154.000000	46.000000	-13.000000	-8.000000
0.640000	84.840000	24.700000	0.000000	0.000000	151.000000	47.000000	0.000000	-5.000000
0.650000	84.840000	24.700000	0.000000	0.000000	150.000000	48.000000	0.000000	0.000000
0.660000	84.900000	24.700000	0.000000	0.000000	148.000000	48.000000	6.000000	0.000000
0.670000	85.010000	24.770000	0.000000	0.000000	148.000000	48.000000	11.000000	7.000000
0.680000	85.150000	24.900000	0.000000	0.000000	147.000000	49.000000	14.000000	13.000000
0.690000	85.330000	25.070000	0.000000	0.000000	146.000000	50.000000	18.000000	17.000000
0.700000	85.510000	25.280000	0.000000	0.000000	146.000000	50.000000	18.000000	21.000000
0.710000	85.640000	25.510000	0.000000	0.000000	145.000000	51.000000	13.000000	23.000000
0.720000	85.780000	25.760000	0.000000	0.000000	146.000000	52.000000	14.000000	25.000000
0.730000	85.890000	25.950000	0.000000	0.000000	146.000000	52.000000	11.000000	19.000000
0.740000	85.980000	26.090000	0.000000	0.000000	146.000000	53.000000	9.000000	14.000000
0.750000	85.980000	26.090000	91.000000	1.000000	146.000000	53.000000	0.000000	0.000000
0.760000	85.980000	26.090000	124.000000	0.000000	146.000000	53.000000	0.000000	0.000000
0.770000	85.660000	26.290000	149.000000	0.000000	146.000000	53.000000	-32.000000	20.000000
0.780000	85.360000	26.290000	211.000000	0.000000	146.000000	53.000000	-30.000000	0.000000
0.790000	85.020000	26.140000	296.000000	0.000000	146.000000	53.000000	-34.000000	-15.000000
0.800000	84.640000	25.920000	368.000000	0.000000	146.000000	53.000000	-38.000000	-22.000000
0.810000	84.300000	25.540000	430.000000	0.000000	146.000000	53.000000	-34.000000	-38.000000
0.820000	84.000000	25.060000	442.000000	0.000000	146.000000	53.000000	-30.000000	-48.000000
0.830000	84.000000	24.690000	471.000000	0.000000	145.000000	53.000000	0.000000	-37.000000
0.840000	84.180000	24.420000	473.000000	0.000000	145.000000	53.000000	18.000000	-27.000000
0.850000	84.560000	24.220000	483.000000	0.000000	145.000000	53.000000	38.000000	-20.000000
0.860000	85.110000	24.310000	489.000000	0.000000	145.000000	53.000000	55.000000	9.000000
0.870000	85.770000	24.550000	492.000000	0.000000	143.000000	52.000000	66.000000	24.000000
0.880000	86.400000	24.880000	514.000000	0.000000	146.000000	52.000000	63.000000	33.000000
0.890000	86.960000	25.370000	518.000000	0.000000	146.000000	52.000000	56.000000	49.000000
0.900000	87.480000	25.840000	527.000000	0.000000	147.000000	51.000000	52.000000	47.000000
0.910000	87.700000	26.250000	544.000000	0.000000	148.000000	50.000000	22.000000	41.000000
0.920000	87.700000	26.580000	553.000000	0.000000	149.000000	51.000000	0.000000	33.000000
0.930000	87.560000	26.850000	563.000000	0.000000	150.000000	50.000000	-14.000000	27.000000
0.940000	87.320000	26.900000	566.000000	0.000000	150.000000	50.000000	-24.000000	5.000000
0.950000	87.010000	26.810000	566.000000	0.000000	150.000000	50.000000	-31.000000	-9.000000
0.960000	86.650000	26.540000	569.000000	0.000000	151.000000	49.000000	-36.000000	-27.000000
0.970000	86.370000	26.230000	574.000000	0.000000	151.000000	49.000000	-28.000000	-31.000000
0.980000	86.140000	25.860000	580.000000	0.000000	150.000000	50.000000	-23.000000	-37.000000
0.990000	86.140000	25.480000	577.000000	0.000000	150.000000	50.000000	0.000000	-38.000000
1.000000	86.260000	25.250000	586.000000	0.000000	148.000000	50.000000	12.000000	-23.000000
1.010000	86.550000	25.110000	586.000000	0.000000	148.000000	50.000000	29.000000	-14.000000
1.020000	87.000000	25.110000	577.000000	0.000000	148.000000	50.000000	45.000000	0.000000
1.030000	87.550000	25.350000	577.000000	0.000000	148.000000	50.000000	55.000000	24.000000
1.040000	88.110000	25.670000	575.000000	0.000000	148.000000	50.000000	56.000000	32.000000
1.050000	88.540000	26.010000	577.000000	0.000000	148.000000	50.000000	43.000000	34.000000
1.060000	88.890000	26.370000	578.000000	0.000000	148.000000	50.000000	35.000000	36.000000
1.070000	89.100000	26.740000	592.000000	0.000000	148.000000	50.000000	21.000000	37.000000
1.080000	89.150000	27.110000	633.000000	0.000000	148.000000	50.000000	5.000000	37.000000
1.090000	89.090000	27.400000	652.000000	0.000000	148.000000	50.000000	-6.000000	29.000000
1.100000	88.980000	27.540000	671.000000	0.000000	148.000000	50.000000	-11.000000	14.000000
1.110000	88.810000	27.540000	673.000000	0.000000	148.000000	50.000000	-17.000000	0.000000
1.120000	88.600000	27.390000	669.000000	0.000000	146.000000	50.000000	-21.000000	-15.000000
1.130000	88.450000	27.210000	669.000000	0.000000	146.000000	50.000000	-15.000000	-18.000000
1.140000	88.320000	26.920000	669.000000	0.000000	146.000000	50.000000	-13.000000	-29.000000
1.150000	88.320000	26.560000	670.000000	0.000000	148.000000	50.000000	0.000000	-36.000000
1.160000	88.460000	26.300000	668.000000	0.000000	148.000000	50.000000	14.000000	-26.000000
1.170000	88.670000	26.140000	665.000000	0.000000	150.000000	50.000000	21.000000	-16.000000
1.180000	88.920000	26.060000	670.000000	0.000000	150.000000	50.000000	25.000000	-8.000000
1.190000	89.310000	26.140000	667.000000	0.000000	150.000000	50.000000	39.000000	8.000000
1.200000	89.790000	26.420000	661.000000	0.000000	148.000000	50.000000	48.000000	28.000000
1.210000	90.160000	26.830000	659.000000	0.000000	148.000000	50.000000	37.000000	41.000000
1.220000	90.440000	27.350000	662.000000	0.000000	148.000000	50.000000	28.000000	52.000000
1.230000	90.650000	27.860000	673.000000	0.000000	147.000000	49.000000	21.000000	51.000000
1.240000	90.740000	28.330000	672.000000	0.000000	147.000000	49.000000	9.000000	47.000000
1.250000	90.740000	28.610000	685.000000	0.000000	147.000000	49.000000	0.000000	28.000000
1.260000	90.670000	28.780000	694.000000	0.000000	145.000000	50.000000	-7.000000	17.000000
1.270000	90.570000	28.780000	693.000000	0.000000	145.000000	50.000000	-10.000000	0.000000
1.280000	90.430000	28.730000	691.000000	0.000000	145.000000	50.000000	-14.000000	-5.000000
1.290000	90.270000	28.450000	688.000000	0.000000	146.000000	50.000000	-16.000000	-28.000000
1.300000	90.160000	28.040000	691.000000	0.000000	146.000000	50.000000	-11.000000	-41.000000
1.310000	90.100000	27.640000	688.000000	0.000000	146.000000	50.000000	-6.000000	-40.000000
1.320000	90.170000	27.300000	684.000000	0.000000	146.000000	50.000000	7.000000	-34.000000
1.330000	90.320000	26.990000	669.000000	0.000000	146.000000	50.000000	15.000000	-31.000000
1.340000	90.570000	26.860000	676.000000	0.000000	145.000000	50.000000	25.000000	-13.000000
1.350000	90.840000	26.860000	679.000000	0.000000	145.000000	50.000000	27.000000	0.000000
1.360000	91.180000	27.050000	681.000000	0.000000	145.000000	50.000000	34.000000	19.000000
1.370000	91.570000	27.390000	687.000000	0.000000	145.000000	50.000000	39.000000	34.000000
1.380000	91.890000	27.940000	688.000000	0.000000	146.000000	49.000000	32.000000	55.000000
1.390000	92.210000	28.630000	691.000000	0.000000	146.000000	49.000000	32.000000	69.000000
1.400000	92.440000	29.180000	702.000000	0.000000	145.000000	50.000000	23.000000	55.000000
1.410000	92.610000	29.670000	717.000000	0.000000	146.000000	50.000000	17.000000	49.000000
1.420000	92.610000	29.940000	737.000000	0.000000	146.000000	50.000000	0.000000	27.000000
1.430000	92.700000	30.080000	763.000000	0.000000	148.000000	50.000000	9.000000	14.000000
1.440000	92.700000	30.080000	757.000000	0.000000	148.000000	50.000000	0.000000	0.000000
1.450000	92.630000	29.980000	749.000000	0.000000	148.000000	50.000000	-7.000000	-10.000000
1.460000	92.510000	29.710000	748.000000	0.000000	148.000000	50.000000	-12.000000	-27.000000
1.470000	92.380000	29.330000	748.000000	0.000000	148.000000	50.000000	-13.000000	-38.000000
1.480000	92.240000	28.840000	746.000000	0.000000	148.000000	50.000000	-14.000000	-49.000000
1.490000	92.140000	28.350000	743.000000	0.000000	148.000000	50.000000	-10.000000	-49.000000
1.500000	92.070000	27.880000	740.000000	0.000000	148.000000	50.000000	-7.000000	-47.000000
1.510000	92.130000	27.510000	721.000000	0.000000	148.000000	50.000000	6.000000	-37.000000
1.520000	92.280000	27.180000	713.000000	0.000000	148.000000	50.000000	15.000000	-33.000000
1.530000	92.430000	27.060000	722.000000	0.000000	148.000000	50.000000	15.000000	-12.000000
1.540000	92.760000	27.140000	720.000000	0.000000	146.000000	50.000000	33.000000	8.000000
1.550000	93.220000	27.360000	746.000000	0.000000	146.000000	50.000000	46.000000	22.000000
1.560000	93.670000	27.840000	763.000000	0.000000	146.000000	50.000000	45.000000	48.000000
1.570000	94.140000	28.560000	759.000000	0.000000	146.000000	50.000000	47.000000	72.000000
1.580000	94.620000	29.430000	790.000000	0.000000	148.000000	50.000000	48.000000	87.000000
1.590000	94.910000	30.260000	811.000000	0.000000	148.000000	50.000000	29.000000	83.000000
1.600000	95.080000	31.070000	870.000000	0.000000	148.000000	50.000000	17.000000	81.000000
1.610000	95.080000	31.860000	920.000000	0.000000	149.000000	51.000000	0.000000	79.000000
1.620000	94.940000	32.360000	946.000000	0.000000	149.000000	51.000000	-14.000000	50.000000
1.630000	94.770000	32.690000	950.000000	0.000000	150.000000	51.000000	-17.000000	33.000000
1.640000	94.620000	32.900000	817.000000	0.000000	150.000000	51.000000	-15.000000	21.000000
1.650000	94.490000	32.990000	172.000000	0.000000	150.000000	51.000000	-13.000000	9.000000
1.660000	94.490000	32.990000	0.000000	1.000000	150.000000	51.000000	0.000000	0.000000
1.670000	94.410000	32.920000	0.000000	0.000000	149.000000	51.000000	-8.000000	-7.000000
1.680000	94.340000	32.920000	0.000000	0.000000	149.000000	51.000000	-7.000000	0.000000
1.690000	94.900000	33.070000	0.000000	0.000000	150.000000	50.000000	56.000000	15.000000
1.700000	95.210000	33.070000	0.000000	0.000000	148.000000	50.000000	31.000000	0.000000
1.710000	95.350000	33.070000	0.000000	0.000000	148.000000	50.000000	14.000000	0.000000
1.720000	95.970000	33.070000	0.000000	0.000000	149.000000	49.000000	62.000000	0.000000
1.730000	96.840000	33.070000	0.000000	0.000000	151.000000	49.000000	87.000000	0.000000
1.740000	97.870000	33.140000	0.000000	0.000000	151.000000	48.000000	103.000000	7.000000
1.750000	99.010000	33.190000	0.000000	0.000000	151.000000	48.000000	114.000000	5.000000
1.760000	99.810000	33.190000	0.000000	0.000000	153.000000	49.000000	80.000000	0.000000
1.770000	100.370000	32.890000	0.000000	0.000000	153.000000	48.000000	56.000000	-30.000000
1.780000	100.270000	32.420000	0.000000	0.000000	151.000000	48.000000	-10.000000	-47.000000
1.790000	99.660000	31.840000	0.000000	0.000000	151.000000	48.000000	-61.000000	-58.000000
1.800000	98.700000	31.320000	0.000000	0.000000	151.000000	48.000000	-96.000000	-52.000000
1.810000	97.790000	31.000000	0.000000	0.000000	151.000000	49.000000	-91.000000	-32.000000
1.820000	96.870000	30.810000	0.000000	0.000000	149.000000	49.000000	-92.000000	-19.000000
1.830000	95.930000	30.600000	0.000000	0.000000	147.000000	49.000000	-94.000000	-21.000000
1.840000	95.160000	30.390000	0.000000	0.000000	145.000000	50.000000	-77.000000	-21.000000
1.850000	94.630000	30.220000	0.000000	0.000000	144.000000	49.000000	-53.000000	-17.000000
1.860000	94.270000	30.080000	0.000000	0.000000	143.000000	50.000000	-36.000000	-14.000000
1.870000	94.670000	30.080000	0.000000	0.000000	143.000000	50.000000	40.000000	0.000000
1.880000	94.770000	30.030000	0.000000	0.000000	143.000000	50.000000	10.000000	-5.000000
1.890000	94.770000	30.030000	336.000000	1.000000	142.000000	49.000000	0.000000	0.000000
1.900000	95.060000	31.040000	398.000000	0.000000	143.000000	50.000000	29.000000	101.000000
1.910000	95.770000	32.020000	458.000000	0.000000	143.000000	50.000000	71.000000	98.000000
1.920000	96.680000	33.210000	561.000000	0.000000	143.000000	50.000000	91.000000	119.000000
1.930000	97.770000	34.550000	644.000000	0.000000	144.000000	50.000000	109.000000	134.000000
1.940000	98.820000	35.370000	684.000000	0.000000	144.000000	50.000000	105.000000	82.000000
1.950000	99.580000	35.820000	700.000000	0.000000	144.000000	50.000000	76.000000	45.000000
1.960000	100.150000	36.020000	728.000000	0.000000	144.000000	50.000000	57.000000	20.000000
1.970000	100.510000	35.870000	730.000000	0.000000	145.000000	50.000000	36.000000	-15.000000
1.980000	100.690000	35.420000	734.000000	0.000000	145.000000	50.000000	18.000000	-45.000000
1.990000	100.750000	34.770000	737.000000	0.000000	145.000000	50.000000	6.000000	-65.000000
2.000000	100.500000	33.720000	746.000000	0.000000	146.000000	49.000000	-25.000000	-105.000000
2.010000	99.820000	32.330000	743.000000	0.000000	146.000000	50.000000	-68.000000	-139.000000
2.020000	98.840000	30.710000	755.000000	0.000000	146.000000	50.000000	-98.000000	-162.000000
2.030000	97.590000	28.910000	761.000000	0.000000	146.000000	50.000000	-125.000000	-180.000000
2.040000	96.340000	27.430000	761.000000	0.000000	145.000000	51.000000	-125.000000	-148.000000
2.050000	95.540000	26.170000	746.000000	0.000000	145.000000	51.000000	-80.000000	-126.000000
2.060000	95.040000	25.590000	728.000000	0.000000	145.000000	51.000000	-50.000000	-58.000000
2.070000	94.950000	25.410000	652.000000	0.000000	145.000000	51.000000	-9.000000	-18.000000
2.080000	94.950000	25.500000	440.000000	0.000000	145.000000	51.000000	0.000000	9.000000
2.090000	95.110000	25.980000	46.000000	0.000000	145.000000	51.000000	16.000000	48.000000
2.100000	95.110000	25.980000	0.000000	1.000000	145.000000	51.000000	0.000000	0.000000
2.110000	95.860000	27.690000	0.000000	0.000000	145.000000	51.000000	75.000000	171.000000
2.120000	96.170000	28.880000	0.000000	0.000000	145.000000	51.000000	31.000000	119.000000
2.130000	96.500000	29.860000	0.000000	0.000000	145.000000	51.000000	33.000000	98.000000
2.140000	96.830000	30.690000	0.000000	0.000000	145.000000	51.000000	33.000000	83.000000
2.150000	97.160000	31.320000	0.000000	0.000000	145.000000	51.000000	33.000000	63.000000
2.160000	97.510000	31.740000	0.000000	0.000000	147.000000	51.000000	35.000000	42.000000
2.170000	97.790000	32.030000	0.000000	0.000000	148.000000	50.000000	28.000000	29.000000
2.180000	98.030000	32.120000	0.000000	0.000000	148.000000	50.000000	24.000000	9.000000
2.190000	98.030000	32.120000	436.000000	1.000000	148.000000	50.000000	0.000000	0.000000
2.200000	98.030000	32.120000	456.000000	0.000000	148.000000	50.000000	0.000000	0.000000
