t	x	y	pressure	penup	azimuth	inclination	v_x	v_y
0.000000	60.210000	16.490000	369.000000	1.000000	103.000000	61.000000	0.000000	0.000000
0.010000	59.900000	16.630000	494.000000	0.000000	105.000000	61.000000	-31.000000	14.000000
0.020000	59.640000	16.710000	614.000000	0.000000	105.000000	62.000000	-26.000000	8.000000
0.030000	59.380000	16.710000	699.000000	0.000000	107.000000	62.000000	-26.000000	0.000000
0.040000	59.090000	16.570000	770.000000	0.000000	107.000000	62.000000	-29.000000	-14.000000
0.050000	58.870000	16.390000	803.000000	0.000000	107.000000	62.000000	-22.000000	-18.000000
0.060000	58.870000	16.390000	814.000000	0.000000	107.000000	62.000000	0.000000	0.000000
0.070000	58.870000	16.390000	814.000000	0.000000	107.000000	61.000000	0.000000	0.000000
0.080000	58.870000	16.390000	818.000000	0.000000	107.000000	61.000000	0.000000	0.000000
0.090000	59.590000	16.390000	820.000000	0.000000	107.000000	61.000000	72.000000	0.000000
0.100000	60.360000	16.390000	818.000000	0.000000	106.000000	60.000000	77.000000	0.000000
0.110000	61.500000	16.390000	815.000000	0.000000	108.000000	60.000000	114.000000	0.000000
0.120000	62.820000	16.620000	808.000000	0.000000	108.000000	61.000000	132.000000	23.000000
0.130000	64.260000	17.020000	787.000000	0.000000	107.000000	61.000000	144.000000	40.000000
0.140000	65.580000	17.280000	790.000000	0.000000	107.000000	62.000000	132.000000	26.000000
0.150000	66.660000	17.760000	785.000000	0.000000	107.000000	62.000000	108.000000	48.000000
0.160000	67.570000	18.400000	784.000000	0.000000	108.000000	63.000000	91.000000	64.000000
0.170000	68.090000	18.730000	787.000000	0.000000	108.000000	63.000000	52.000000	33.000000
0.180000	68.230000	18.830000	858.000000	0.000000	109.000000	64.000000	14.000000	10.000000
0.190000	68.110000	18.830000	921.000000	0.000000	111.000000	64.000000	-12.000000	0.000000
0.200000	67.740000	18.630000	949.000000	0.000000	112.000000	64.000000	-37.000000	-20.000000
0.210000	66.940000	18.090000	987.000000	0.000000	112.000000	64.000000	-80.000000	-54.000000
0.220000	65.840000	17.300000	1023.000000	0.000000	112.000000	64.000000	-110.000000	-79.000000
0.230000	64.650000	16.150000	1023.000000	0.000000	112.000000	64.000000	-119.000000	-115.000000
0.240000	63.120000	14.840000	1023.000000	0.000000	112.000000	64.000000	-153.000000	-131.000000
0.250000	61.370000	13.420000	1023.000000	0.000000	110.000000	65.000000	-175.000000	-142.000000
0.260000	59.670000	11.900000	1023.000000	0.000000	108.000000	65.000000	-170.000000	-152.000000
0.270000	58.380000	10.710000	1023.000000	0.000000	105.000000	65.000000	-129.000000	-119.000000
0.280000	57.370000	9.730000	1023.000000	0.000000	103.000000	64.000000	-101.000000	-98.000000
0.290000	57.190000	9.340000	1023.000000	0.000000	101.000000	65.000000	-18.000000	-39.000000
0.300000	57.630000	9.290000	1023.000000	0.000000	99.000000	65.000000	44.000000	-5.000000
0.310000	58.490000	9.460000	1023.000000	0.000000	96.000000	65.000000	86.000000	17.000000
0.320000	59.740000	10.090000	988.000000	0.000000	96.000000	65.000000	125.000000	63.000000
0.330000	61.180000	11.150000	942.000000	0.000000	97.000000	66.000000	144.000000	106.000000
0.340000	62.740000	12.500000	914.000000	0.000000	97.000000	66.000000	156.000000	135.000000
0.350000	63.950000	13.330000	906.000000	0.000000	97.000000	66.000000	121.000000	83.000000
0.360000	64.770000	13.810000	905.000000	0.000000	97.000000	66.000000	82.000000	48.000000
0.370000	65.330000	14.070000	908.000000	0.000000	97.000000	66.000000	56.000000	26.000000
0.380000	65.500000	14.120000	942.000000	0.000000	94.000000	66.000000	17.000000	5.000000
0.390000	65.550000	14.120000	985.000000	0.000000	94.000000	66.000000	5.000000	0.000000
0.400000	65.550000	14.010000	1017.000000	0.000000	94.000000	66.000000	0.000000	-11.000000
0.410000	65.390000	13.640000	1023.000000	0.000000	94.000000	66.000000	-16.000000	-37.000000
0.420000	64.940000	13.100000	1023.000000	0.000000	94.000000	66.000000	-45.000000	-54.000000
0.430000	64.270000	12.260000	1023.000000	0.000000	94.000000	66.000000	-67.000000	-84.000000
0.440000	63.970000	11.680000	1023.000000	0.000000	94.000000	66.000000	-30.000000	-58.000000
0.450000	63.970000	11.270000	1023.000000	0.000000	94.000000	66.000000	0.000000	-41.000000
0.460000	64.170000	11.070000	1023.000000	0.000000	94.000000	66.000000	20.000000	-20.000000
0.470000	64.850000	11.070000	1006.000000	0.000000	94.000000	66.000000	68.000000	0.000000
0.480000	65.860000	11.290000	984.000000	0.000000	95.000000	67.000000	101.000000	22.000000
0.490000	67.100000	11.930000	977.000000	0.000000	95.000000	67.000000	124.000000	64.000000
0.500000	68.500000	12.820000	938.000000	0.000000	95.000000	67.000000	140.000000	89.000000
0.510000	69.670000	13.870000	944.000000	0.000000	95.000000	68.000000	117.000000	105.000000
0.520000	70.690000	14.470000	912.000000	0.000000	95.000000	68.000000	102.000000	60.000000
0.530000	71.380000	15.000000	899.000000	0.000000	95.000000	68.000000	69.000000	53.000000
0.540000	71.830000	15.480000	908.000000	0.000000	95.000000	69.000000	45.000000	48.000000
0.550000	72.120000	15.740000	955.000000	0.000000	98.000000	69.000000	29.000000	26.000000
0.560000	72.120000	15.740000	1023.000000	0.000000	98.000000	70.000000	0.000000	0.000000
0.570000	71.860000	15.610000	1023.000000	0.000000	101.000000	70.000000	-26.000000	-13.000000
0.580000	71.380000	15.000000	1023.000000	0.000000	104.000000	69.000000	-48.000000	-61.000000
0.590000	70.080000	13.670000	1023.000000	0.000000	104.000000	69.000000	-130.000000	-133.000000
0.600000	68.200000	11.870000	1023.000000	0.000000	106.000000	69.000000	-188.000000	-180.000000
0.610000	65.940000	9.750000	1023.000000	0.000000	106.000000	69.000000	-226.000000	-212.000000
0.620000	63.650000	7.570000	932.000000	0.000000	106.000000	69.000000	-229.000000	-218.000000
