t	x	y	pressure	penup	azimuth	inclination	v_x	v_y
0.000000	90.010000	15.870000	65.000000	1.000000	142.000000	48.000000	0.000000	0.000000
0.010000	89.900000	16.130000	76.000000	0.000000	140.000000	48.000000	-11.000000	26.000000
0.020000	89.790000	16.200000	141.000000	0.000000	139.000000	48.000000	-11.000000	7.000000
0.030000	89.710000	16.250000	184.000000	0.000000	138.000000	48.000000	-8.000000	5.000000
0.040000	89.610000	16.250000	198.000000	0.000000	137.000000	47.000000	-10.000000	0.000000
0.050000	89.430000	15.990000	214.000000	0.000000	137.000000	47.000000	-18.000000	-26.000000
0.060000	89.210000	15.600000	254.000000	0.000000	137.000000	47.000000	-22.000000	-39.000000
0.070000	88.840000	14.750000	277.000000	0.000000	136.000000	48.000000	-37.000000	-85.000000
0.080000	88.370000	13.710000	311.000000	0.000000	136.000000	48.000000	-47.000000	-104.000000
0.090000	87.830000	12.550000	327.000000	0.000000	135.000000	49.000000	-54.000000	-116.000000
0.100000	87.430000	11.390000	341.000000	0.000000	135.000000	50.000000	-40.000000	-116.000000
0.110000	87.050000	10.560000	353.000000	0.000000	134.000000	50.000000	-38.000000	-83.000000
0.120000	86.860000	9.950000	373.000000	0.000000	135.000000	51.000000	-19.000000	-61.000000
0.130000	86.800000	9.610000	371.000000	0.000000	134.000000	51.000000	-6.000000	-34.000000
0.140000	86.850000	9.490000	371.000000	0.000000	135.000000	52.000000	5.000000	-12.000000
0.150000	86.920000	9.490000	364.000000	0.000000	135.000000	52.000000	7.000000	0.000000
0.160000	87.060000	9.560000	366.000000	0.000000	135.000000	52.000000	14.000000	7.000000
0.170000	87.250000	9.830000	361.000000	0.000000	135.000000	52.000000	19.000000	27.000000
0.180000	87.620000	10.250000	366.000000	0.000000	135.000000	52.000000	37.000000	42.000000
0.190000	88.090000	11.020000	364.000000	0.000000	136.000000	51.000000	47.000000	77.000000
0.200000	88.680000	12.220000	369.000000	0.000000	135.000000	52.000000	59.000000	120.000000
0.210000	89.350000	13.720000	369.000000	0.000000	135.000000	52.000000	67.000000	150.000000
0.220000	90.070000	15.190000	376.000000	0.000000	135.000000	52.000000	72.000000	147.000000
0.230000	90.730000	16.560000	391.000000	0.000000	136.000000	51.000000	66.000000	137.000000
0.240000	91.240000	17.430000	394.000000	0.000000	135.000000	51.000000	51.000000	87.000000
0.250000	91.660000	17.990000	398.000000	0.000000	136.000000	50.000000	42.000000	56.000000
0.260000	91.910000	18.250000	399.000000	0.000000	137.000000	50.000000	25.000000	26.000000
0.270000	92.060000	18.350000	393.000000	0.000000	137.000000	50.000000	15.000000	10.000000
0.280000	92.140000	18.350000	381.000000	0.000000	138.000000	49.000000	8.000000	0.000000
0.290000	92.220000	18.280000	379.000000	0.000000	139.000000	48.000000	8.000000	-7.000000
0.300000	92.290000	18.200000	381.000000	0.000000	140.000000	48.000000	7.000000	-8.000000
0.310000	92.360000	18.080000	386.000000	0.000000	142.000000	48.000000	7.000000	-12.000000
0.320000	92.450000	17.910000	387.000000	0.000000	143.000000	48.000000	9.000000	-17.000000
0.330000	92.500000	17.680000	391.000000	0.000000	143.000000	48.000000	5.000000	-23.000000
0.340000	92.500000	17.360000	398.000000	0.000000	143.000000	48.000000	0.000000	-32.000000
0.350000	92.500000	16.950000	391.000000	0.000000	143.000000	48.000000	0.000000	-41.000000
0.360000	92.500000	16.470000	392.000000	0.000000	143.000000	48.000000	0.000000	-48.000000
0.370000	92.410000	16.140000	397.000000	0.000000	143.000000	48.000000	-9.000000	-33.000000
0.380000	92.360000	15.850000	405.000000	0.000000	142.000000	47.000000	-5.000000	-29.000000
0.390000	92.300000	15.580000	413.000000	0.000000	142.000000	47.000000	-6.000000	-27.000000
0.400000	92.230000	15.390000	425.000000	0.000000	142.000000	47.000000	-7.000000	-19.000000
0.410000	92.160000	15.270000	441.000000	0.000000	142.000000	47.000000	-7.000000	-12.000000
0.420000	92.090000	15.200000	458.000000	0.000000	142.000000	47.000000	-7.000000	-7.000000
0.430000	91.960000	15.000000	471.000000	0.000000	140.000000	48.000000	-13.000000	-20.000000
0.440000	91.790000	14.620000	481.000000	0.000000	139.000000	47.000000	-17.000000	-38.000000
0.450000	91.480000	14.110000	504.000000	0.000000	138.000000	48.000000	-31.000000	-51.000000
0.460000	91.150000	13.460000	512.000000	0.000000	138.000000	48.000000	-33.000000	-65.000000
0.470000	90.800000	12.760000	526.000000	0.000000	137.000000	48.000000	-35.000000	-70.000000
0.480000	90.430000	12.040000	553.000000	0.000000	136.000000	49.000000	-37.000000	-72.000000
0.490000	90.050000	11.220000	561.000000	0.000000	135.000000	50.000000	-38.000000	-82.000000
0.500000	89.650000	10.630000	565.000000	0.000000	135.000000	50.000000	-40.000000	-59.000000
0.510000	89.360000	10.200000	567.000000	0.000000	134.000000	50.000000	-29.000000	-43.000000
0.520000	89.110000	9.990000	575.000000	0.000000	134.000000	50.000000	-25.000000	-21.000000
0.530000	88.950000	9.840000	578.000000	0.000000	134.000000	50.000000	-16.000000	-15.000000
0.540000	88.800000	9.720000	580.000000	0.000000	134.000000	50.000000	-15.000000	-12.000000
0.550000	88.630000	9.650000	586.000000	0.000000	135.000000	51.000000	-17.000000	-7.000000
0.560000	88.550000	9.650000	574.000000	0.000000	135.000000	51.000000	-8.000000	0.000000
0.570000	88.480000	9.750000	561.000000	0.000000	136.000000	51.000000	-7.000000	10.000000
0.580000	88.400000	9.880000	561.000000	0.000000	137.000000	51.000000	-8.000000	13.000000
0.590000	88.310000	10.110000	544.000000	0.000000	138.000000	51.000000	-9.000000	23.000000
0.600000	88.210000	10.410000	537.000000	0.000000	139.000000	52.000000	-10.000000	30.000000
0.610000	88.210000	10.580000	529.000000	0.000000	139.000000	52.000000	0.000000	17.000000
0.620000	88.210000	10.580000	501.000000	0.000000	139.000000	52.000000	0.000000	0.000000
0.630000	88.210000	10.580000	466.000000	0.000000	139.000000	52.000000	0.000000	0.000000
0.640000	88.210000	10.520000	417.000000	0.000000	139.000000	52.000000	0.000000	-6.000000
0.650000	88.210000	10.460000	349.000000	0.000000	137.000000	52.000000	0.000000	-6.000000
0.660000	88.210000	10.400000	279.000000	0.000000	137.000000	52.000000	0.000000	-6.000000
0.670000	88.290000	10.350000	219.000000	0.000000	137.000000	52.000000	8.000000	-5.000000
0.680000	88.390000	10.350000	119.000000	0.000000	137.000000	52.000000	10.000000	0.000000
0.690000	88.390000	10.350000	0.000000	1.000000	137.000000	52.000000	0.000000	0.000000
0.700000	88.550000	10.350000	0.000000	0.000000	137.000000	52.000000	16.000000	0.000000
0.710000	88.690000	10.350000	0.000000	0.000000	137.000000	52.000000	14.000000	0.000000
0.720000	88.800000	10.350000	0.000000	0.000000	139.000000	52.000000	11.000000	0.000000
0.730000	88.900000	10.420000	0.000000	0.000000	139.000000	52.000000	10.000000	7.000000
0.740000	88.970000	10.520000	0.000000	0.000000	139.000000	52.000000	7.000000	10.000000
0.750000	88.970000	10.670000	0.000000	0.000000	139.000000	52.000000	0.000000	15.000000
0.760000	89.270000	10.860000	0.000000	0.000000	139.000000	52.000000	30.000000	19.000000
0.770000	89.570000	11.150000	0.000000	0.000000	139.000000	52.000000	30.000000	29.000000
0.780000	89.980000	11.530000	0.000000	0.000000	140.000000	53.000000	41.000000	38.000000
0.790000	90.460000	11.980000	0.000000	0.000000	141.000000	52.000000	48.000000	45.000000
0.800000	90.970000	12.370000	0.000000	0.000000	141.000000	52.000000	51.000000	39.000000
0.810000	91.480000	12.730000	0.000000	0.000000	142.000000	52.000000	51.000000	36.000000
0.820000	91.880000	13.010000	0.000000	0.000000	142.000000	52.000000	40.000000	28.000000
0.830000	92.200000	13.240000	0.000000	0.000000	143.000000	51.000000	32.000000	23.000000
0.840000	92.410000	13.320000	0.000000	0.000000	143.000000	51.000000	21.000000	8.000000
0.850000	92.470000	13.320000	0.000000	0.000000	143.000000	51.000000	6.000000	0.000000
0.860000	92.470000	13.320000	0.000000	0.000000	144.000000	50.000000	0.000000	0.000000
0.870000	92.520000	13.320000	0.000000	0.000000	144.000000	50.000000	5.000000	0.000000
0.880000	92.640000	13.320000	0.000000	0.000000	144.000000	50.000000	12.000000	0.000000
0.890000	92.800000	13.390000	0.000000	0.000000	144.000000	50.000000	16.000000	7.000000
0.900000	92.970000	13.480000	0.000000	0.000000	144.000000	50.000000	17.000000	9.000000
0.910000	93.080000	13.560000	0.000000	0.000000	144.000000	50.000000	11.000000	8.000000
0.920000	93.150000	13.560000	0.000000	0.000000	144.000000	50.000000	7.000000	0.000000
0.930000	93.150000	13.560000	0.000000	0.000000	144.000000	50.000000	0.000000	0.000000
0.940000	93.150000	13.560000	0.000000	0.000000	144.000000	50.000000	0.000000	0.000000
0.950000	93.150000	13.460000	0.000000	0.000000	144.000000	50.000000	0.000000	-10.000000
0.960000	93.150000	13.400000	0.000000	0.000000	143.000000	51.000000	0.000000	-6.000000
0.970000	93.150000	13.400000	0.000000	0.000000	143.000000	51.000000	0.000000	0.000000
0.980000	93.150000	13.400000	0.000000	0.000000	143.000000	51.000000	0.000000	0.000000
0.990000	93.150000	13.400000	0.000000	0.000000	143.000000	51.000000	0.000000	0.000000
1.000000	92.900000	13.400000	0.000000	0.000000	143.000000	51.000000	-25.000000	0.000000
1.010000	92.660000	13.230000	0.000000	0.000000	143.000000	51.000000	-24.000000	-17.000000
1.020000	92.360000	12.950000	0.000000	0.000000	143.000000	51.000000	-30.000000	-28.000000
1.030000	92.030000	12.570000	0.000000	0.000000	144.000000	51.000000	-33.000000	-38.000000
1.040000	91.720000	12.240000	0.000000	0.000000	144.000000	51.000000	-31.000000	-33.000000
1.050000	91.420000	11.980000	0.000000	0.000000	142.000000	52.000000	-30.000000	-26.000000
1.060000	91.290000	11.760000	0.000000	0.000000	142.000000	52.000000	-13.000000	-22.000000
1.070000	91.290000	11.760000	0.000000	0.000000	141.000000	51.000000	0.000000	0.000000
1.080000	91.240000	11.760000	0.000000	0.000000	140.000000	52.000000	-5.000000	0.000000
1.090000	91.240000	11.940000	0.000000	0.000000	138.000000	51.000000	0.000000	18.000000
1.100000	91.240000	11.990000	0.000000	0.000000	137.000000	51.000000	0.000000	5.000000
1.110000	91.240000	11.990000	20.000000	1.000000	136.000000	51.000000	0.000000	0.000000
1.120000	91.240000	11.990000	65.000000	0.000000	135.000000	51.000000	0.000000	0.000000
1.130000	91.390000	12.360000	66.000000	0.000000	135.000000	51.000000	15.000000	37.000000
1.140000	91.580000	12.620000	78.000000	0.000000	134.000000	50.000000	19.000000	26.000000
1.150000	91.840000	12.930000	96.000000	0.000000	135.000000	51.000000	26.000000	31.000000
1.160000	92.140000	13.250000	109.000000	0.000000	135.000000	51.000000	30.000000	32.000000
1.170000	92.460000	13.520000	112.000000	0.000000	135.000000	51.000000	32.000000	27.000000
1.180000	92.700000	13.680000	124.000000	0.000000	135.000000	51.000000	24.000000	16.000000
1.190000	92.890000	13.680000	139.000000	0.000000	135.000000	51.000000	19.000000	0.000000
1.200000	93.000000	13.680000	141.000000	0.000000	135.000000	51.000000	11.000000	0.000000
1.210000	93.120000	13.520000	180.000000	0.000000	135.000000	51.000000	12.000000	-16.000000
1.220000	93.170000	13.310000	206.000000	0.000000	135.000000	51.000000	5.000000	-21.000000
1.230000	93.170000	13.000000	221.000000	0.000000	137.000000	51.000000	0.000000	-31.000000
1.240000	93.100000	12.560000	256.000000	0.000000	137.000000	51.000000	-7.000000	-44.000000
1.250000	92.970000	12.030000	269.000000	0.000000	137.000000	51.000000	-13.000000	-53.000000
1.260000	92.800000	11.480000	277.000000	0.000000	137.000000	51.000000	-17.000000	-55.000000
1.270000	92.660000	11.190000	301.000000	0.000000	137.000000	51.000000	-14.000000	-29.000000
1.280000	92.570000	11.070000	314.000000	0.000000	137.000000	51.000000	-9.000000	-12.000000
1.290000	92.570000	11.000000	317.000000	0.000000	137.000000	51.000000	0.000000	-7.000000
1.300000	92.570000	11.000000	312.000000	0.000000	137.000000	51.000000	0.000000	0.000000
1.310000	92.700000	11.140000	317.000000	0.000000	137.000000	51.000000	13.000000	14.000000
1.320000	92.900000	11.430000	317.000000	0.000000	137.000000	51.000000	20.000000	29.000000
1.330000	93.350000	11.990000	317.000000	0.000000	137.000000	51.000000	45.000000	56.000000
1.340000	93.970000	12.730000	317.000000	0.000000	137.000000	51.000000	62.000000	74.000000
1.350000	94.500000	13.380000	312.000000	0.000000	138.000000	51.000000	53.000000	65.000000
1.360000	95.030000	13.970000	304.000000	0.000000	138.000000	51.000000	53.000000	59.000000
1.370000	95.410000	14.320000	284.000000	0.000000	138.000000	51.000000	38.000000	35.000000
1.380000	95.690000	14.530000	279.000000	0.000000	140.000000	52.000000	28.000000	21.000000
1.390000	95.770000	14.530000	277.000000	0.000000	140.000000	52.000000	8.000000	0.000000
1.400000	95.770000	14.290000	282.000000	0.000000	141.000000	51.000000	0.000000	-24.000000
1.410000	95.720000	13.960000	287.000000	0.000000	142.000000	52.000000	-5.000000	-33.000000
1.420000	95.630000	13.530000	282.000000	0.000000	142.000000	52.000000	-9.000000	-43.000000
1.430000	95.560000	13.230000	272.000000	0.000000	142.000000	52.000000	-7.000000	-30.000000
1.440000	95.620000	13.020000	212.000000	0.000000	142.000000	52.000000	6.000000	-21.000000
1.450000	95.750000	12.880000	127.000000	0.000000	142.000000	52.000000	13.000000	-14.000000
1.460000	95.750000	12.880000	0.000000	1.000000	142.000000	52.000000	0.000000	0.000000
1.470000	96.290000	13.000000	0.000000	0.000000	142.000000	52.000000	54.000000	12.000000
1.480000	96.740000	13.330000	0.000000	0.000000	143.000000	52.000000	45.000000	33.000000
1.490000	97.130000	13.720000	0.000000	0.000000	143.000000	52.000000	39.000000	39.000000
1.500000	97.490000	14.150000	0.000000	0.000000	143.000000	52.000000	36.000000	43.000000
1.510000	97.830000	14.580000	0.000000	0.000000	146.000000	52.000000	34.000000	43.000000
1.520000	98.210000	14.990000	0.000000	0.000000	147.000000	51.000000	38.000000	41.000000
1.530000	98.640000	15.350000	0.000000	0.000000	148.000000	50.000000	43.000000	36.000000
1.540000	99.130000	15.680000	0.000000	0.000000	149.000000	49.000000	49.000000	33.000000
1.550000	99.530000	15.950000	0.000000	0.000000	150.000000	48.000000	40.000000	27.000000
1.560000	99.870000	16.180000	0.000000	0.000000	151.000000	47.000000	34.000000	23.000000
1.570000	100.080000	16.410000	0.000000	0.000000	151.000000	46.000000	21.000000	23.000000
1.580000	100.080000	16.410000	94.000000	1.000000	152.000000	45.000000	0.000000	0.000000
1.590000	100.170000	16.840000	110.000000	0.000000	151.000000	45.000000	9.000000	43.000000
1.600000	100.020000	16.840000	149.000000	0.000000	150.000000	44.000000	-15.000000	0.000000
1.610000	99.760000	16.840000	213.000000	0.000000	149.000000	44.000000	-26.000000	0.000000
1.620000	99.420000	16.520000	287.000000	0.000000	149.000000	44.000000	-34.000000	-32.000000
1.630000	98.860000	16.060000	304.000000	0.000000	149.000000	44.000000	-56.000000	-46.000000
1.640000	98.300000	15.490000	334.000000	0.000000	148.000000	45.000000	-56.000000	-57.000000
1.650000	97.740000	14.910000	364.000000	0.000000	148.000000	46.000000	-56.000000	-58.000000
1.660000	97.340000	14.460000	366.000000	0.000000	147.000000	47.000000	-40.000000	-45.000000
1.670000	97.100000	14.090000	367.000000	0.000000	147.000000	48.000000	-24.000000	-37.000000
1.680000	96.960000	13.820000	361.000000	0.000000	146.000000	49.000000	-14.000000	-27.000000
1.690000	96.960000	13.620000	349.000000	0.000000	146.000000	50.000000	0.000000	-20.000000
1.700000	97.010000	13.480000	315.000000	0.000000	145.000000	51.000000	5.000000	-14.000000
1.710000	97.160000	13.340000	281.000000	0.000000	144.000000	51.000000	15.000000	-14.000000
1.720000	97.450000	13.340000	237.000000	0.000000	144.000000	51.000000	29.000000	0.000000
1.730000	97.830000	13.390000	137.000000	0.000000	144.000000	51.000000	38.000000	5.000000
1.740000	98.390000	13.390000	156.000000	0.000000	146.000000	52.000000	56.000000	0.000000
1.750000	98.870000	13.640000	153.000000	0.000000	146.000000	52.000000	48.000000	25.000000
1.760000	99.290000	14.140000	153.000000	0.000000	146.000000	52.000000	42.000000	50.000000
1.770000	99.600000	14.600000	173.000000	0.000000	146.000000	52.000000	31.000000	46.000000
1.780000	99.830000	15.060000	173.000000	0.000000	146.000000	52.000000	23.000000	46.000000
1.790000	100.010000	15.510000	212.000000	0.000000	145.000000	51.000000	18.000000	45.000000
1.800000	99.940000	15.770000	233.000000	0.000000	146.000000	50.000000	-7.000000	26.000000
1.810000	99.710000	15.850000	241.000000	0.000000	145.000000	50.000000	-23.000000	8.000000
1.820000	99.380000	15.850000	254.000000	0.000000	146.000000	49.000000	-33.000000	0.000000
1.830000	98.920000	15.520000	281.000000	0.000000	145.000000	48.000000	-46.000000	-33.000000
1.840000	98.530000	15.120000	282.000000	0.000000	146.000000	48.000000	-39.000000	-40.000000
1.850000	98.240000	14.660000	284.000000	0.000000	146.000000	48.000000	-29.000000	-46.000000
1.860000	98.170000	14.350000	291.000000	0.000000	145.000000	48.000000	-7.000000	-31.000000
1.870000	98.240000	14.070000	291.000000	0.000000	146.000000	49.000000	7.000000	-28.000000
1.880000	98.430000	13.820000	289.000000	0.000000	146.000000	50.000000	19.000000	-25.000000
1.890000	98.640000	13.540000	282.000000	0.000000	148.000000	50.000000	21.000000	-28.000000
1.900000	98.890000	13.300000	281.000000	0.000000	147.000000	51.000000	25.000000	-24.000000
1.910000	99.140000	13.100000	282.000000	0.000000	147.000000	51.000000	25.000000	-20.000000
1.920000	99.320000	12.820000	284.000000	0.000000	146.000000	52.000000	18.000000	-28.000000
1.930000	99.470000	12.500000	286.000000	0.000000	147.000000	52.000000	15.000000	-32.000000
1.940000	99.470000	12.090000	289.000000	0.000000	147.000000	52.000000	0.000000	-41.000000
1.950000	99.270000	11.540000	309.000000	0.000000	147.000000	52.000000	-20.000000	-55.000000
1.960000	98.920000	10.890000	305.000000	0.000000	147.000000	52.000000	-35.000000	-65.000000
1.970000	98.420000	10.280000	311.000000	0.000000	147.000000	52.000000	-50.000000	-61.000000
1.980000	97.910000	9.660000	327.000000	0.000000	147.000000	52.000000	-51.000000	-62.000000
1.990000	97.390000	9.080000	336.000000	0.000000	148.000000	51.000000	-52.000000	-58.000000
2.000000	97.010000	8.760000	344.000000	0.000000	148.000000	51.000000	-38.000000	-32.000000
2.010000	96.660000	8.570000	348.000000	0.000000	148.000000	51.000000	-35.000000	-19.000000
2.020000	96.340000	8.480000	345.000000	0.000000	148.000000	51.000000	-32.000000	-9.000000
2.030000	96.070000	8.480000	327.000000	0.000000	148.000000	51.000000	-27.000000	0.000000
2.040000	95.880000	8.480000	228.000000	0.000000	148.000000	51.000000	-19.000000	0.000000
2.050000	95.980000	8.850000	98.000000	0.000000	149.000000	51.000000	10.000000	37.000000
2.060000	95.980000	8.850000	0.000000	1.000000	147.000000	51.000000	0.000000	0.000000
2.070000	96.730000	10.150000	0.000000	0.000000	147.000000	51.000000	75.000000	130.000000
2.080000	97.260000	11.040000	0.000000	0.000000	147.000000	51.000000	53.000000	89.000000
2.090000	97.880000	12.180000	0.000000	0.000000	147.000000	51.000000	62.000000	114.000000
2.100000	98.600000	13.500000	0.000000	0.000000	147.000000	51.000000	72.000000	132.000000
2.110000	99.450000	14.430000	0.000000	0.000000	147.000000	51.000000	85.000000	93.000000
2.120000	100.390000	15.120000	0.000000	0.000000	147.000000	51.000000	94.000000	69.000000
2.130000	101.210000	15.650000	0.000000	0.000000	148.000000	50.000000	82.000000	53.000000
2.140000	101.800000	15.860000	0.000000	0.000000	148.000000	50.000000	59.000000	21.000000
2.150000	102.240000	16.020000	0.000000	0.000000	149.000000	49.000000	44.000000	16.000000
2.160000	102.330000	15.970000	0.000000	0.000000	149.000000	48.000000	9.000000	-5.000000
2.170000	102.330000	15.970000	71.000000	1.000000	149.000000	47.000000	0.000000	0.000000
2.180000	102.060000	15.810000	101.000000	0.000000	149.000000	47.000000	-27.000000	-16.000000
2.190000	101.970000	15.870000	141.000000	0.000000	150.000000	46.000000	-9.000000	6.000000
2.200000	101.920000	15.870000	141.000000	0.000000	148.000000	46.000000	-5.000000	0.000000
2.210000	102.060000	16.080000	161.000000	0.000000	148.000000	46.000000	14.000000	21.000000
