t	x	y	pressure	penup	azimuth	inclination	v_x	v_y
0.000000	10.610000	76.220000	37.000000	1.000000	138.000000	60.000000	0.000000	0.000000
0.010000	10.610000	76.220000	48.000000	0.000000	138.000000	60.000000	0.000000	0.000000
0.020000	10.610000	76.220000	109.000000	0.000000	138.000000	60.000000	0.000000	0.000000
0.030000	10.610000	76.220000	143.000000	0.000000	138.000000	60.000000	0.000000	0.000000
0.040000	10.610000	76.220000	190.000000	0.000000	138.000000	60.000000	0.000000	0.000000
0.050000	10.620000	76.500000	222.000000	0.000000	136.000000	60.000000	1.000000	28.000000
0.060000	10.730000	76.770000	257.000000	0.000000	136.000000	60.000000	11.000000	27.000000
0.070000	10.980000	77.120000	284.000000	0.000000	135.000000	59.000000	25.000000	35.000000
0.080000	11.280000	77.580000	312.000000	0.000000	134.000000	58.000000	30.000000	46.000000
0.090000	11.710000	78.120000	335.000000	0.000000	134.000000	58.000000	43.000000	54.000000
0.100000	12.230000	78.750000	356.000000	0.000000	134.000000	58.000000	52.000000	63.000000
0.110000	12.980000	79.530000	386.000000	0.000000	132.000000	58.000000	75.000000	78.000000
0.120000	13.890000	80.400000	435.000000	0.000000	132.000000	58.000000	91.000000	87.000000
0.130000	14.890000	81.110000	465.000000	0.000000	134.000000	57.000000	100.000000	71.000000
0.140000	15.900000	81.650000	519.000000	0.000000	135.000000	58.000000	101.000000	54.000000
0.150000	16.960000	82.080000	530.000000	0.000000	138.000000	58.000000	106.000000	43.000000
0.160000	17.880000	82.380000	537.000000	0.000000	138.000000	58.000000	92.000000	30.000000
0.170000	18.710000	82.620000	554.000000	0.000000	139.000000	58.000000	83.000000	24.000000
0.180000	19.420000	82.730000	565.000000	0.000000	140.000000	58.000000	71.000000	11.000000
0.190000	20.020000	82.780000	580.000000	0.000000	142.000000	58.000000	60.000000	5.000000
0.200000	20.540000	82.780000	586.000000	0.000000	142.000000	58.000000	52.000000	0.000000
0.210000	21.030000	82.780000	597.000000	0.000000	142.000000	58.000000	49.000000	0.000000
0.220000	21.310000	82.780000	611.000000	0.000000	142.000000	58.000000	28.000000	0.000000
0.230000	21.450000	82.780000	622.000000	0.000000	143.000000	57.000000	14.000000	0.000000
0.240000	21.530000	82.780000	641.000000	0.000000	143.000000	57.000000	8.000000	0.000000
0.250000	21.610000	82.840000	643.000000	0.000000	143.000000	57.000000	8.000000	6.000000
0.260000	21.680000	82.890000	665.000000	0.000000	143.000000	57.000000	7.000000	5.000000
0.270000	21.680000	82.890000	675.000000	0.000000	143.000000	57.000000	0.000000	0.000000
0.280000	21.730000	82.970000	687.000000	0.000000	143.000000	57.000000	5.000000	8.000000
0.290000	21.730000	82.970000	700.000000	0.000000	143.000000	57.000000	0.000000	0.000000
0.300000	21.730000	83.050000	693.000000	0.000000	143.000000	57.000000	0.000000	8.000000
0.310000	21.730000	83.050000	693.000000	0.000000	143.000000	57.000000	0.000000	0.000000
0.320000	21.730000	83.050000	696.000000	0.000000	143.000000	57.000000	0.000000	0.000000
0.330000	21.730000	83.050000	702.000000	0.000000	143.000000	57.000000	0.000000	0.000000
0.340000	21.730000	83.050000	700.000000	0.000000	144.000000	57.000000	0.000000	0.000000
0.350000	21.730000	82.920000	688.000000	0.000000	144.000000	57.000000	0.000000	-13.000000
0.360000	21.590000	82.750000	679.000000	0.000000	144.000000	57.000000	-14.000000	-17.000000
0.370000	21.290000	82.330000	678.000000	0.000000	144.000000	57.000000	-30.000000	-42.000000
0.380000	20.880000	81.750000	673.000000	0.000000	143.000000	57.000000	-41.000000	-58.000000
0.390000	20.320000	81.090000	673.000000	0.000000	143.000000	57.000000	-56.000000	-66.000000
0.400000	19.570000	80.260000	662.000000	0.000000	143.000000	57.000000	-75.000000	-83.000000
0.410000	18.690000	79.310000	644.000000	0.000000	142.000000	58.000000	-88.000000	-95.000000
0.420000	17.650000	78.390000	646.000000	0.000000	142.000000	58.000000	-104.000000	-92.000000
0.430000	16.560000	77.630000	670.000000	0.000000	142.000000	58.000000	-109.000000	-76.000000
0.440000	15.430000	76.970000	687.000000	0.000000	139.000000	58.000000	-113.000000	-66.000000
0.450000	14.540000	76.460000	700.000000	0.000000	139.000000	58.000000	-89.000000	-51.000000
0.460000	13.800000	76.000000	691.000000	0.000000	138.000000	59.000000	-74.000000	-46.000000
0.470000	13.160000	75.570000	700.000000	0.000000	138.000000	59.000000	-64.000000	-43.000000
0.480000	12.550000	74.850000	691.000000	0.000000	136.000000	58.000000	-61.000000	-72.000000
0.490000	11.970000	74.550000	702.000000	0.000000	136.000000	58.000000	-58.000000	-30.000000
0.500000	11.420000	74.550000	693.000000	0.000000	135.000000	58.000000	-55.000000	0.000000
0.510000	10.880000	74.270000	697.000000	0.000000	134.000000	57.000000	-54.000000	-28.000000
0.520000	10.380000	74.140000	700.000000	0.000000	134.000000	57.000000	-50.000000	-13.000000
0.530000	10.010000	74.140000	696.000000	0.000000	132.000000	57.000000	-37.000000	0.000000
0.540000	9.820000	74.140000	694.000000	0.000000	134.000000	56.000000	-19.000000	0.000000
0.550000	9.730000	74.140000	697.000000	0.000000	132.000000	55.000000	-9.000000	0.000000
0.560000	9.730000	74.190000	697.000000	0.000000	132.000000	55.000000	0.000000	5.000000
0.570000	9.730000	74.190000	690.000000	0.000000	132.000000	55.000000	0.000000	0.000000
0.580000	9.730000	74.190000	702.000000	0.000000	134.000000	55.000000	0.000000	0.000000
0.590000	9.790000	74.190000	700.000000	0.000000	134.000000	55.000000	6.000000	0.000000
0.600000	9.790000	74.190000	702.000000	0.000000	134.000000	55.000000	0.000000	0.000000
0.610000	9.790000	74.190000	700.000000	0.000000	134.000000	55.000000	0.000000	0.000000
0.620000	9.850000	74.190000	702.000000	0.000000	134.000000	55.000000	6.000000	0.000000
0.630000	9.850000	74.190000	690.000000	0.000000	134.000000	55.000000	0.000000	0.000000
0.640000	9.920000	74.190000	702.000000	0.000000	134.000000	55.000000	7.000000	0.000000
0.650000	9.920000	74.140000	690.000000	0.000000	134.000000	55.000000	0.000000	-5.000000
0.660000	9.920000	74.140000	696.000000	0.000000	134.000000	55.000000	0.000000	0.000000
0.670000	9.920000	74.140000	703.000000	0.000000	134.000000	55.000000	0.000000	0.000000
0.680000	9.920000	74.140000	727.000000	0.000000	134.000000	55.000000	0.000000	0.000000
0.690000	9.920000	74.140000	740.000000	0.000000	134.000000	55.000000	0.000000	0.000000
0.700000	9.920000	74.140000	758.000000	0.000000	134.000000	55.000000	0.000000	0.000000
0.710000	9.920000	74.140000	763.000000	0.000000	134.000000	55.000000	0.000000	0.000000
0.720000	9.920000	74.140000	796.000000	0.000000	134.000000	55.000000	0.000000	0.000000
0.730000	9.920000	74.190000	802.000000	0.000000	134.000000	55.000000	0.000000	5.000000
0.740000	9.920000	74.270000	799.000000	0.000000	134.000000	55.000000	0.000000	8.000000
0.750000	10.140000	74.390000	800.000000	0.000000	132.000000	55.000000	22.000000	12.000000
0.760000	10.490000	74.740000	805.000000	0.000000	132.000000	55.000000	35.000000	35.000000
0.770000	11.590000	75.440000	800.000000	0.000000	132.000000	55.000000	110.000000	70.000000
0.780000	13.160000	76.370000	787.000000	0.000000	134.000000	56.000000	157.000000	93.000000
0.790000	15.050000	77.370000	788.000000	0.000000	134.000000	56.000000	189.000000	100.000000
0.800000	17.550000	78.400000	784.000000	0.000000	135.000000	57.000000	250.000000	103.000000
0.810000	20.250000	79.440000	788.000000	0.000000	136.000000	57.000000	270.000000	104.000000
0.820000	23.070000	80.490000	800.000000	0.000000	138.000000	58.000000	282.000000	105.000000
0.830000	25.750000	81.300000	818.000000	0.000000	140.000000	58.000000	268.000000	81.000000
0.840000	28.440000	81.940000	861.000000	0.000000	142.000000	58.000000	269.000000	64.000000
0.850000	31.140000	82.520000	887.000000	0.000000	144.000000	58.000000	270.000000	58.000000
0.860000	33.840000	83.100000	896.000000	0.000000	146.000000	58.000000	270.000000	58.000000
0.870000	36.400000	83.650000	905.000000	0.000000	146.000000	58.000000	256.000000	55.000000
0.880000	38.850000	84.170000	902.000000	0.000000	147.000000	58.000000	245.000000	52.000000
0.890000	40.930000	84.600000	914.000000	0.000000	147.000000	58.000000	208.000000	43.000000
0.900000	42.530000	84.920000	930.000000	0.000000	147.000000	58.000000	160.000000	32.000000
0.910000	43.810000	85.160000	935.000000	0.000000	148.000000	57.000000	128.000000	24.000000
0.920000	44.360000	85.280000	933.000000	0.000000	147.000000	56.000000	55.000000	12.000000
0.930000	44.540000	85.280000	953.000000	0.000000	147.000000	56.000000	18.000000	0.000000
0.940000	44.470000	85.340000	947.000000	0.000000	147.000000	56.000000	-7.000000	6.000000
0.950000	44.340000	85.340000	932.000000	0.000000	145.000000	56.000000	-13.000000	0.000000
0.960000	44.200000	85.340000	854.000000	0.000000	145.000000	56.000000	-14.000000	0.000000
0.970000	44.070000	85.340000	730.000000	0.000000	145.000000	56.000000	-13.000000	0.000000
0.980000	43.720000	85.420000	464.000000	0.000000	145.000000	56.000000	-35.000000	8.000000
0.990000	43.720000	85.420000	0.000000	1.000000	145.000000	56.000000	0.000000	0.000000
1.000000	42.600000	85.470000	0.000000	0.000000	145.000000	56.000000	-112.000000	5.000000
1.010000	41.890000	85.470000	0.000000	0.000000	145.000000	56.000000	-71.000000	0.000000
1.020000	41.140000	85.560000	0.000000	0.000000	145.000000	56.000000	-75.000000	9.000000
1.030000	40.430000	85.560000	0.000000	0.000000	146.000000	55.000000	-71.000000	0.000000
1.040000	39.590000	85.560000	0.000000	0.000000	146.000000	55.000000	-84.000000	0.000000
1.050000	38.660000	85.460000	0.000000	0.000000	146.000000	55.000000	-93.000000	-10.000000
1.060000	37.810000	85.260000	0.000000	0.000000	145.000000	55.000000	-85.000000	-20.000000
1.070000	36.900000	84.990000	0.000000	0.000000	146.000000	54.000000	-91.000000	-27.000000
1.080000	35.950000	84.800000	0.000000	0.000000	146.000000	54.000000	-95.000000	-19.000000
1.090000	35.120000	84.620000	0.000000	0.000000	146.000000	54.000000	-83.000000	-18.000000
1.100000	34.280000	84.460000	0.000000	0.000000	148.000000	54.000000	-84.000000	-16.000000
1.110000	33.440000	84.210000	0.000000	0.000000	148.000000	54.000000	-84.000000	-25.000000
1.120000	32.550000	83.950000	0.000000	0.000000	147.000000	55.000000	-89.000000	-26.000000
1.130000	31.620000	83.670000	0.000000	0.000000	147.000000	55.000000	-93.000000	-28.000000
1.140000	30.660000	83.440000	0.000000	0.000000	149.000000	55.000000	-96.000000	-23.000000
1.150000	29.700000	83.240000	0.000000	0.000000	146.000000	55.000000	-96.000000	-20.000000
1.160000	28.790000	83.030000	0.000000	0.000000	146.000000	55.000000	-91.000000	-21.000000
1.170000	27.980000	82.970000	0.000000	0.000000	144.000000	56.000000	-81.000000	-6.000000
1.180000	27.230000	83.020000	0.000000	0.000000	141.000000	55.000000	-75.000000	5.000000
1.190000	26.650000	83.280000	0.000000	0.000000	139.000000	55.000000	-58.000000	26.000000
1.200000	26.170000	83.750000	0.000000	0.000000	140.000000	55.000000	-48.000000	47.000000
1.210000	25.820000	84.360000	0.000000	0.000000	141.000000	56.000000	-35.000000	61.000000
1.220000	25.460000	85.070000	0.000000	0.000000	143.000000	56.000000	-36.000000	71.000000
1.230000	25.100000	85.820000	0.000000	0.000000	147.000000	56.000000	-36.000000	75.000000
1.240000	24.880000	86.600000	0.000000	0.000000	150.000000	57.000000	-22.000000	78.000000
1.250000	24.750000	87.360000	0.000000	0.000000	154.000000	57.000000	-13.000000	76.000000
1.260000	24.670000	88.120000	0.000000	0.000000	160.000000	56.000000	-8.000000	76.000000
1.270000	25.100000	88.900000	0.000000	0.000000	162.000000	56.000000	43.000000	78.000000
1.280000	25.530000	89.690000	0.000000	0.000000	165.000000	55.000000	43.000000	79.000000
1.290000	25.810000	90.330000	0.000000	0.000000	167.000000	55.000000	28.000000	64.000000
1.300000	25.980000	91.240000	0.000000	0.000000	167.000000	55.000000	17.000000	91.000000
1.310000	26.450000	92.320000	0.000000	0.000000	167.000000	55.000000	47.000000	108.000000
1.320000	26.930000	93.600000	0.000000	0.000000	165.000000	56.000000	48.000000	128.000000
1.330000	27.410000	94.820000	0.000000	0.000000	163.000000	56.000000	48.000000	122.000000
1.340000	27.870000	96.010000	0.000000	0.000000	158.000000	56.000000	46.000000	119.000000
1.350000	28.160000	96.490000	0.000000	0.000000	0.000000	90.000000	29.000000	48.000000
1.360000	28.350000	96.490000	0.000000	0.000000	0.000000	90.000000	19.000000	0.000000
1.370000	28.680000	96.490000	0.000000	0.000000	0.000000	90.000000	33.000000	0.000000
1.380000	28.970000	96.490000	0.000000	0.000000	0.000000	90.000000	29.000000	0.000000
1.390000	29.240000	96.490000	0.000000	0.000000	0.000000	90.000000	27.000000	0.000000
1.400000	29.350000	96.490000	0.000000	0.000000	0.000000	90.000000	11.000000	0.000000
1.410000	29.350000	96.240000	0.000000	0.000000	139.000000	48.000000	0.000000	-25.000000
1.420000	29.290000	95.130000	0.000000	0.000000	139.000000	48.000000	-6.000000	-111.000000
1.430000	29.170000	93.900000	0.000000	0.000000	139.000000	48.000000	-12.000000	-123.000000
1.440000	28.930000	92.690000	0.000000	0.000000	139.000000	48.000000	-24.000000	-121.000000
1.450000	28.600000	91.390000	0.000000	0.000000	139.000000	48.000000	-33.000000	-130.000000
1.460000	28.370000	89.960000	0.000000	0.000000	139.000000	48.000000	-23.000000	-143.000000
1.470000	28.040000	88.500000	0.000000	0.000000	139.000000	48.000000	-33.000000	-146.000000
1.480000	27.640000	87.030000	0.000000	0.000000	140.000000	48.000000	-40.000000	-147.000000
1.490000	27.210000	85.960000	0.000000	0.000000	140.000000	48.000000	-43.000000	-107.000000
1.500000	26.680000	85.010000	0.000000	0.000000	140.000000	48.000000	-53.000000	-95.000000
1.510000	26.090000	84.140000	0.000000	0.000000	143.000000	48.000000	-59.000000	-87.000000
1.520000	25.570000	83.630000	0.000000	0.000000	143.000000	49.000000	-52.000000	-51.000000
1.530000	25.070000	83.480000	0.000000	0.000000	146.000000	50.000000	-50.000000	-15.000000
1.540000	24.690000	83.580000	0.000000	0.000000	147.000000	52.000000	-38.000000	10.000000
1.550000	24.380000	83.440000	0.000000	0.000000	148.000000	54.000000	-31.000000	-14.000000
1.560000	24.170000	83.970000	0.000000	0.000000	150.000000	55.000000	-21.000000	53.000000
1.570000	24.000000	84.950000	0.000000	0.000000	152.000000	57.000000	-17.000000	98.000000
1.580000	24.000000	85.710000	0.000000	0.000000	154.000000	57.000000	0.000000	76.000000
1.590000	24.000000	86.430000	0.000000	0.000000	155.000000	58.000000	0.000000	72.000000
1.600000	24.170000	86.860000	0.000000	0.000000	157.000000	58.000000	17.000000	43.000000
1.610000	24.300000	87.110000	0.000000	0.000000	157.000000	57.000000	13.000000	25.000000
1.620000	24.440000	87.060000	0.000000	0.000000	158.000000	56.000000	14.000000	-5.000000
1.630000	24.440000	86.690000	0.000000	0.000000	159.000000	55.000000	0.000000	-37.000000
1.640000	24.390000	86.100000	0.000000	0.000000	159.000000	55.000000	-5.000000	-59.000000
1.650000	24.250000	85.450000	0.000000	0.000000	160.000000	54.000000	-14.000000	-65.000000
1.660000	24.130000	84.860000	0.000000	0.000000	160.000000	54.000000	-12.000000	-59.000000
1.670000	24.000000	84.320000	0.000000	0.000000	159.000000	55.000000	-13.000000	-54.000000
1.680000	23.790000	83.800000	0.000000	0.000000	159.000000	55.000000	-21.000000	-52.000000
1.690000	23.530000	83.260000	0.000000	0.000000	157.000000	56.000000	-26.000000	-54.000000
1.700000	23.250000	82.700000	0.000000	0.000000	154.000000	57.000000	-28.000000	-56.000000
1.710000	23.010000	82.090000	0.000000	0.000000	151.000000	58.000000	-24.000000	-61.000000
1.720000	22.800000	81.620000	0.000000	0.000000	149.000000	58.000000	-21.000000	-47.000000
1.730000	22.670000	81.230000	0.000000	0.000000	145.000000	59.000000	-13.000000	-39.000000
1.740000	22.560000	80.990000	0.000000	0.000000	142.000000	59.000000	-11.000000	-24.000000
1.750000	22.470000	80.880000	0.000000	0.000000	141.000000	60.000000	-9.000000	-11.000000
1.760000	22.400000	80.880000	0.000000	0.000000	138.000000	60.000000	-7.000000	0.000000
1.770000	22.340000	80.980000	0.000000	0.000000	135.000000	60.000000	-6.000000	10.000000
1.780000	22.340000	81.130000	0.000000	0.000000	134.000000	61.000000	0.000000	15.000000
1.790000	22.250000	81.310000	0.000000	0.000000	132.000000	60.000000	-9.000000	18.000000
1.800000	22.200000	81.570000	0.000000	0.000000	132.000000	60.000000	-5.000000	26.000000
1.810000	22.150000	81.870000	0.000000	0.000000	132.000000	60.000000	-5.000000	30.000000
1.820000	22.210000	82.200000	0.000000	0.000000	131.000000	60.000000	6.000000	33.000000
1.830000	22.350000	82.540000	0.000000	0.000000	132.000000	59.000000	14.000000	34.000000
1.840000	22.490000	82.830000	0.000000	0.000000	132.000000	59.000000	14.000000	29.000000
1.850000	22.610000	82.880000	0.000000	0.000000	134.000000	58.000000	12.000000	5.000000
1.860000	22.610000	82.800000	0.000000	0.000000	135.000000	58.000000	0.000000	-8.000000
1.870000	22.610000	82.410000	0.000000	0.000000	135.000000	58.000000	0.000000	-39.000000
1.880000	22.540000	81.900000	0.000000	0.000000	136.000000	57.000000	-7.000000	-51.000000
1.890000	22.380000	81.310000	0.000000	0.000000	135.000000	58.000000	-16.000000	-59.000000
1.900000	22.170000	80.730000	0.000000	0.000000	135.000000	58.000000	-21.000000	-58.000000
1.910000	22.000000	80.240000	0.000000	0.000000	134.000000	58.000000	-17.000000	-49.000000
1.920000	21.830000	79.800000	0.000000	0.000000	132.000000	59.000000	-17.000000	-44.000000
1.930000	21.670000	79.460000	0.000000	0.000000	132.000000	59.000000	-16.000000	-34.000000
1.940000	21.570000	79.160000	0.000000	0.000000	132.000000	59.000000	-10.000000	-30.000000
1.950000	21.500000	78.900000	0.000000	0.000000	131.000000	58.000000	-7.000000	-26.000000
1.960000	21.500000	78.640000	0.000000	0.000000	132.000000	58.000000	0.000000	-26.000000
1.970000	21.440000	78.350000	0.000000	0.000000	134.000000	57.000000	-6.000000	-29.000000
1.980000	21.440000	78.060000	0.000000	0.000000	136.000000	56.000000	0.000000	-29.000000
1.990000	21.390000	77.790000	0.000000	0.000000	138.000000	55.000000	-5.000000	-27.000000
2.000000	21.390000	77.610000	0.000000	0.000000	140.000000	55.000000	0.000000	-18.000000
2.010000	21.320000	77.420000	0.000000	0.000000	141.000000	55.000000	-7.000000	-19.000000
2.020000	21.270000	77.420000	0.000000	0.000000	142.000000	54.000000	-5.000000	0.000000
2.030000	21.200000	77.580000	0.000000	0.000000	141.000000	55.000000	-7.000000	16.000000
2.040000	21.130000	77.680000	0.000000	0.000000	141.000000	55.000000	-7.000000	10.000000
2.050000	21.080000	77.780000	0.000000	0.000000	141.000000	55.000000	-5.000000	10.000000
2.060000	21.080000	77.920000	0.000000	0.000000	141.000000	55.000000	0.000000	14.000000
2.070000	21.000000	78.090000	0.000000	0.000000	141.000000	55.000000	-8.000000	17.000000
2.080000	20.940000	78.230000	0.000000	0.000000	140.000000	54.000000	-6.000000	14.000000
2.090000	20.790000	78.310000	0.000000	0.000000	140.000000	54.000000	-15.000000	8.000000
2.100000	20.620000	78.380000	0.000000	0.000000	140.000000	54.000000	-17.000000	7.000000
2.110000	20.430000	78.460000	0.000000	0.000000	140.000000	54.000000	-19.000000	8.000000
2.120000	20.280000	78.540000	0.000000	0.000000	140.000000	54.000000	-15.000000	8.000000
2.130000	20.170000	78.610000	0.000000	0.000000	139.000000	55.000000	-11.000000	7.000000
2.140000	20.090000	78.690000	0.000000	0.000000	139.000000	55.000000	-8.000000	8.000000
2.150000	20.020000	78.770000	0.000000	0.000000	140.000000	55.000000	-7.000000	8.000000
2.160000	20.020000	78.850000	0.000000	0.000000	140.000000	55.000000	0.000000	8.000000
2.170000	19.960000	78.920000	0.000000	0.000000	139.000000	56.000000	-6.000000	7.000000
2.180000	19.900000	78.970000	0.000000	0.000000	139.000000	56.000000	-6.000000	5.000000
2.190000	19.900000	78.970000	0.000000	0.000000	139.000000	56.000000	0.000000	0.000000
2.200000	19.900000	79.040000	0.000000	0.000000	139.000000	56.000000	0.000000	7.000000
2.210000	19.840000	79.040000	0.000000	0.000000	139.000000	56.000000	-6.000000	0.000000
2.220000	19.840000	78.980000	0.000000	0.000000	139.000000	56.000000	0.000000	-6.000000
2.230000	19.790000	78.980000	0.000000	0.000000	140.000000	56.000000	-5.000000	0.000000
