t	x	y	pressure	penup	azimuth	inclination	v_x	v_y
0.000000	50.900000	42.900000	42.000000	1.000000	117.000000	54.000000	0.000000	0.000000
0.010000	50.560000	42.780000	61.000000	0.000000	116.000000	55.000000	-34.000000	-12.000000
0.020000	50.490000	42.660000	105.000000	0.000000	116.000000	55.000000	-7.000000	-12.000000
0.030000	50.420000	42.560000	176.000000	0.000000	116.000000	55.000000	-7.000000	-10.000000
0.040000	50.330000	42.400000	297.000000	0.000000	116.000000	55.000000	-9.000000	-16.000000
0.050000	50.220000	42.200000	417.000000	0.000000	116.000000	55.000000	-11.000000	-20.000000
0.060000	50.220000	42.020000	492.000000	0.000000	116.000000	55.000000	0.000000	-18.000000
0.070000	50.280000	42.020000	570.000000	0.000000	116.000000	55.000000	6.000000	0.000000
0.080000	50.340000	42.090000	668.000000	0.000000	116.000000	55.000000	6.000000	7.000000
0.090000	50.660000	42.350000	730.000000	0.000000	115.000000	54.000000	32.000000	26.000000
0.100000	51.140000	43.060000	760.000000	0.000000	115.000000	54.000000	48.000000	71.000000
0.110000	52.020000	44.070000	788.000000	0.000000	116.000000	55.000000	88.000000	101.000000
0.120000	53.130000	45.350000	814.000000	0.000000	116.000000	55.000000	111.000000	128.000000
0.130000	54.390000	46.830000	821.000000	0.000000	116.000000	55.000000	126.000000	148.000000
0.140000	55.640000	48.440000	827.000000	0.000000	117.000000	56.000000	125.000000	161.000000
0.150000	57.010000	50.070000	830.000000	0.000000	117.000000	56.000000	137.000000	163.000000
0.160000	58.460000	51.530000	832.000000	0.000000	119.000000	56.000000	145.000000	146.000000
0.170000	59.710000	52.650000	832.000000	0.000000	121.000000	56.000000	125.000000	112.000000
0.180000	60.860000	53.600000	827.000000	0.000000	123.000000	56.000000	115.000000	95.000000
0.190000	61.950000	54.330000	815.000000	0.000000	125.000000	56.000000	109.000000	73.000000
0.200000	62.940000	54.760000	815.000000	0.000000	127.000000	56.000000	99.000000	43.000000
0.210000	63.730000	54.990000	805.000000	0.000000	127.000000	56.000000	79.000000	23.000000
0.220000	64.390000	54.990000	788.000000	0.000000	129.000000	56.000000	66.000000	0.000000
0.230000	64.680000	54.780000	773.000000	0.000000	130.000000	56.000000	29.000000	-21.000000
0.240000	64.610000	54.350000	770.000000	0.000000	130.000000	56.000000	-7.000000	-43.000000
0.250000	64.310000	53.370000	759.000000	0.000000	130.000000	56.000000	-30.000000	-98.000000
0.260000	63.360000	52.110000	763.000000	0.000000	130.000000	56.000000	-95.000000	-126.000000
0.270000	61.900000	50.670000	750.000000	0.000000	130.000000	56.000000	-146.000000	-144.000000
0.280000	60.090000	49.060000	788.000000	0.000000	130.000000	56.000000	-181.000000	-161.000000
0.290000	58.450000	47.530000	806.000000	0.000000	128.000000	57.000000	-164.000000	-153.000000
0.300000	56.840000	46.050000	823.000000	0.000000	128.000000	57.000000	-161.000000	-148.000000
0.310000	55.750000	45.080000	837.000000	0.000000	127.000000	57.000000	-109.000000	-97.000000
0.320000	55.000000	44.570000	843.000000	0.000000	126.000000	57.000000	-75.000000	-51.000000
0.330000	54.820000	44.380000	830.000000	0.000000	124.000000	57.000000	-18.000000	-19.000000
0.340000	55.010000	44.490000	822.000000	0.000000	123.000000	58.000000	19.000000	11.000000
0.350000	55.450000	44.840000	829.000000	0.000000	121.000000	58.000000	44.000000	35.000000
0.360000	56.330000	45.360000	809.000000	0.000000	120.000000	58.000000	88.000000	52.000000
0.370000	57.420000	46.010000	783.000000	0.000000	120.000000	58.000000	109.000000	65.000000
0.380000	58.660000	46.660000	759.000000	0.000000	120.000000	58.000000	124.000000	65.000000
0.390000	59.480000	47.310000	731.000000	0.000000	120.000000	58.000000	82.000000	65.000000
0.400000	59.680000	47.500000	728.000000	0.000000	120.000000	58.000000	20.000000	19.000000
0.410000	59.460000	47.160000	745.000000	0.000000	120.000000	58.000000	-22.000000	-34.000000
0.420000	58.340000	46.480000	790.000000	0.000000	121.000000	58.000000	-112.000000	-68.000000
0.430000	56.310000	45.210000	863.000000	0.000000	121.000000	58.000000	-203.000000	-127.000000
0.440000	53.670000	43.670000	923.000000	0.000000	121.000000	58.000000	-264.000000	-154.000000
0.450000	51.060000	41.940000	938.000000	0.000000	121.000000	58.000000	-261.000000	-173.000000
0.460000	49.390000	40.700000	974.000000	0.000000	121.000000	58.000000	-167.000000	-124.000000
0.470000	48.350000	40.180000	967.000000	0.000000	120.000000	57.000000	-104.000000	-52.000000
0.480000	48.410000	40.180000	938.000000	0.000000	120.000000	57.000000	6.000000	0.000000
0.490000	49.700000	40.890000	944.000000	0.000000	123.000000	58.000000	129.000000	71.000000
0.500000	51.800000	42.500000	929.000000	0.000000	123.000000	58.000000	210.000000	161.000000
0.510000	55.270000	44.680000	912.000000	0.000000	123.000000	58.000000	347.000000	218.000000
0.520000	59.510000	47.270000	905.000000	0.000000	124.000000	58.000000	424.000000	259.000000
0.530000	64.260000	49.940000	899.000000	0.000000	124.000000	58.000000	475.000000	267.000000
0.540000	68.910000	52.660000	903.000000	0.000000	127.000000	59.000000	465.000000	272.000000
0.550000	72.600000	54.700000	899.000000	0.000000	128.000000	59.000000	369.000000	204.000000
0.560000	75.650000	55.990000	854.000000	0.000000	128.000000	59.000000	305.000000	129.000000
0.570000	77.560000	56.780000	791.000000	0.000000	131.000000	60.000000	191.000000	79.000000
0.580000	78.370000	57.120000	611.000000	0.000000	132.000000	60.000000	81.000000	34.000000
0.590000	78.440000	57.070000	158.000000	0.000000	134.000000	60.000000	7.000000	-5.000000
0.600000	78.440000	57.070000	0.000000	1.000000	135.000000	60.000000	0.000000	0.000000
0.610000	76.700000	56.350000	0.000000	0.000000	135.000000	60.000000	-174.000000	-72.000000
0.620000	75.350000	56.080000	0.000000	0.000000	138.000000	60.000000	-135.000000	-27.000000
0.630000	74.000000	55.900000	0.000000	0.000000	138.000000	60.000000	-135.000000	-18.000000
0.640000	72.700000	55.660000	0.000000	0.000000	138.000000	60.000000	-130.000000	-24.000000
0.650000	71.430000	55.270000	0.000000	0.000000	138.000000	59.000000	-127.000000	-39.000000
0.660000	70.110000	54.780000	0.000000	0.000000	139.000000	58.000000	-132.000000	-49.000000
0.670000	68.990000	54.510000	0.000000	0.000000	139.000000	58.000000	-112.000000	-27.000000
0.680000	68.010000	54.320000	0.000000	0.000000	139.000000	57.000000	-98.000000	-19.000000
0.690000	67.330000	54.190000	0.000000	0.000000	139.000000	57.000000	-68.000000	-13.000000
0.700000	66.630000	53.690000	0.000000	0.000000	139.000000	57.000000	-70.000000	-50.000000
0.710000	65.920000	53.150000	0.000000	0.000000	138.000000	55.000000	-71.000000	-54.000000
0.720000	65.210000	52.430000	0.000000	0.000000	137.000000	53.000000	-71.000000	-72.000000
0.730000	64.430000	51.600000	0.000000	0.000000	136.000000	51.000000	-78.000000	-83.000000
0.740000	63.610000	50.560000	0.000000	0.000000	133.000000	50.000000	-82.000000	-104.000000
0.750000	62.600000	49.460000	0.000000	0.000000	130.000000	51.000000	-101.000000	-110.000000
0.760000	61.620000	48.370000	0.000000	0.000000	128.000000	50.000000	-98.000000	-109.000000
0.770000	60.650000	47.300000	0.000000	0.000000	127.000000	51.000000	-97.000000	-107.000000
0.780000	59.930000	46.530000	0.000000	0.000000	126.000000	50.000000	-72.000000	-77.000000
0.790000	59.420000	46.040000	0.000000	0.000000	127.000000	50.000000	-51.000000	-49.000000
0.800000	59.050000	45.740000	0.000000	0.000000	125.000000	48.000000	-37.000000	-30.000000
0.810000	58.730000	45.610000	0.000000	0.000000	123.000000	47.000000	-32.000000	-13.000000
0.820000	58.460000	45.610000	0.000000	0.000000	126.000000	43.000000	-27.000000	0.000000
0.830000	58.250000	45.670000	0.000000	0.000000	128.000000	40.000000	-21.000000	6.000000
0.840000	58.010000	46.000000	0.000000	0.000000	132.000000	39.000000	-24.000000	33.000000
0.850000	57.760000	46.200000	0.000000	0.000000	137.000000	37.000000	-25.000000	20.000000
0.860000	57.610000	46.320000	0.000000	0.000000	136.000000	40.000000	-15.000000	12.000000
0.870000	57.490000	46.320000	0.000000	0.000000	134.000000	42.000000	-12.000000	0.000000
0.880000	57.410000	46.320000	0.000000	0.000000	132.000000	45.000000	-8.000000	0.000000
0.890000	57.330000	46.160000	0.000000	0.000000	131.000000	47.000000	-8.000000	-16.000000
0.900000	57.330000	45.950000	0.000000	0.000000	129.000000	50.000000	0.000000	-21.000000
0.910000	57.270000	45.690000	0.000000	0.000000	129.000000	53.000000	-6.000000	-26.000000
0.920000	57.160000	45.490000	0.000000	0.000000	129.000000	55.000000	-11.000000	-20.000000
0.930000	57.160000	45.330000	0.000000	0.000000	129.000000	56.000000	0.000000	-16.000000
0.940000	57.210000	45.430000	0.000000	0.000000	128.000000	57.000000	5.000000	10.000000
0.950000	57.300000	45.490000	0.000000	0.000000	128.000000	58.000000	9.000000	6.000000
0.960000	57.400000	45.560000	0.000000	0.000000	127.000000	59.000000	10.000000	7.000000
0.970000	57.510000	45.640000	0.000000	0.000000	126.000000	60.000000	11.000000	8.000000
0.980000	57.590000	45.750000	0.000000	0.000000	125.000000	59.000000	8.000000	11.000000
0.990000	57.590000	45.750000	143.000000	1.000000	124.000000	60.000000	0.000000	0.000000
1.000000	57.650000	46.150000	254.000000	0.000000	123.000000	59.000000	6.000000	40.000000
1.010000	57.650000	46.240000	270.000000	0.000000	123.000000	59.000000	0.000000	9.000000
1.020000	57.730000	46.320000	342.000000	0.000000	121.000000	58.000000	8.000000	8.000000
1.030000	57.820000	46.380000	407.000000	0.000000	121.000000	58.000000	9.000000	6.000000
1.040000	57.910000	46.450000	463.000000	0.000000	121.000000	58.000000	9.000000	7.000000
1.050000	58.120000	46.530000	519.000000	0.000000	120.000000	57.000000	21.000000	8.000000
1.060000	58.410000	46.750000	561.000000	0.000000	120.000000	57.000000	29.000000	22.000000
1.070000	58.800000	47.060000	581.000000	0.000000	120.000000	57.000000	39.000000	31.000000
1.080000	59.290000	47.630000	614.000000	0.000000	121.000000	56.000000	49.000000	57.000000
1.090000	59.850000	48.300000	641.000000	0.000000	121.000000	56.000000	56.000000	67.000000
1.100000	60.410000	49.050000	643.000000	0.000000	123.000000	56.000000	56.000000	75.000000
1.110000	60.860000	49.650000	650.000000	0.000000	123.000000	56.000000	45.000000	60.000000
1.120000	61.240000	49.990000	655.000000	0.000000	125.000000	56.000000	38.000000	34.000000
1.130000	61.410000	50.170000	655.000000	0.000000	126.000000	56.000000	17.000000	18.000000
1.140000	61.510000	50.170000	644.000000	0.000000	127.000000	55.000000	10.000000	0.000000
1.150000	61.510000	50.170000	641.000000	0.000000	129.000000	55.000000	0.000000	0.000000
1.160000	61.510000	49.970000	638.000000	0.000000	129.000000	55.000000	0.000000	-20.000000
1.170000	61.350000	49.630000	645.000000	0.000000	129.000000	55.000000	-16.000000	-34.000000
1.180000	61.130000	49.110000	647.000000	0.000000	130.000000	54.000000	-22.000000	-52.000000
1.190000	60.870000	48.570000	636.000000	0.000000	129.000000	55.000000	-26.000000	-54.000000
1.200000	60.670000	48.260000	641.000000	0.000000	129.000000	55.000000	-20.000000	-31.000000
1.210000	60.610000	48.110000	650.000000	0.000000	129.000000	55.000000	-6.000000	-15.000000
1.220000	60.610000	48.040000	650.000000	0.000000	127.000000	55.000000	0.000000	-7.000000
1.230000	60.680000	48.090000	652.000000	0.000000	126.000000	56.000000	7.000000	5.000000
1.240000	60.780000	48.230000	670.000000	0.000000	126.000000	56.000000	10.000000	14.000000
1.250000	61.110000	48.480000	673.000000	0.000000	125.000000	56.000000	33.000000	25.000000
1.260000	61.560000	48.940000	673.000000	0.000000	125.000000	56.000000	45.000000	46.000000
1.270000	62.070000	49.530000	684.000000	0.000000	125.000000	56.000000	51.000000	59.000000
1.280000	62.530000	50.030000	687.000000	0.000000	126.000000	56.000000	46.000000	50.000000
1.290000	62.860000	50.370000	690.000000	0.000000	127.000000	56.000000	33.000000	34.000000
1.300000	63.110000	50.600000	687.000000	0.000000	129.000000	56.000000	25.000000	23.000000
1.310000	63.220000	50.740000	685.000000	0.000000	129.000000	56.000000	11.000000	14.000000
1.320000	63.220000	50.850000	681.000000	0.000000	130.000000	55.000000	0.000000	11.000000
1.330000	63.220000	50.850000	659.000000	0.000000	130.000000	55.000000	0.000000	0.000000
1.340000	63.040000	50.930000	641.000000	0.000000	131.000000	55.000000	-18.000000	8.000000
1.350000	62.900000	50.990000	642.000000	0.000000	131.000000	55.000000	-14.000000	6.000000
1.360000	62.800000	50.990000	620.000000	0.000000	131.000000	55.000000	-10.000000	0.000000
1.370000	62.730000	50.870000	611.000000	0.000000	131.000000	55.000000	-7.000000	-12.000000
1.380000	62.730000	50.730000	610.000000	0.000000	131.000000	55.000000	0.000000	-14.000000
1.390000	62.730000	50.570000	617.000000	0.000000	131.000000	55.000000	0.000000	-16.000000
1.400000	62.850000	50.360000	619.000000	0.000000	131.000000	55.000000	12.000000	-21.000000
1.410000	63.060000	50.280000	641.000000	0.000000	131.000000	55.000000	21.000000	-8.000000
1.420000	63.330000	50.280000	647.000000	0.000000	131.000000	55.000000	27.000000	0.000000
1.430000	63.650000	50.380000	667.000000	0.000000	131.000000	55.000000	32.000000	10.000000
1.440000	63.980000	50.610000	664.000000	0.000000	131.000000	55.000000	33.000000	23.000000
1.450000	64.330000	50.930000	666.000000	0.000000	131.000000	55.000000	35.000000	32.000000
1.460000	64.630000	51.320000	669.000000	0.000000	131.000000	55.000000	30.000000	39.000000
1.470000	64.890000	51.720000	663.000000	0.000000	132.000000	55.000000	26.000000	40.000000
1.480000	65.100000	52.090000	671.000000	0.000000	132.000000	55.000000	21.000000	37.000000
1.490000	65.180000	52.380000	653.000000	0.000000	132.000000	55.000000	8.000000	29.000000
1.500000	65.180000	52.460000	644.000000	0.000000	132.000000	55.000000	0.000000	8.000000
1.510000	65.180000	52.460000	628.000000	0.000000	132.000000	55.000000	0.000000	0.000000
1.520000	65.020000	52.360000	616.000000	0.000000	132.000000	55.000000	-16.000000	-10.000000
1.530000	64.840000	52.230000	614.000000	0.000000	132.000000	55.000000	-18.000000	-13.000000
1.540000	64.670000	51.980000	610.000000	0.000000	132.000000	55.000000	-17.000000	-25.000000
1.550000	64.520000	51.710000	614.000000	0.000000	132.000000	55.000000	-15.000000	-27.000000
1.560000	64.520000	51.470000	628.000000	0.000000	132.000000	55.000000	0.000000	-24.000000
1.570000	64.680000	51.400000	641.000000	0.000000	132.000000	55.000000	16.000000	-7.000000
1.580000	64.860000	51.400000	661.000000	0.000000	132.000000	55.000000	18.000000	0.000000
1.590000	65.170000	51.560000	667.000000	0.000000	132.000000	55.000000	31.000000	16.000000
1.600000	65.570000	51.860000	669.000000	0.000000	132.000000	55.000000	40.000000	30.000000
1.610000	66.060000	52.250000	672.000000	0.000000	132.000000	55.000000	49.000000	39.000000
1.620000	66.520000	52.750000	675.000000	0.000000	132.000000	55.000000	46.000000	50.000000
1.630000	66.950000	53.220000	669.000000	0.000000	132.000000	55.000000	43.000000	47.000000
1.640000	67.280000	53.480000	667.000000	0.000000	134.000000	56.000000	33.000000	26.000000
1.650000	67.380000	53.600000	666.000000	0.000000	134.000000	56.000000	10.000000	12.000000
1.660000	67.320000	53.540000	667.000000	0.000000	134.000000	56.000000	-6.000000	-6.000000
1.670000	67.320000	53.540000	673.000000	0.000000	134.000000	56.000000	0.000000	0.000000
1.680000	67.100000	53.260000	678.000000	0.000000	134.000000	56.000000	-22.000000	-28.000000
1.690000	66.920000	52.870000	694.000000	0.000000	134.000000	56.000000	-18.000000	-39.000000
1.700000	66.760000	52.340000	690.000000	0.000000	134.000000	56.000000	-16.000000	-53.000000
1.710000	66.560000	51.640000	694.000000	0.000000	134.000000	56.000000	-20.000000	-70.000000
1.720000	66.320000	50.900000	697.000000	0.000000	132.000000	57.000000	-24.000000	-74.000000
1.730000	66.060000	49.950000	700.000000	0.000000	132.000000	57.000000	-26.000000	-95.000000
1.740000	65.680000	48.880000	703.000000	0.000000	132.000000	57.000000	-38.000000	-107.000000
1.750000	65.290000	47.740000	702.000000	0.000000	131.000000	57.000000	-39.000000	-114.000000
1.760000	64.890000	46.820000	700.000000	0.000000	130.000000	58.000000	-40.000000	-92.000000
1.770000	64.620000	46.350000	710.000000	0.000000	127.000000	57.000000	-27.000000	-47.000000
1.780000	64.520000	46.120000	727.000000	0.000000	126.000000	58.000000	-10.000000	-23.000000
1.790000	64.520000	46.170000	725.000000	0.000000	124.000000	58.000000	0.000000	5.000000
1.800000	64.610000	46.370000	731.000000	0.000000	123.000000	59.000000	9.000000	20.000000
1.810000	64.720000	46.680000	737.000000	0.000000	121.000000	59.000000	11.000000	31.000000
1.820000	65.050000	47.370000	737.000000	0.000000	121.000000	59.000000	33.000000	69.000000
1.830000	65.520000	48.280000	736.000000	0.000000	121.000000	59.000000	47.000000	91.000000
1.840000	65.990000	49.340000	743.000000	0.000000	121.000000	59.000000	47.000000	106.000000
1.850000	66.440000	50.250000	745.000000	0.000000	121.000000	59.000000	45.000000	91.000000
1.860000	66.880000	51.160000	746.000000	0.000000	124.000000	60.000000	44.000000	91.000000
1.870000	67.300000	52.030000	737.000000	0.000000	127.000000	59.000000	42.000000	87.000000
1.880000	67.530000	52.830000	739.000000	0.000000	128.000000	58.000000	23.000000	80.000000
1.890000	67.630000	53.330000	728.000000	0.000000	131.000000	58.000000	10.000000	50.000000
1.900000	67.630000	53.660000	725.000000	0.000000	131.000000	58.000000	0.000000	33.000000
1.910000	67.630000	53.660000	724.000000	0.000000	132.000000	58.000000	0.000000	0.000000
1.920000	67.550000	53.660000	714.000000	0.000000	132.000000	58.000000	-8.000000	0.000000
1.930000	67.380000	53.420000	714.000000	0.000000	134.000000	57.000000	-17.000000	-24.000000
1.940000	67.200000	53.000000	711.000000	0.000000	134.000000	57.000000	-18.000000	-42.000000
1.950000	67.020000	52.320000	714.000000	0.000000	134.000000	57.000000	-18.000000	-68.000000
1.960000	67.020000	51.730000	710.000000	0.000000	134.000000	57.000000	0.000000	-59.000000
1.970000	67.020000	51.210000	710.000000	0.000000	134.000000	57.000000	0.000000	-52.000000
1.980000	67.020000	50.970000	724.000000	0.000000	134.000000	57.000000	0.000000	-24.000000
1.990000	67.090000	50.850000	727.000000	0.000000	134.000000	57.000000	7.000000	-12.000000
2.000000	67.190000	50.850000	730.000000	0.000000	132.000000	57.000000	10.000000	0.000000
2.010000	67.320000	50.850000	746.000000	0.000000	132.000000	57.000000	13.000000	0.000000
2.020000	67.500000	51.090000	762.000000	0.000000	134.000000	57.000000	18.000000	24.000000
2.030000	67.860000	51.440000	768.000000	0.000000	134.000000	57.000000	36.000000	35.000000
2.040000	68.340000	52.040000	780.000000	0.000000	134.000000	57.000000	48.000000	60.000000
2.050000	68.850000	52.690000	796.000000	0.000000	134.000000	57.000000	51.000000	65.000000
2.060000	69.320000	53.370000	797.000000	0.000000	134.000000	57.000000	47.000000	68.000000
2.070000	69.700000	54.120000	797.000000	0.000000	132.000000	58.000000	38.000000	75.000000
2.080000	70.020000	54.990000	794.000000	0.000000	132.000000	58.000000	32.000000	87.000000
2.090000	70.270000	55.940000	788.000000	0.000000	132.000000	58.000000	25.000000	95.000000
2.100000	70.400000	57.000000	760.000000	0.000000	132.000000	58.000000	13.000000	106.000000
2.110000	70.450000	58.050000	768.000000	0.000000	132.000000	58.000000	5.000000	105.000000
2.120000	70.500000	59.090000	773.000000	0.000000	132.000000	58.000000	5.000000	104.000000
2.130000	70.500000	59.550000	790.000000	0.000000	134.000000	57.000000	0.000000	46.000000
2.140000	70.420000	59.680000	794.000000	0.000000	135.000000	58.000000	-8.000000	13.000000
2.150000	70.360000	59.580000	788.000000	0.000000	136.000000	57.000000	-6.000000	-10.000000
2.160000	70.230000	59.350000	790.000000	0.000000	136.000000	57.000000	-13.000000	-23.000000
2.170000	70.040000	58.660000	790.000000	0.000000	138.000000	57.000000	-19.000000	-69.000000
2.180000	69.860000	57.670000	794.000000	0.000000	138.000000	57.000000	-18.000000	-99.000000
2.190000	69.650000	56.540000	787.000000	0.000000	138.000000	57.000000	-21.000000	-113.000000
