t	x	y	pressure	penup	azimuth	inclination	v_x	v_y
0.000000	49.250000	61.720000	98.000000	1.000000	126.000000	56.000000	0.000000	0.000000
0.010000	48.840000	61.630000	124.000000	0.000000	126.000000	56.000000	-41.000000	-9.000000
0.020000	48.690000	61.630000	205.000000	0.000000	126.000000	56.000000	-15.000000	0.000000
0.030000	48.610000	61.570000	302.000000	0.000000	126.000000	56.000000	-8.000000	-6.000000
0.040000	48.550000	61.470000	392.000000	0.000000	126.000000	56.000000	-6.000000	-10.000000
0.050000	48.550000	61.350000	485.000000	0.000000	126.000000	56.000000	0.000000	-12.000000
0.060000	48.550000	61.220000	544.000000	0.000000	125.000000	55.000000	0.000000	-13.000000
0.070000	48.550000	61.100000	595.000000	0.000000	125.000000	55.000000	0.000000	-12.000000
0.080000	48.610000	61.100000	655.000000	0.000000	124.000000	54.000000	6.000000	0.000000
0.090000	48.660000	61.150000	708.000000	0.000000	123.000000	53.000000	5.000000	5.000000
0.100000	48.780000	61.150000	757.000000	0.000000	121.000000	53.000000	12.000000	0.000000
0.110000	49.200000	61.690000	776.000000	0.000000	121.000000	53.000000	42.000000	54.000000
0.120000	49.820000	62.530000	788.000000	0.000000	121.000000	53.000000	62.000000	84.000000
0.130000	50.780000	63.900000	797.000000	0.000000	121.000000	53.000000	96.000000	137.000000
0.140000	52.050000	65.490000	794.000000	0.000000	121.000000	53.000000	127.000000	159.000000
0.150000	53.530000	67.240000	790.000000	0.000000	122.000000	54.000000	148.000000	175.000000
0.160000	54.830000	68.750000	788.000000	0.000000	122.000000	54.000000	130.000000	151.000000
0.170000	56.060000	70.220000	787.000000	0.000000	124.000000	54.000000	123.000000	147.000000
0.180000	57.250000	71.000000	787.000000	0.000000	126.000000	54.000000	119.000000	78.000000
0.190000	58.220000	71.330000	768.000000	0.000000	129.000000	55.000000	97.000000	33.000000
0.200000	58.770000	71.420000	757.000000	0.000000	129.000000	55.000000	55.000000	9.000000
0.210000	59.030000	71.300000	750.000000	0.000000	130.000000	54.000000	26.000000	-12.000000
0.220000	59.240000	71.040000	756.000000	0.000000	131.000000	54.000000	21.000000	-26.000000
0.230000	59.410000	70.650000	751.000000	0.000000	133.000000	53.000000	17.000000	-39.000000
0.240000	59.540000	70.250000	763.000000	0.000000	133.000000	53.000000	13.000000	-40.000000
0.250000	59.540000	69.750000	760.000000	0.000000	134.000000	52.000000	0.000000	-50.000000
0.260000	59.540000	69.180000	746.000000	0.000000	133.000000	53.000000	0.000000	-57.000000
0.270000	59.460000	68.650000	733.000000	0.000000	131.000000	52.000000	-8.000000	-53.000000
0.280000	59.310000	68.110000	697.000000	0.000000	131.000000	54.000000	-15.000000	-54.000000
0.290000	59.030000	67.600000	688.000000	0.000000	131.000000	54.000000	-28.000000	-51.000000
0.300000	58.580000	67.100000	653.000000	0.000000	130.000000	54.000000	-45.000000	-50.000000
0.310000	58.020000	66.530000	646.000000	0.000000	130.000000	55.000000	-56.000000	-57.000000
0.320000	57.260000	65.960000	643.000000	0.000000	129.000000	56.000000	-76.000000	-57.000000
0.330000	56.390000	65.360000	662.000000	0.000000	127.000000	56.000000	-87.000000	-60.000000
0.340000	55.450000	64.720000	671.000000	0.000000	127.000000	56.000000	-94.000000	-64.000000
0.350000	54.400000	64.010000	702.000000	0.000000	127.000000	56.000000	-105.000000	-71.000000
0.360000	53.370000	63.330000	757.000000	0.000000	127.000000	56.000000	-103.000000	-68.000000
0.370000	52.360000	62.820000	788.000000	0.000000	127.000000	56.000000	-101.000000	-51.000000
0.380000	51.670000	62.410000	791.000000	0.000000	127.000000	56.000000	-69.000000	-41.000000
0.390000	51.270000	62.210000	794.000000	0.000000	127.000000	56.000000	-40.000000	-20.000000
0.400000	51.070000	62.080000	796.000000	0.000000	127.000000	56.000000	-20.000000	-13.000000
0.410000	51.070000	61.990000	768.000000	0.000000	129.000000	56.000000	0.000000	-9.000000
0.420000	51.340000	62.060000	767.000000	0.000000	129.000000	56.000000	27.000000	7.000000
0.430000	51.720000	62.120000	768.000000	0.000000	129.000000	56.000000	38.000000	6.000000
0.440000	52.500000	62.120000	770.000000	0.000000	127.000000	55.000000	78.000000	0.000000
0.450000	53.330000	62.450000	771.000000	0.000000	127.000000	55.000000	83.000000	33.000000
0.460000	54.150000	62.970000	779.000000	0.000000	127.000000	55.000000	82.000000	52.000000
0.470000	54.960000	63.420000	782.000000	0.000000	129.000000	56.000000	81.000000	45.000000
0.480000	55.780000	63.820000	787.000000	0.000000	129.000000	56.000000	82.000000	40.000000
0.490000	56.510000	64.320000	785.000000	0.000000	127.000000	56.000000	73.000000	50.000000
0.500000	57.190000	64.910000	785.000000	0.000000	128.000000	57.000000	68.000000	59.000000
0.510000	57.590000	65.210000	780.000000	0.000000	128.000000	57.000000	40.000000	30.000000
0.520000	57.760000	65.340000	773.000000	0.000000	128.000000	57.000000	17.000000	13.000000
0.530000	57.760000	65.340000	768.000000	0.000000	128.000000	58.000000	0.000000	0.000000
0.540000	57.660000	65.220000	759.000000	0.000000	128.000000	58.000000	-10.000000	-12.000000
0.550000	57.290000	65.030000	761.000000	0.000000	128.000000	58.000000	-37.000000	-19.000000
0.560000	56.740000	64.620000	754.000000	0.000000	128.000000	58.000000	-55.000000	-41.000000
0.570000	55.950000	64.080000	737.000000	0.000000	128.000000	58.000000	-79.000000	-54.000000
0.580000	55.010000	63.550000	733.000000	0.000000	128.000000	58.000000	-94.000000	-53.000000
0.590000	53.980000	62.950000	705.000000	0.000000	130.000000	58.000000	-103.000000	-60.000000
0.600000	52.740000	62.300000	702.000000	0.000000	130.000000	58.000000	-124.000000	-65.000000
0.610000	51.500000	61.780000	702.000000	0.000000	130.000000	58.000000	-124.000000	-52.000000
0.620000	50.270000	61.200000	690.000000	0.000000	130.000000	56.000000	-123.000000	-58.000000
0.630000	49.400000	60.750000	694.000000	0.000000	130.000000	56.000000	-87.000000	-45.000000
0.640000	48.830000	60.400000	696.000000	0.000000	130.000000	56.000000	-57.000000	-35.000000
0.650000	48.450000	60.240000	708.000000	0.000000	129.000000	56.000000	-38.000000	-16.000000
0.660000	48.340000	60.240000	711.000000	0.000000	129.000000	56.000000	-11.000000	0.000000
0.670000	48.470000	60.320000	714.000000	0.000000	129.000000	56.000000	13.000000	8.000000
0.680000	48.770000	60.510000	730.000000	0.000000	127.000000	55.000000	30.000000	19.000000
0.690000	49.390000	60.980000	753.000000	0.000000	127.000000	55.000000	62.000000	47.000000
0.700000	50.670000	61.640000	790.000000	0.000000	127.000000	55.000000	128.000000	66.000000
0.710000	52.390000	62.740000	794.000000	0.000000	127.000000	55.000000	172.000000	110.000000
0.720000	54.600000	64.060000	817.000000	0.000000	129.000000	56.000000	221.000000	132.000000
0.730000	57.180000	65.540000	818.000000	0.000000	129.000000	56.000000	258.000000	148.000000
0.740000	60.000000	66.870000	826.000000	0.000000	130.000000	56.000000	282.000000	133.000000
0.750000	62.960000	68.190000	787.000000	0.000000	130.000000	56.000000	296.000000	132.000000
0.760000	65.680000	69.500000	791.000000	0.000000	131.000000	57.000000	272.000000	131.000000
0.770000	68.250000	70.520000	759.000000	0.000000	134.000000	57.000000	257.000000	102.000000
0.780000	70.210000	71.240000	725.000000	0.000000	134.000000	57.000000	196.000000	72.000000
0.790000	71.690000	71.770000	666.000000	0.000000	136.000000	57.000000	148.000000	53.000000
0.800000	72.860000	72.090000	496.000000	0.000000	138.000000	57.000000	117.000000	32.000000
0.810000	73.470000	72.170000	46.000000	0.000000	139.000000	57.000000	61.000000	8.000000
0.820000	73.470000	72.170000	0.000000	1.000000	140.000000	56.000000	0.000000	0.000000
0.830000	72.970000	71.780000	0.000000	0.000000	142.000000	57.000000	-50.000000	-39.000000
0.840000	71.960000	71.780000	0.000000	0.000000	143.000000	56.000000	-101.000000	0.000000
0.850000	70.740000	71.720000	0.000000	0.000000	143.000000	56.000000	-122.000000	-6.000000
0.860000	69.380000	71.420000	0.000000	0.000000	143.000000	56.000000	-136.000000	-30.000000
0.870000	67.730000	71.070000	0.000000	0.000000	143.000000	56.000000	-165.000000	-35.000000
0.880000	65.980000	70.540000	0.000000	0.000000	142.000000	57.000000	-175.000000	-53.000000
0.890000	64.150000	69.900000	0.000000	0.000000	140.000000	56.000000	-183.000000	-64.000000
0.900000	62.510000	69.220000	0.000000	0.000000	140.000000	56.000000	-164.000000	-68.000000
0.910000	60.900000	68.530000	0.000000	0.000000	138.000000	55.000000	-161.000000	-69.000000
0.920000	59.550000	67.810000	0.000000	0.000000	136.000000	55.000000	-135.000000	-72.000000
0.930000	58.370000	67.190000	0.000000	0.000000	135.000000	53.000000	-118.000000	-62.000000
0.940000	57.300000	66.650000	0.000000	0.000000	135.000000	52.000000	-107.000000	-54.000000
0.950000	56.560000	66.170000	0.000000	0.000000	135.000000	51.000000	-74.000000	-48.000000
0.960000	56.050000	65.690000	0.000000	0.000000	136.000000	50.000000	-51.000000	-48.000000
0.970000	55.740000	65.290000	0.000000	0.000000	138.000000	50.000000	-31.000000	-40.000000
0.980000	55.740000	64.940000	0.000000	0.000000	140.000000	50.000000	0.000000	-35.000000
0.990000	55.860000	64.240000	0.000000	0.000000	140.000000	51.000000	12.000000	-70.000000
1.000000	55.810000	63.950000	0.000000	0.000000	142.000000	52.000000	-5.000000	-29.000000
1.010000	56.020000	63.950000	0.000000	0.000000	141.000000	53.000000	21.000000	0.000000
1.020000	56.400000	64.460000	0.000000	0.000000	141.000000	55.000000	38.000000	51.000000
1.030000	56.600000	64.810000	0.000000	0.000000	140.000000	56.000000	20.000000	35.000000
1.040000	56.780000	65.040000	0.000000	0.000000	139.000000	57.000000	18.000000	23.000000
1.050000	56.940000	65.400000	0.000000	0.000000	139.000000	57.000000	16.000000	36.000000
1.060000	57.130000	65.720000	0.000000	0.000000	139.000000	57.000000	19.000000	32.000000
1.070000	57.270000	65.950000	0.000000	0.000000	139.000000	57.000000	14.000000	23.000000
1.080000	57.370000	66.040000	0.000000	0.000000	140.000000	58.000000	10.000000	9.000000
1.090000	57.560000	66.040000	0.000000	0.000000	140.000000	58.000000	19.000000	0.000000
1.100000	57.640000	65.940000	0.000000	0.000000	140.000000	58.000000	8.000000	-10.000000
1.110000	57.640000	65.830000	0.000000	0.000000	140.000000	56.000000	0.000000	-11.000000
1.120000	57.710000	65.690000	0.000000	0.000000	140.000000	56.000000	7.000000	-14.000000
1.130000	57.780000	65.640000	0.000000	0.000000	138.000000	57.000000	7.000000	-5.000000
1.140000	57.780000	65.640000	0.000000	0.000000	136.000000	56.000000	0.000000	0.000000
1.150000	57.780000	65.640000	0.000000	0.000000	135.000000	57.000000	0.000000	0.000000
1.160000	57.780000	65.640000	139.000000	1.000000	132.000000	57.000000	0.000000	0.000000
1.170000	57.780000	65.640000	245.000000	0.000000	132.000000	57.000000	0.000000	0.000000
1.180000	57.670000	65.940000	270.000000	0.000000	130.000000	56.000000	-11.000000	30.000000
1.190000	57.750000	66.010000	337.000000	0.000000	128.000000	57.000000	8.000000	7.000000
1.200000	57.870000	66.100000	422.000000	0.000000	128.000000	57.000000	12.000000	9.000000
1.210000	58.090000	66.390000	497.000000	0.000000	127.000000	57.000000	22.000000	29.000000
1.220000	58.410000	66.810000	550.000000	0.000000	127.000000	57.000000	32.000000	42.000000
1.230000	59.000000	67.380000	569.000000	0.000000	127.000000	57.000000	59.000000	57.000000
1.240000	59.770000	68.010000	592.000000	0.000000	127.000000	57.000000	77.000000	63.000000
1.250000	60.690000	68.680000	603.000000	0.000000	127.000000	57.000000	92.000000	67.000000
1.260000	61.510000	69.430000	611.000000	0.000000	128.000000	57.000000	82.000000	75.000000
1.270000	62.260000	69.990000	614.000000	0.000000	131.000000	57.000000	75.000000	56.000000
1.280000	62.700000	70.430000	614.000000	0.000000	132.000000	57.000000	44.000000	44.000000
1.290000	63.030000	70.540000	605.000000	0.000000	134.000000	56.000000	33.000000	11.000000
1.300000	63.080000	70.540000	602.000000	0.000000	135.000000	55.000000	5.000000	0.000000
1.310000	62.980000	70.400000	611.000000	0.000000	136.000000	55.000000	-10.000000	-14.000000
1.320000	62.780000	70.000000	597.000000	0.000000	136.000000	55.000000	-20.000000	-40.000000
1.330000	62.440000	69.350000	595.000000	0.000000	137.000000	54.000000	-34.000000	-65.000000
1.340000	62.000000	68.540000	602.000000	0.000000	136.000000	55.000000	-44.000000	-81.000000
1.350000	61.670000	68.060000	605.000000	0.000000	136.000000	55.000000	-33.000000	-48.000000
1.360000	61.540000	67.820000	611.000000	0.000000	135.000000	55.000000	-13.000000	-24.000000
1.370000	61.540000	67.730000	620.000000	0.000000	134.000000	55.000000	0.000000	-9.000000
1.380000	61.700000	67.730000	620.000000	0.000000	132.000000	55.000000	16.000000	0.000000
1.390000	61.890000	67.800000	644.000000	0.000000	131.000000	56.000000	19.000000	7.000000
1.400000	62.370000	67.970000	670.000000	0.000000	129.000000	56.000000	48.000000	17.000000
1.410000	63.010000	68.350000	670.000000	0.000000	130.000000	56.000000	64.000000	38.000000
1.420000	63.580000	68.870000	673.000000	0.000000	130.000000	56.000000	57.000000	52.000000
1.430000	64.050000	69.490000	671.000000	0.000000	130.000000	56.000000	47.000000	62.000000
1.440000	64.440000	69.860000	663.000000	0.000000	132.000000	57.000000	39.000000	37.000000
1.450000	64.650000	70.190000	665.000000	0.000000	134.000000	56.000000	21.000000	33.000000
1.460000	64.700000	70.370000	655.000000	0.000000	134.000000	56.000000	5.000000	18.000000
1.470000	64.640000	70.460000	644.000000	0.000000	135.000000	55.000000	-6.000000	9.000000
1.480000	64.510000	70.510000	644.000000	0.000000	136.000000	55.000000	-13.000000	5.000000
1.490000	64.290000	70.510000	634.000000	0.000000	136.000000	55.000000	-22.000000	0.000000
1.500000	64.000000	70.400000	631.000000	0.000000	137.000000	54.000000	-29.000000	-11.000000
1.510000	63.780000	70.220000	630.000000	0.000000	137.000000	54.000000	-22.000000	-18.000000
1.520000	63.630000	70.070000	638.000000	0.000000	137.000000	54.000000	-15.000000	-15.000000
1.530000	63.580000	69.940000	645.000000	0.000000	139.000000	54.000000	-5.000000	-13.000000
1.540000	63.630000	69.770000	650.000000	0.000000	137.000000	54.000000	5.000000	-17.000000
1.550000	63.900000	69.700000	667.000000	0.000000	137.000000	54.000000	27.000000	-7.000000
1.560000	64.310000	69.700000	675.000000	0.000000	137.000000	54.000000	41.000000	0.000000
1.570000	64.810000	69.870000	688.000000	0.000000	137.000000	54.000000	50.000000	17.000000
1.580000	65.310000	70.110000	694.000000	0.000000	137.000000	54.000000	50.000000	24.000000
1.590000	65.780000	70.400000	691.000000	0.000000	137.000000	54.000000	47.000000	29.000000
1.600000	66.080000	70.720000	693.000000	0.000000	139.000000	55.000000	30.000000	32.000000
1.610000	66.290000	70.960000	684.000000	0.000000	139.000000	55.000000	21.000000	24.000000
1.620000	66.390000	71.100000	678.000000	0.000000	139.000000	55.000000	10.000000	14.000000
1.630000	66.340000	71.210000	658.000000	0.000000	139.000000	55.000000	-5.000000	11.000000
1.640000	66.190000	71.320000	658.000000	0.000000	140.000000	54.000000	-15.000000	11.000000
1.650000	65.960000	71.320000	659.000000	0.000000	140.000000	54.000000	-23.000000	0.000000
1.660000	65.740000	71.230000	662.000000	0.000000	140.000000	54.000000	-22.000000	-9.000000
1.670000	65.520000	71.080000	661.000000	0.000000	140.000000	54.000000	-22.000000	-15.000000
1.680000	65.370000	70.890000	665.000000	0.000000	140.000000	54.000000	-15.000000	-19.000000
1.690000	65.260000	70.630000	671.000000	0.000000	140.000000	54.000000	-11.000000	-26.000000
1.700000	65.330000	70.500000	667.000000	0.000000	140.000000	54.000000	7.000000	-13.000000
1.710000	65.510000	70.500000	681.000000	0.000000	140.000000	54.000000	18.000000	0.000000
1.720000	65.860000	70.440000	684.000000	0.000000	140.000000	54.000000	35.000000	-6.000000
1.730000	66.260000	70.690000	691.000000	0.000000	140.000000	54.000000	40.000000	25.000000
1.740000	66.700000	71.110000	699.000000	0.000000	140.000000	54.000000	44.000000	42.000000
1.750000	67.120000	71.370000	696.000000	0.000000	140.000000	54.000000	42.000000	26.000000
1.760000	67.400000	71.610000	694.000000	0.000000	140.000000	54.000000	28.000000	24.000000
1.770000	67.600000	71.850000	700.000000	0.000000	140.000000	54.000000	20.000000	24.000000
1.780000	67.600000	71.850000	696.000000	0.000000	140.000000	54.000000	0.000000	0.000000
1.790000	67.550000	71.800000	700.000000	0.000000	140.000000	54.000000	-5.000000	-5.000000
1.800000	67.400000	71.620000	714.000000	0.000000	140.000000	54.000000	-15.000000	-18.000000
1.810000	67.160000	71.100000	733.000000	0.000000	140.000000	54.000000	-24.000000	-52.000000
1.820000	66.830000	70.360000	720.000000	0.000000	139.000000	55.000000	-33.000000	-74.000000
1.830000	66.440000	69.440000	728.000000	0.000000	139.000000	55.000000	-39.000000	-92.000000
1.840000	66.000000	68.400000	721.000000	0.000000	138.000000	55.000000	-44.000000	-104.000000
1.850000	65.490000	67.280000	722.000000	0.000000	136.000000	56.000000	-51.000000	-112.000000
1.860000	64.940000	66.100000	720.000000	0.000000	135.000000	57.000000	-55.000000	-118.000000
1.870000	64.480000	65.220000	725.000000	0.000000	134.000000	57.000000	-46.000000	-88.000000
1.880000	64.240000	64.550000	727.000000	0.000000	132.000000	58.000000	-24.000000	-67.000000
1.890000	64.140000	64.240000	731.000000	0.000000	130.000000	58.000000	-10.000000	-31.000000
1.900000	64.140000	64.180000	740.000000	0.000000	128.000000	58.000000	0.000000	-6.000000
1.910000	64.140000	64.300000	752.000000	0.000000	127.000000	59.000000	0.000000	12.000000
1.920000	64.260000	64.450000	758.000000	0.000000	127.000000	59.000000	12.000000	15.000000
1.930000	64.550000	65.090000	749.000000	0.000000	127.000000	59.000000	29.000000	64.000000
1.940000	64.970000	66.060000	748.000000	0.000000	127.000000	59.000000	42.000000	97.000000
1.950000	65.510000	67.210000	743.000000	0.000000	127.000000	59.000000	54.000000	115.000000
1.960000	66.140000	68.490000	749.000000	0.000000	127.000000	59.000000	63.000000	128.000000
1.970000	66.830000	69.850000	754.000000	0.000000	128.000000	59.000000	69.000000	136.000000
1.980000	67.430000	70.910000	751.000000	0.000000	129.000000	59.000000	60.000000	106.000000
1.990000	67.780000	71.600000	746.000000	0.000000	131.000000	58.000000	35.000000	69.000000
2.000000	67.970000	72.050000	743.000000	0.000000	132.000000	58.000000	19.000000	45.000000
2.010000	68.030000	72.240000	745.000000	0.000000	136.000000	57.000000	6.000000	19.000000
2.020000	68.030000	72.240000	740.000000	0.000000	138.000000	57.000000	0.000000	0.000000
2.030000	67.900000	72.100000	737.000000	0.000000	139.000000	56.000000	-13.000000	-14.000000
2.040000	67.750000	71.820000	736.000000	0.000000	140.000000	55.000000	-15.000000	-28.000000
2.050000	67.610000	71.520000	737.000000	0.000000	140.000000	55.000000	-14.000000	-30.000000
2.060000	67.470000	71.040000	725.000000	0.000000	140.000000	55.000000	-14.000000	-48.000000
2.070000	67.360000	70.460000	722.000000	0.000000	140.000000	55.000000	-11.000000	-58.000000
2.080000	67.310000	70.060000	721.000000	0.000000	140.000000	55.000000	-5.000000	-40.000000
2.090000	67.360000	69.890000	730.000000	0.000000	140.000000	55.000000	5.000000	-17.000000
2.100000	67.520000	69.890000	739.000000	0.000000	139.000000	55.000000	16.000000	0.000000
2.110000	67.770000	69.890000	757.000000	0.000000	138.000000	55.000000	25.000000	0.000000
2.120000	68.070000	70.100000	757.000000	0.000000	138.000000	55.000000	30.000000	21.000000
2.130000	68.400000	70.510000	780.000000	0.000000	138.000000	55.000000	33.000000	41.000000
2.140000	68.850000	71.110000	790.000000	0.000000	138.000000	55.000000	45.000000	60.000000
2.150000	69.380000	71.830000	803.000000	0.000000	138.000000	55.000000	53.000000	72.000000
2.160000	69.840000	72.640000	823.000000	0.000000	139.000000	56.000000	46.000000	81.000000
2.170000	70.210000	73.570000	800.000000	0.000000	139.000000	56.000000	37.000000	93.000000
2.180000	70.520000	74.550000	800.000000	0.000000	139.000000	56.000000	31.000000	98.000000
2.190000	70.760000	75.560000	797.000000	0.000000	139.000000	56.000000	24.000000	101.000000
