t	x	y	pressure	penup	azimuth	inclination	v_x	v_y
0.000000	11.830000	78.040000	34.000000	1.000000	118.000000	65.000000	0.000000	0.000000
0.010000	11.830000	77.760000	344.000000	0.000000	118.000000	65.000000	0.000000	-28.000000
0.020000	11.680000	77.760000	354.000000	0.000000	119.000000	64.000000	-15.000000	0.000000
0.030000	11.680000	77.810000	428.000000	0.000000	119.000000	64.000000	0.000000	5.000000
0.040000	11.760000	77.910000	546.000000	0.000000	116.000000	64.000000	8.000000	10.000000
0.050000	11.910000	78.290000	611.000000	0.000000	113.000000	63.000000	15.000000	38.000000
0.060000	12.370000	78.850000	676.000000	0.000000	113.000000	63.000000	46.000000	56.000000
0.070000	13.040000	79.910000	727.000000	0.000000	113.000000	63.000000	67.000000	106.000000
0.080000	14.110000	81.230000	751.000000	0.000000	112.000000	62.000000	107.000000	132.000000
0.090000	15.630000	82.730000	773.000000	0.000000	113.000000	63.000000	152.000000	150.000000
0.100000	17.460000	84.420000	785.000000	0.000000	113.000000	63.000000	183.000000	169.000000
0.110000	19.310000	86.080000	791.000000	0.000000	114.000000	64.000000	185.000000	166.000000
0.120000	21.180000	87.710000	794.000000	0.000000	114.000000	64.000000	187.000000	163.000000
0.130000	23.050000	88.870000	787.000000	0.000000	117.000000	65.000000	187.000000	116.000000
0.140000	24.450000	89.640000	787.000000	0.000000	118.000000	65.000000	140.000000	77.000000
0.150000	25.480000	90.160000	767.000000	0.000000	118.000000	65.000000	103.000000	52.000000
0.160000	26.260000	90.260000	749.000000	0.000000	119.000000	66.000000	78.000000	10.000000
0.170000	26.520000	90.120000	770.000000	0.000000	121.000000	66.000000	26.000000	-14.000000
0.180000	26.300000	89.810000	788.000000	0.000000	121.000000	66.000000	-22.000000	-31.000000
0.190000	25.760000	89.160000	791.000000	0.000000	121.000000	66.000000	-54.000000	-65.000000
0.200000	24.480000	88.130000	784.000000	0.000000	123.000000	65.000000	-128.000000	-103.000000
0.210000	22.570000	86.840000	793.000000	0.000000	123.000000	65.000000	-191.000000	-129.000000
0.220000	20.230000	85.080000	787.000000	0.000000	121.000000	66.000000	-234.000000	-176.000000
0.230000	17.730000	83.330000	799.000000	0.000000	121.000000	66.000000	-250.000000	-175.000000
0.240000	15.240000	81.650000	800.000000	0.000000	121.000000	66.000000	-249.000000	-168.000000
0.250000	13.230000	80.220000	805.000000	0.000000	119.000000	66.000000	-201.000000	-143.000000
0.260000	11.540000	78.920000	814.000000	0.000000	118.000000	65.000000	-169.000000	-130.000000
0.270000	10.120000	78.150000	837.000000	0.000000	117.000000	65.000000	-142.000000	-77.000000
0.280000	9.570000	77.860000	837.000000	0.000000	116.000000	64.000000	-55.000000	-29.000000
0.290000	9.570000	77.860000	843.000000	0.000000	116.000000	64.000000	0.000000	0.000000
0.300000	10.270000	78.240000	861.000000	0.000000	115.000000	63.000000	70.000000	38.000000
0.310000	11.690000	78.990000	879.000000	0.000000	115.000000	63.000000	142.000000	75.000000
0.320000	13.610000	80.010000	900.000000	0.000000	114.000000	62.000000	192.000000	102.000000
0.330000	16.160000	81.400000	897.000000	0.000000	115.000000	63.000000	255.000000	139.000000
0.340000	19.300000	83.050000	900.000000	0.000000	115.000000	63.000000	314.000000	165.000000
0.350000	22.820000	84.880000	900.000000	0.000000	116.000000	64.000000	352.000000	183.000000
0.360000	26.340000	86.660000	892.000000	0.000000	117.000000	63.000000	352.000000	178.000000
0.370000	29.540000	88.230000	878.000000	0.000000	119.000000	64.000000	320.000000	157.000000
0.380000	32.530000	89.660000	854.000000	0.000000	119.000000	64.000000	299.000000	143.000000
0.390000	34.740000	90.610000	751.000000	0.000000	122.000000	65.000000	221.000000	95.000000
0.400000	36.200000	91.130000	583.000000	0.000000	123.000000	65.000000	146.000000	52.000000
0.410000	37.170000	91.370000	39.000000	0.000000	125.000000	65.000000	97.000000	24.000000
0.420000	37.170000	91.370000	0.000000	1.000000	127.000000	64.000000	0.000000	0.000000
0.430000	36.730000	91.180000	0.000000	0.000000	129.000000	64.000000	-44.000000	-19.000000
0.440000	35.520000	90.880000	0.000000	0.000000	129.000000	64.000000	-121.000000	-30.000000
0.450000	33.800000	90.440000	0.000000	0.000000	130.000000	63.000000	-172.000000	-44.000000
0.460000	31.720000	89.840000	0.000000	0.000000	129.000000	64.000000	-208.000000	-60.000000
0.470000	29.410000	89.140000	0.000000	0.000000	127.000000	64.000000	-231.000000	-70.000000
0.480000	26.570000	88.090000	0.000000	0.000000	127.000000	64.000000	-284.000000	-105.000000
0.490000	24.250000	87.040000	0.000000	0.000000	125.000000	65.000000	-232.000000	-105.000000
0.500000	22.270000	85.980000	0.000000	0.000000	124.000000	64.000000	-198.000000	-106.000000
0.510000	20.580000	84.950000	0.000000	0.000000	122.000000	63.000000	-169.000000	-103.000000
0.520000	19.330000	83.930000	0.000000	0.000000	121.000000	63.000000	-125.000000	-102.000000
0.530000	18.380000	83.110000	0.000000	0.000000	120.000000	62.000000	-95.000000	-82.000000
0.540000	17.760000	82.480000	0.000000	0.000000	116.000000	60.000000	-62.000000	-63.000000
0.550000	17.500000	81.980000	0.000000	0.000000	115.000000	60.000000	-26.000000	-50.000000
0.560000	17.500000	81.680000	0.000000	0.000000	113.000000	59.000000	0.000000	-30.000000
0.570000	17.820000	81.510000	0.000000	0.000000	110.000000	58.000000	32.000000	-17.000000
0.580000	18.170000	81.440000	0.000000	0.000000	109.000000	57.000000	35.000000	-7.000000
0.590000	18.530000	81.440000	0.000000	0.000000	108.000000	58.000000	36.000000	0.000000
0.600000	18.750000	81.440000	0.000000	0.000000	106.000000	58.000000	22.000000	0.000000
0.610000	18.910000	81.500000	0.000000	0.000000	107.000000	59.000000	16.000000	6.000000
0.620000	19.030000	81.690000	0.000000	0.000000	107.000000	59.000000	12.000000	19.000000
0.630000	19.130000	81.930000	0.000000	0.000000	108.000000	60.000000	10.000000	24.000000
0.640000	19.210000	82.210000	0.000000	0.000000	108.000000	60.000000	8.000000	28.000000
0.650000	19.210000	82.430000	0.000000	0.000000	108.000000	61.000000	0.000000	22.000000
0.660000	19.260000	82.630000	0.000000	0.000000	110.000000	60.000000	5.000000	20.000000
0.670000	19.500000	82.770000	0.000000	0.000000	110.000000	60.000000	24.000000	14.000000
0.680000	19.500000	82.890000	0.000000	0.000000	111.000000	61.000000	0.000000	12.000000
0.690000	19.280000	83.010000	0.000000	0.000000	113.000000	61.000000	-22.000000	12.000000
0.700000	18.980000	83.100000	0.000000	0.000000	113.000000	61.000000	-30.000000	9.000000
0.710000	18.830000	83.180000	0.000000	0.000000	113.000000	61.000000	-15.000000	8.000000
0.720000	18.830000	83.320000	0.000000	0.000000	114.000000	61.000000	0.000000	14.000000
0.730000	18.830000	83.500000	0.000000	0.000000	114.000000	61.000000	0.000000	18.000000
0.740000	18.830000	83.500000	0.000000	0.000000	114.000000	61.000000	0.000000	0.000000
0.750000	18.940000	83.560000	0.000000	0.000000	114.000000	61.000000	11.000000	6.000000
0.760000	18.940000	83.560000	29.000000	1.000000	114.000000	61.000000	0.000000	0.000000
0.770000	18.940000	83.560000	324.000000	0.000000	115.000000	62.000000	0.000000	0.000000
0.780000	18.940000	83.560000	337.000000	0.000000	115.000000	62.000000	0.000000	0.000000
0.790000	18.940000	83.560000	398.000000	0.000000	115.000000	62.000000	0.000000	0.000000
0.800000	18.940000	83.560000	481.000000	0.000000	115.000000	62.000000	0.000000	0.000000
0.810000	18.940000	83.560000	561.000000	0.000000	115.000000	62.000000	0.000000	0.000000
0.820000	18.940000	83.560000	605.000000	0.000000	115.000000	62.000000	0.000000	0.000000
0.830000	19.420000	84.120000	655.000000	0.000000	115.000000	62.000000	48.000000	56.000000
0.840000	19.950000	84.780000	678.000000	0.000000	116.000000	63.000000	53.000000	66.000000
0.850000	20.530000	85.240000	685.000000	0.000000	116.000000	63.000000	58.000000	46.000000
0.860000	20.890000	85.560000	690.000000	0.000000	116.000000	63.000000	36.000000	32.000000
0.870000	21.100000	85.700000	696.000000	0.000000	116.000000	63.000000	21.000000	14.000000
0.880000	21.100000	85.650000	696.000000	0.000000	116.000000	63.000000	0.000000	-5.000000
0.890000	21.100000	85.480000	702.000000	0.000000	116.000000	63.000000	0.000000	-17.000000
0.900000	21.050000	85.110000	696.000000	0.000000	116.000000	63.000000	-5.000000	-37.000000
0.910000	20.920000	84.530000	700.000000	0.000000	116.000000	63.000000	-13.000000	-58.000000
0.920000	20.710000	83.810000	693.000000	0.000000	116.000000	63.000000	-21.000000	-72.000000
0.930000	20.490000	83.420000	682.000000	0.000000	116.000000	63.000000	-22.000000	-39.000000
0.940000	20.490000	83.150000	666.000000	0.000000	116.000000	63.000000	0.000000	-27.000000
0.950000	20.540000	82.970000	664.000000	0.000000	118.000000	62.000000	5.000000	-18.000000
0.960000	20.660000	82.970000	678.000000	0.000000	118.000000	62.000000	12.000000	0.000000
0.970000	20.830000	83.180000	684.000000	0.000000	118.000000	62.000000	17.000000	21.000000
0.980000	21.130000	83.480000	696.000000	0.000000	117.000000	61.000000	30.000000	30.000000
0.990000	21.520000	83.930000	697.000000	0.000000	117.000000	61.000000	39.000000	45.000000
1.000000	21.860000	84.450000	714.000000	0.000000	118.000000	62.000000	34.000000	52.000000
1.010000	22.170000	85.020000	721.000000	0.000000	116.000000	63.000000	31.000000	57.000000
1.020000	22.380000	85.300000	721.000000	0.000000	116.000000	63.000000	21.000000	28.000000
1.030000	22.460000	85.440000	714.000000	0.000000	117.000000	63.000000	8.000000	14.000000
1.040000	22.460000	85.500000	700.000000	0.000000	117.000000	63.000000	0.000000	6.000000
1.050000	22.380000	85.500000	694.000000	0.000000	117.000000	63.000000	-8.000000	0.000000
1.060000	22.260000	85.500000	675.000000	0.000000	117.000000	63.000000	-12.000000	0.000000
1.070000	22.100000	85.430000	644.000000	0.000000	116.000000	64.000000	-16.000000	-7.000000
1.080000	21.970000	85.260000	634.000000	0.000000	116.000000	64.000000	-13.000000	-17.000000
1.090000	21.890000	85.070000	628.000000	0.000000	116.000000	64.000000	-8.000000	-19.000000
1.100000	21.890000	84.860000	622.000000	0.000000	116.000000	64.000000	0.000000	-21.000000
1.110000	21.890000	84.680000	620.000000	0.000000	116.000000	64.000000	0.000000	-18.000000
1.120000	21.890000	84.680000	639.000000	0.000000	116.000000	64.000000	0.000000	0.000000
1.130000	22.150000	84.500000	645.000000	0.000000	117.000000	63.000000	26.000000	-18.000000
1.140000	22.380000	84.620000	644.000000	0.000000	117.000000	63.000000	23.000000	12.000000
1.150000	22.690000	84.790000	673.000000	0.000000	117.000000	63.000000	31.000000	17.000000
1.160000	23.020000	84.990000	702.000000	0.000000	117.000000	63.000000	33.000000	20.000000
1.170000	23.350000	85.220000	703.000000	0.000000	117.000000	63.000000	33.000000	23.000000
1.180000	23.610000	85.550000	710.000000	0.000000	116.000000	64.000000	26.000000	33.000000
1.190000	23.820000	85.960000	711.000000	0.000000	116.000000	64.000000	21.000000	41.000000
1.200000	23.990000	86.310000	711.000000	0.000000	116.000000	64.000000	17.000000	35.000000
1.210000	24.040000	86.520000	699.000000	0.000000	116.000000	64.000000	5.000000	21.000000
1.220000	24.040000	86.630000	697.000000	0.000000	116.000000	64.000000	0.000000	11.000000
1.230000	23.900000	86.630000	675.000000	0.000000	114.000000	64.000000	-14.000000	0.000000
1.240000	23.750000	86.630000	664.000000	0.000000	114.000000	64.000000	-15.000000	0.000000
1.250000	23.580000	86.460000	653.000000	0.000000	114.000000	64.000000	-17.000000	-17.000000
1.260000	23.400000	86.190000	637.000000	0.000000	114.000000	64.000000	-18.000000	-27.000000
1.270000	23.240000	85.880000	641.000000	0.000000	114.000000	64.000000	-16.000000	-31.000000
1.280000	23.240000	85.590000	642.000000	0.000000	114.000000	64.000000	0.000000	-29.000000
1.290000	23.300000	85.380000	642.000000	0.000000	114.000000	64.000000	6.000000	-21.000000
1.300000	23.420000	85.210000	643.000000	0.000000	114.000000	64.000000	12.000000	-17.000000
1.310000	23.590000	85.260000	658.000000	0.000000	116.000000	64.000000	17.000000	5.000000
1.320000	23.860000	85.450000	678.000000	0.000000	116.000000	64.000000	27.000000	19.000000
1.330000	24.190000	85.740000	687.000000	0.000000	116.000000	64.000000	33.000000	29.000000
1.340000	24.540000	86.160000	691.000000	0.000000	116.000000	64.000000	35.000000	42.000000
1.350000	24.850000	86.610000	697.000000	0.000000	116.000000	64.000000	31.000000	45.000000
1.360000	25.130000	87.080000	699.000000	0.000000	115.000000	65.000000	28.000000	47.000000
1.370000	25.300000	87.430000	699.000000	0.000000	115.000000	65.000000	17.000000	35.000000
1.380000	25.370000	87.610000	700.000000	0.000000	115.000000	65.000000	7.000000	18.000000
1.390000	25.370000	87.680000	705.000000	0.000000	115.000000	65.000000	0.000000	7.000000
1.400000	25.370000	87.610000	707.000000	0.000000	115.000000	65.000000	0.000000	-7.000000
1.410000	25.310000	87.500000	707.000000	0.000000	113.000000	65.000000	-6.000000	-11.000000
1.420000	25.240000	87.130000	710.000000	0.000000	113.000000	65.000000	-7.000000	-37.000000
1.430000	25.130000	86.610000	700.000000	0.000000	113.000000	65.000000	-11.000000	-52.000000
1.440000	25.080000	85.940000	693.000000	0.000000	113.000000	65.000000	-5.000000	-67.000000
1.450000	24.870000	85.040000	688.000000	0.000000	115.000000	65.000000	-21.000000	-90.000000
1.460000	24.560000	83.990000	663.000000	0.000000	115.000000	65.000000	-31.000000	-105.000000
1.470000	24.190000	82.900000	643.000000	0.000000	115.000000	65.000000	-37.000000	-109.000000
1.480000	23.800000	81.840000	641.000000	0.000000	115.000000	65.000000	-39.000000	-106.000000
1.490000	23.400000	81.120000	641.000000	0.000000	117.000000	65.000000	-40.000000	-72.000000
1.500000	23.150000	80.610000	650.000000	0.000000	116.000000	64.000000	-25.000000	-51.000000
1.510000	23.060000	80.460000	664.000000	0.000000	114.000000	64.000000	-9.000000	-15.000000
1.520000	23.060000	80.540000	663.000000	0.000000	114.000000	64.000000	0.000000	8.000000
1.530000	23.140000	80.780000	666.000000	0.000000	113.000000	63.000000	8.000000	24.000000
1.540000	23.340000	81.430000	673.000000	0.000000	113.000000	63.000000	20.000000	65.000000
1.550000	23.640000	82.250000	676.000000	0.000000	113.000000	63.000000	30.000000	82.000000
1.560000	24.040000	83.180000	691.000000	0.000000	113.000000	63.000000	40.000000	93.000000
1.570000	24.450000	84.290000	708.000000	0.000000	113.000000	63.000000	41.000000	111.000000
1.580000	24.900000	85.460000	703.000000	0.000000	114.000000	64.000000	45.000000	117.000000
1.590000	25.290000	86.680000	714.000000	0.000000	114.000000	64.000000	39.000000	122.000000
1.600000	25.640000	87.550000	714.000000	0.000000	114.000000	64.000000	35.000000	87.000000
1.610000	25.750000	88.060000	714.000000	0.000000	115.000000	65.000000	11.000000	51.000000
1.620000	25.860000	88.330000	717.000000	0.000000	115.000000	65.000000	11.000000	27.000000
1.630000	25.860000	88.410000	713.000000	0.000000	115.000000	65.000000	0.000000	8.000000
1.640000	25.860000	88.410000	714.000000	0.000000	117.000000	65.000000	0.000000	0.000000
1.650000	25.860000	88.250000	710.000000	0.000000	118.000000	65.000000	0.000000	-16.000000
1.660000	25.780000	88.040000	703.000000	0.000000	116.000000	66.000000	-8.000000	-21.000000
1.670000	25.670000	87.630000	694.000000	0.000000	116.000000	66.000000	-11.000000	-41.000000
1.680000	25.580000	87.090000	694.000000	0.000000	116.000000	66.000000	-9.000000	-54.000000
1.690000	25.520000	86.550000	696.000000	0.000000	115.000000	65.000000	-6.000000	-54.000000
1.700000	25.520000	86.170000	694.000000	0.000000	115.000000	65.000000	0.000000	-38.000000
1.710000	25.520000	85.910000	693.000000	0.000000	115.000000	65.000000	0.000000	-26.000000
1.720000	25.650000	85.910000	690.000000	0.000000	115.000000	65.000000	13.000000	0.000000
1.730000	25.780000	85.910000	696.000000	0.000000	115.000000	65.000000	13.000000	0.000000
1.740000	25.940000	86.060000	697.000000	0.000000	115.000000	65.000000	16.000000	15.000000
1.750000	26.140000	86.460000	727.000000	0.000000	115.000000	65.000000	20.000000	40.000000
1.760000	26.460000	87.010000	733.000000	0.000000	115.000000	65.000000	32.000000	55.000000
1.770000	26.850000	87.650000	722.000000	0.000000	115.000000	65.000000	39.000000	64.000000
1.780000	27.230000	88.500000	733.000000	0.000000	115.000000	65.000000	38.000000	85.000000
1.790000	27.570000	89.440000	731.000000	0.000000	114.000000	64.000000	34.000000	94.000000
1.800000	27.890000	90.430000	722.000000	0.000000	114.000000	64.000000	32.000000	99.000000
1.810000	28.150000	91.380000	721.000000	0.000000	116.000000	64.000000	26.000000	95.000000
1.820000	28.370000	92.290000	721.000000	0.000000	117.000000	63.000000	22.000000	91.000000
1.830000	28.570000	92.820000	733.000000	0.000000	121.000000	63.000000	20.000000	53.000000
1.840000	28.570000	93.120000	727.000000	0.000000	124.000000	63.000000	0.000000	30.000000
1.850000	28.570000	93.230000	733.000000	0.000000	126.000000	62.000000	0.000000	11.000000
1.860000	28.520000	93.230000	731.000000	0.000000	127.000000	62.000000	-5.000000	0.000000
1.870000	28.460000	93.060000	745.000000	0.000000	129.000000	61.000000	-6.000000	-17.000000
1.880000	28.360000	92.780000	760.000000	0.000000	129.000000	61.000000	-10.000000	-28.000000
1.890000	28.240000	92.100000	755.000000	0.000000	131.000000	61.000000	-12.000000	-68.000000
1.900000	27.960000	91.150000	763.000000	0.000000	129.000000	61.000000	-28.000000	-95.000000
1.910000	27.710000	90.080000	755.000000	0.000000	129.000000	61.000000	-25.000000	-107.000000
1.920000	27.490000	88.990000	752.000000	0.000000	127.000000	62.000000	-22.000000	-109.000000
1.930000	27.310000	88.180000	736.000000	0.000000	124.000000	62.000000	-18.000000	-81.000000
1.940000	27.310000	87.560000	697.000000	0.000000	123.000000	62.000000	0.000000	-62.000000
1.950000	27.310000	87.200000	572.000000	0.000000	119.000000	63.000000	0.000000	-36.000000
1.960000	27.480000	87.120000	366.000000	0.000000	116.000000	63.000000	17.000000	-8.000000
1.970000	27.480000	87.120000	0.000000	1.000000	115.000000	63.000000	0.000000	0.000000
1.980000	27.760000	87.470000	0.000000	0.000000	113.000000	63.000000	28.000000	35.000000
1.990000	27.830000	87.880000	0.000000	0.000000	110.000000	63.000000	7.000000	41.000000
2.000000	27.830000	88.420000	0.000000	0.000000	110.000000	63.000000	0.000000	54.000000
2.010000	27.960000	88.930000	0.000000	0.000000	110.000000	63.000000	13.000000	51.000000
2.020000	28.120000	89.420000	0.000000	0.000000	108.000000	63.000000	16.000000	49.000000
2.030000	28.330000	89.750000	0.000000	0.000000	108.000000	63.000000	21.000000	33.000000
2.040000	28.570000	90.000000	0.000000	0.000000	108.000000	63.000000	24.000000	25.000000
2.050000	28.810000	90.120000	0.000000	0.000000	107.000000	62.000000	24.000000	12.000000
2.060000	28.950000	90.230000	0.000000	0.000000	107.000000	62.000000	14.000000	11.000000
2.070000	29.040000	90.310000	0.000000	0.000000	107.000000	62.000000	9.000000	8.000000
2.080000	29.040000	90.460000	0.000000	0.000000	108.000000	61.000000	0.000000	15.000000
2.090000	29.130000	90.650000	0.000000	0.000000	108.000000	61.000000	9.000000	19.000000
2.100000	29.290000	90.930000	0.000000	0.000000	108.000000	61.000000	16.000000	28.000000
2.110000	29.520000	91.210000	0.000000	0.000000	110.000000	60.000000	23.000000	28.000000
2.120000	29.870000	91.470000	0.000000	0.000000	112.000000	60.000000	35.000000	26.000000
2.130000	30.240000	91.680000	0.000000	0.000000	112.000000	60.000000	37.000000	21.000000
2.140000	30.610000	91.810000	0.000000	0.000000	113.000000	60.000000	37.000000	13.000000
2.150000	30.870000	91.870000	0.000000	0.000000	115.000000	60.000000	26.000000	6.000000
2.160000	31.030000	91.870000	0.000000	0.000000	115.000000	60.000000	16.000000	0.000000
2.170000	31.030000	91.870000	309.000000	1.000000	117.000000	59.000000	0.000000	0.000000
2.180000	31.030000	91.870000	439.000000	0.000000	118.000000	59.000000	0.000000	0.000000
2.190000	31.030000	91.870000	512.000000	0.000000	119.000000	60.000000	0.000000	0.000000
2.200000	30.990000	92.180000	592.000000	0.000000	121.000000	59.000000	-4.000000	31.000000
