t	x	y	pressure	penup	azimuth	inclination	v_x	v_y
0.000000	47.980000	77.380000	127.000000	1.000000	131.000000	56.000000	0.000000	0.000000
0.010000	47.600000	76.910000	292.000000	0.000000	131.000000	57.000000	-38.000000	-47.000000
0.020000	47.410000	76.680000	349.000000	0.000000	131.000000	58.000000	-19.000000	-23.000000
0.030000	47.320000	76.510000	420.000000	0.000000	131.000000	58.000000	-9.000000	-17.000000
0.040000	47.450000	76.360000	496.000000	0.000000	129.000000	59.000000	13.000000	-15.000000
0.050000	47.690000	76.360000	563.000000	0.000000	129.000000	59.000000	24.000000	0.000000
0.060000	48.180000	76.630000	631.000000	0.000000	129.000000	59.000000	49.000000	27.000000
0.070000	49.040000	77.050000	669.000000	0.000000	131.000000	60.000000	86.000000	42.000000
0.080000	50.150000	78.060000	721.000000	0.000000	131.000000	60.000000	111.000000	101.000000
0.090000	51.420000	79.540000	753.000000	0.000000	131.000000	60.000000	127.000000	148.000000
0.100000	53.160000	81.340000	762.000000	0.000000	131.000000	60.000000	174.000000	180.000000
0.110000	55.200000	83.230000	762.000000	0.000000	131.000000	60.000000	204.000000	189.000000
0.120000	57.330000	85.120000	763.000000	0.000000	132.000000	60.000000	213.000000	189.000000
0.130000	59.250000	86.610000	728.000000	0.000000	132.000000	60.000000	192.000000	149.000000
0.140000	61.040000	87.830000	711.000000	0.000000	135.000000	60.000000	179.000000	122.000000
0.150000	62.320000	88.570000	700.000000	0.000000	135.000000	60.000000	128.000000	74.000000
0.160000	63.040000	88.920000	702.000000	0.000000	134.000000	61.000000	72.000000	35.000000
0.170000	63.380000	89.010000	690.000000	0.000000	134.000000	61.000000	34.000000	9.000000
0.180000	63.310000	88.920000	717.000000	0.000000	135.000000	62.000000	-7.000000	-9.000000
0.190000	62.870000	88.570000	733.000000	0.000000	133.000000	62.000000	-44.000000	-35.000000
0.200000	62.190000	88.050000	728.000000	0.000000	133.000000	62.000000	-68.000000	-52.000000
0.210000	60.900000	87.060000	730.000000	0.000000	133.000000	62.000000	-129.000000	-99.000000
0.220000	58.880000	85.580000	722.000000	0.000000	133.000000	62.000000	-202.000000	-148.000000
0.230000	56.360000	83.770000	700.000000	0.000000	132.000000	61.000000	-252.000000	-181.000000
0.240000	53.320000	81.630000	673.000000	0.000000	134.000000	61.000000	-304.000000	-214.000000
0.250000	50.110000	79.450000	702.000000	0.000000	134.000000	61.000000	-321.000000	-218.000000
0.260000	46.780000	77.660000	737.000000	0.000000	134.000000	61.000000	-333.000000	-179.000000
0.270000	44.260000	76.140000	790.000000	0.000000	134.000000	61.000000	-252.000000	-152.000000
0.280000	42.960000	75.420000	840.000000	0.000000	132.000000	60.000000	-130.000000	-72.000000
0.290000	42.460000	75.330000	864.000000	0.000000	132.000000	60.000000	-50.000000	-9.000000
0.300000	43.140000	75.650000	903.000000	0.000000	132.000000	59.000000	68.000000	32.000000
0.310000	45.250000	76.560000	900.000000	0.000000	131.000000	58.000000	211.000000	91.000000
0.320000	48.310000	78.070000	896.000000	0.000000	131.000000	58.000000	306.000000	151.000000
0.330000	52.310000	79.980000	872.000000	0.000000	131.000000	58.000000	400.000000	191.000000
0.340000	56.840000	82.070000	846.000000	0.000000	131.000000	58.000000	453.000000	209.000000
0.350000	61.730000	83.920000	779.000000	0.000000	131.000000	58.000000	489.000000	185.000000
0.360000	66.270000	85.610000	670.000000	0.000000	132.000000	59.000000	454.000000	169.000000
0.370000	70.110000	86.960000	510.000000	0.000000	134.000000	60.000000	384.000000	135.000000
0.380000	73.480000	87.870000	247.000000	0.000000	134.000000	61.000000	337.000000	91.000000
0.390000	73.480000	87.870000	0.000000	1.000000	135.000000	62.000000	0.000000	0.000000
0.400000	76.270000	88.840000	0.000000	0.000000	135.000000	63.000000	279.000000	97.000000
0.410000	76.130000	89.020000	0.000000	0.000000	133.000000	63.000000	-14.000000	18.000000
0.420000	74.860000	89.080000	0.000000	0.000000	135.000000	64.000000	-127.000000	6.000000
0.430000	72.900000	89.000000	0.000000	0.000000	135.000000	64.000000	-196.000000	-8.000000
0.440000	70.480000	88.900000	0.000000	0.000000	135.000000	63.000000	-242.000000	-10.000000
0.450000	67.920000	88.550000	0.000000	0.000000	137.000000	62.000000	-256.000000	-35.000000
0.460000	65.520000	88.060000	0.000000	0.000000	138.000000	61.000000	-240.000000	-49.000000
0.470000	63.230000	87.730000	0.000000	0.000000	139.000000	60.000000	-229.000000	-33.000000
0.480000	60.440000	87.180000	0.000000	0.000000	141.000000	59.000000	-279.000000	-55.000000
0.490000	58.270000	86.480000	0.000000	0.000000	143.000000	57.000000	-217.000000	-70.000000
0.500000	56.510000	85.920000	0.000000	0.000000	145.000000	56.000000	-176.000000	-56.000000
0.510000	55.140000	85.410000	0.000000	0.000000	146.000000	55.000000	-137.000000	-51.000000
0.520000	54.080000	84.930000	0.000000	0.000000	145.000000	55.000000	-106.000000	-48.000000
0.530000	53.220000	84.260000	0.000000	0.000000	144.000000	54.000000	-86.000000	-67.000000
0.540000	52.630000	83.620000	0.000000	0.000000	142.000000	54.000000	-59.000000	-64.000000
0.550000	52.160000	83.010000	0.000000	0.000000	140.000000	54.000000	-47.000000	-61.000000
0.560000	51.780000	82.610000	0.000000	0.000000	137.000000	54.000000	-38.000000	-40.000000
0.570000	52.760000	82.180000	0.000000	0.000000	134.000000	55.000000	98.000000	-43.000000
0.580000	53.500000	81.940000	0.000000	0.000000	131.000000	55.000000	74.000000	-24.000000
0.590000	54.080000	81.850000	0.000000	0.000000	127.000000	55.000000	58.000000	-9.000000
0.600000	54.400000	81.970000	0.000000	0.000000	125.000000	55.000000	32.000000	12.000000
0.610000	54.920000	82.110000	0.000000	0.000000	124.000000	55.000000	52.000000	14.000000
0.620000	55.570000	82.270000	0.000000	0.000000	125.000000	56.000000	65.000000	16.000000
0.630000	56.030000	82.400000	0.000000	0.000000	127.000000	57.000000	46.000000	13.000000
0.640000	56.410000	82.490000	0.000000	0.000000	128.000000	58.000000	38.000000	9.000000
0.650000	56.730000	82.490000	0.000000	0.000000	131.000000	60.000000	32.000000	0.000000
0.660000	56.820000	82.380000	0.000000	0.000000	132.000000	60.000000	9.000000	-11.000000
0.670000	56.750000	82.070000	0.000000	0.000000	135.000000	62.000000	-7.000000	-31.000000
0.680000	56.560000	81.620000	0.000000	0.000000	137.000000	62.000000	-19.000000	-45.000000
0.690000	56.350000	81.330000	0.000000	0.000000	135.000000	63.000000	-21.000000	-29.000000
0.700000	56.160000	81.160000	0.000000	0.000000	135.000000	63.000000	-19.000000	-17.000000
0.710000	56.110000	81.070000	0.000000	0.000000	135.000000	63.000000	-5.000000	-9.000000
0.720000	56.110000	81.070000	0.000000	0.000000	135.000000	63.000000	0.000000	0.000000
0.730000	56.160000	81.070000	0.000000	0.000000	135.000000	63.000000	5.000000	0.000000
0.740000	56.160000	81.120000	0.000000	0.000000	133.000000	62.000000	0.000000	5.000000
0.750000	56.250000	81.190000	0.000000	0.000000	133.000000	62.000000	9.000000	7.000000
0.760000	56.320000	81.190000	0.000000	0.000000	133.000000	62.000000	7.000000	0.000000
0.770000	56.400000	81.190000	0.000000	0.000000	132.000000	61.000000	8.000000	0.000000
0.780000	56.400000	81.090000	0.000000	0.000000	132.000000	61.000000	0.000000	-10.000000
0.790000	56.400000	81.170000	0.000000	0.000000	132.000000	61.000000	0.000000	8.000000
0.800000	56.320000	81.350000	0.000000	0.000000	132.000000	61.000000	-8.000000	18.000000
0.810000	56.220000	81.580000	0.000000	0.000000	132.000000	61.000000	-10.000000	23.000000
0.820000	56.150000	81.850000	0.000000	0.000000	131.000000	61.000000	-7.000000	27.000000
0.830000	56.150000	81.850000	179.000000	1.000000	131.000000	61.000000	0.000000	0.000000
0.840000	56.150000	82.220000	279.000000	0.000000	132.000000	60.000000	0.000000	37.000000
0.850000	56.220000	82.600000	337.000000	0.000000	131.000000	60.000000	7.000000	38.000000
0.860000	56.450000	83.190000	422.000000	0.000000	132.000000	59.000000	23.000000	59.000000
0.870000	56.780000	83.610000	474.000000	0.000000	132.000000	59.000000	33.000000	42.000000
0.880000	57.250000	84.050000	516.000000	0.000000	131.000000	58.000000	47.000000	44.000000
0.890000	57.660000	84.510000	561.000000	0.000000	132.000000	58.000000	41.000000	46.000000
0.900000	58.030000	84.780000	567.000000	0.000000	132.000000	58.000000	37.000000	27.000000
0.910000	58.300000	84.840000	563.000000	0.000000	132.000000	58.000000	27.000000	6.000000
0.920000	58.440000	84.760000	566.000000	0.000000	132.000000	58.000000	14.000000	-8.000000
0.930000	58.500000	84.610000	572.000000	0.000000	134.000000	58.000000	6.000000	-15.000000
0.940000	58.500000	84.290000	572.000000	0.000000	134.000000	58.000000	0.000000	-32.000000
0.950000	58.260000	83.850000	567.000000	0.000000	134.000000	58.000000	-24.000000	-44.000000
0.960000	57.960000	83.430000	569.000000	0.000000	134.000000	58.000000	-30.000000	-42.000000
0.970000	57.800000	83.080000	567.000000	0.000000	134.000000	58.000000	-16.000000	-35.000000
0.980000	57.700000	82.790000	561.000000	0.000000	134.000000	58.000000	-10.000000	-29.000000
0.990000	57.700000	82.650000	563.000000	0.000000	134.000000	58.000000	0.000000	-14.000000
1.000000	57.790000	82.590000	570.000000	0.000000	134.000000	58.000000	9.000000	-6.000000
1.010000	57.980000	82.590000	578.000000	0.000000	134.000000	58.000000	19.000000	0.000000
1.020000	58.270000	82.790000	588.000000	0.000000	134.000000	58.000000	29.000000	20.000000
1.030000	58.680000	83.170000	595.000000	0.000000	134.000000	58.000000	41.000000	38.000000
1.040000	59.170000	83.670000	617.000000	0.000000	134.000000	58.000000	49.000000	50.000000
1.050000	59.610000	84.220000	611.000000	0.000000	135.000000	59.000000	44.000000	55.000000
1.060000	59.920000	84.730000	620.000000	0.000000	135.000000	59.000000	31.000000	51.000000
1.070000	60.150000	85.030000	613.000000	0.000000	136.000000	60.000000	23.000000	30.000000
1.080000	60.150000	85.200000	597.000000	0.000000	135.000000	60.000000	0.000000	17.000000
1.090000	60.100000	85.150000	594.000000	0.000000	136.000000	61.000000	-5.000000	-5.000000
1.100000	59.940000	85.090000	584.000000	0.000000	136.000000	61.000000	-16.000000	-6.000000
1.110000	59.700000	84.890000	583.000000	0.000000	136.000000	61.000000	-24.000000	-20.000000
1.120000	59.470000	84.610000	581.000000	0.000000	136.000000	61.000000	-23.000000	-28.000000
1.130000	59.400000	84.450000	581.000000	0.000000	136.000000	61.000000	-7.000000	-16.000000
1.140000	59.400000	84.330000	586.000000	0.000000	136.000000	61.000000	0.000000	-12.000000
1.150000	59.550000	84.240000	594.000000	0.000000	136.000000	61.000000	15.000000	-9.000000
1.160000	59.730000	84.240000	616.000000	0.000000	136.000000	61.000000	18.000000	0.000000
1.170000	60.010000	84.240000	622.000000	0.000000	136.000000	61.000000	28.000000	0.000000
1.180000	60.360000	84.330000	631.000000	0.000000	136.000000	61.000000	35.000000	9.000000
1.190000	60.760000	84.510000	642.000000	0.000000	136.000000	61.000000	40.000000	18.000000
1.200000	61.150000	84.740000	644.000000	0.000000	136.000000	61.000000	39.000000	23.000000
1.210000	61.370000	84.940000	636.000000	0.000000	136.000000	61.000000	22.000000	20.000000
1.220000	61.500000	85.070000	620.000000	0.000000	136.000000	61.000000	13.000000	13.000000
1.230000	61.500000	85.130000	589.000000	0.000000	136.000000	61.000000	0.000000	6.000000
1.240000	61.340000	85.130000	543.000000	0.000000	134.000000	61.000000	-16.000000	0.000000
1.250000	61.090000	85.130000	510.000000	0.000000	134.000000	61.000000	-25.000000	0.000000
1.260000	60.840000	84.980000	498.000000	0.000000	134.000000	61.000000	-25.000000	-15.000000
1.270000	60.660000	84.830000	495.000000	0.000000	134.000000	61.000000	-18.000000	-15.000000
1.280000	60.660000	84.680000	504.000000	0.000000	134.000000	61.000000	0.000000	-15.000000
1.290000	60.660000	84.560000	521.000000	0.000000	132.000000	60.000000	0.000000	-12.000000
1.300000	60.810000	84.450000	556.000000	0.000000	132.000000	60.000000	15.000000	-11.000000
1.310000	61.010000	84.450000	591.000000	0.000000	132.000000	60.000000	20.000000	0.000000
1.320000	61.360000	84.540000	611.000000	0.000000	132.000000	60.000000	35.000000	9.000000
1.330000	61.810000	84.720000	641.000000	0.000000	132.000000	60.000000	45.000000	18.000000
1.340000	62.260000	85.030000	662.000000	0.000000	132.000000	60.000000	45.000000	31.000000
1.350000	62.700000	85.420000	665.000000	0.000000	132.000000	60.000000	44.000000	39.000000
1.360000	63.110000	85.790000	664.000000	0.000000	132.000000	60.000000	41.000000	37.000000
1.370000	63.330000	86.130000	667.000000	0.000000	129.000000	60.000000	22.000000	34.000000
1.380000	63.460000	86.300000	662.000000	0.000000	129.000000	60.000000	13.000000	17.000000
1.390000	63.460000	86.370000	678.000000	0.000000	129.000000	60.000000	0.000000	7.000000
1.400000	63.390000	86.290000	694.000000	0.000000	128.000000	61.000000	-7.000000	-8.000000
1.410000	63.290000	86.010000	702.000000	0.000000	126.000000	60.000000	-10.000000	-28.000000
1.420000	62.990000	85.600000	717.000000	0.000000	126.000000	60.000000	-30.000000	-41.000000
1.430000	62.700000	84.890000	731.000000	0.000000	126.000000	60.000000	-29.000000	-71.000000
1.440000	62.430000	84.020000	748.000000	0.000000	126.000000	60.000000	-27.000000	-87.000000
1.450000	62.110000	83.050000	761.000000	0.000000	126.000000	60.000000	-32.000000	-97.000000
1.460000	61.750000	82.050000	758.000000	0.000000	128.000000	59.000000	-36.000000	-100.000000
1.470000	61.460000	81.230000	751.000000	0.000000	127.000000	59.000000	-29.000000	-82.000000
1.480000	61.210000	80.530000	748.000000	0.000000	127.000000	59.000000	-25.000000	-70.000000
1.490000	61.010000	80.090000	736.000000	0.000000	128.000000	58.000000	-20.000000	-44.000000
1.500000	61.010000	79.980000	731.000000	0.000000	128.000000	58.000000	0.000000	-11.000000
1.510000	61.100000	80.090000	740.000000	0.000000	127.000000	57.000000	9.000000	11.000000
1.520000	61.180000	80.300000	745.000000	0.000000	126.000000	58.000000	8.000000	21.000000
1.530000	61.320000	80.870000	740.000000	0.000000	126.000000	58.000000	14.000000	57.000000
1.540000	61.620000	81.670000	752.000000	0.000000	126.000000	58.000000	30.000000	80.000000
1.550000	61.990000	82.500000	754.000000	0.000000	126.000000	58.000000	37.000000	83.000000
1.560000	62.420000	83.510000	761.000000	0.000000	127.000000	59.000000	43.000000	101.000000
1.570000	62.940000	84.640000	750.000000	0.000000	127.000000	59.000000	52.000000	113.000000
1.580000	63.510000	85.680000	751.000000	0.000000	127.000000	59.000000	57.000000	104.000000
1.590000	63.890000	86.480000	755.000000	0.000000	127.000000	59.000000	38.000000	80.000000
1.600000	64.080000	87.120000	750.000000	0.000000	126.000000	60.000000	19.000000	64.000000
1.610000	64.150000	87.370000	763.000000	0.000000	126.000000	60.000000	7.000000	25.000000
1.620000	64.150000	87.430000	755.000000	0.000000	126.000000	60.000000	0.000000	6.000000
1.630000	64.150000	87.370000	746.000000	0.000000	125.000000	60.000000	0.000000	-6.000000
1.640000	64.010000	87.170000	731.000000	0.000000	125.000000	60.000000	-14.000000	-20.000000
1.650000	63.870000	86.820000	722.000000	0.000000	125.000000	60.000000	-14.000000	-35.000000
1.660000	63.810000	86.370000	697.000000	0.000000	125.000000	60.000000	-6.000000	-45.000000
1.670000	63.810000	85.880000	684.000000	0.000000	125.000000	60.000000	0.000000	-49.000000
1.680000	63.810000	85.430000	687.000000	0.000000	125.000000	60.000000	0.000000	-45.000000
1.690000	63.950000	85.100000	696.000000	0.000000	125.000000	60.000000	14.000000	-33.000000
1.700000	64.090000	84.830000	710.000000	0.000000	126.000000	60.000000	14.000000	-27.000000
1.710000	64.280000	84.830000	727.000000	0.000000	126.000000	60.000000	19.000000	0.000000
1.720000	64.510000	85.040000	745.000000	0.000000	126.000000	60.000000	23.000000	21.000000
1.730000	64.750000	85.370000	753.000000	0.000000	128.000000	59.000000	24.000000	33.000000
1.740000	65.110000	85.960000	773.000000	0.000000	129.000000	60.000000	36.000000	59.000000
1.750000	65.550000	86.630000	771.000000	0.000000	128.000000	61.000000	44.000000	67.000000
1.760000	65.890000	87.350000	771.000000	0.000000	128.000000	61.000000	34.000000	72.000000
1.770000	66.150000	88.060000	768.000000	0.000000	128.000000	61.000000	26.000000	71.000000
1.780000	66.350000	88.760000	757.000000	0.000000	128.000000	61.000000	20.000000	70.000000
1.790000	66.550000	89.460000	757.000000	0.000000	128.000000	61.000000	20.000000	70.000000
1.800000	66.700000	90.180000	767.000000	0.000000	131.000000	61.000000	15.000000	72.000000
1.810000	66.820000	90.610000	774.000000	0.000000	132.000000	60.000000	12.000000	43.000000
1.820000	66.940000	90.980000	794.000000	0.000000	134.000000	60.000000	12.000000	37.000000
1.830000	67.010000	91.090000	790.000000	0.000000	136.000000	58.000000	7.000000	11.000000
1.840000	67.010000	91.090000	791.000000	0.000000	138.000000	58.000000	0.000000	0.000000
1.850000	66.910000	90.960000	790.000000	0.000000	140.000000	56.000000	-10.000000	-13.000000
1.860000	66.720000	90.460000	787.000000	0.000000	140.000000	56.000000	-19.000000	-50.000000
1.870000	66.460000	89.700000	794.000000	0.000000	141.000000	56.000000	-26.000000	-76.000000
1.880000	66.150000	88.720000	788.000000	0.000000	140.000000	56.000000	-31.000000	-98.000000
1.890000	66.000000	87.710000	754.000000	0.000000	139.000000	57.000000	-15.000000	-101.000000
1.900000	65.870000	86.970000	717.000000	0.000000	138.000000	58.000000	-13.000000	-74.000000
1.910000	65.740000	86.410000	566.000000	0.000000	135.000000	59.000000	-13.000000	-56.000000
1.920000	65.860000	86.210000	312.000000	0.000000	132.000000	59.000000	12.000000	-20.000000
1.930000	65.860000	86.210000	0.000000	1.000000	131.000000	60.000000	0.000000	0.000000
1.940000	66.200000	86.340000	0.000000	0.000000	129.000000	60.000000	34.000000	13.000000
1.950000	66.280000	86.670000	0.000000	0.000000	128.000000	61.000000	8.000000	33.000000
1.960000	66.280000	87.000000	0.000000	0.000000	126.000000	61.000000	0.000000	33.000000
1.970000	66.390000	87.340000	0.000000	0.000000	127.000000	62.000000	11.000000	34.000000
1.980000	66.540000	87.500000	0.000000	0.000000	129.000000	61.000000	15.000000	16.000000
1.990000	66.770000	87.620000	0.000000	0.000000	129.000000	61.000000	23.000000	12.000000
2.000000	67.040000	87.540000	0.000000	0.000000	130.000000	62.000000	27.000000	-8.000000
2.010000	67.320000	87.340000	0.000000	0.000000	132.000000	61.000000	28.000000	-20.000000
2.020000	67.320000	87.340000	51.000000	1.000000	133.000000	62.000000	0.000000	0.000000
2.030000	67.440000	86.960000	559.000000	0.000000	133.000000	62.000000	12.000000	-38.000000
2.040000	67.260000	86.960000	554.000000	0.000000	132.000000	63.000000	-18.000000	0.000000
2.050000	67.110000	87.020000	614.000000	0.000000	132.000000	63.000000	-15.000000	6.000000
2.060000	67.010000	87.070000	667.000000	0.000000	132.000000	63.000000	-10.000000	5.000000
2.070000	66.930000	87.120000	705.000000	0.000000	129.000000	63.000000	-8.000000	5.000000
2.080000	66.860000	87.120000	691.000000	0.000000	129.000000	63.000000	-7.000000	0.000000
2.090000	66.860000	87.120000	638.000000	0.000000	129.000000	63.000000	0.000000	0.000000
2.100000	66.930000	87.120000	488.000000	0.000000	129.000000	63.000000	7.000000	0.000000
2.110000	66.990000	87.210000	101.000000	0.000000	127.000000	62.000000	6.000000	9.000000
2.120000	66.990000	87.210000	0.000000	1.000000	129.000000	63.000000	0.000000	0.000000
2.130000	67.410000	87.570000	0.000000	0.000000	129.000000	63.000000	42.000000	36.000000
2.140000	67.620000	87.870000	0.000000	0.000000	129.000000	63.000000	21.000000	30.000000
2.150000	67.840000	88.200000	0.000000	0.000000	130.000000	63.000000	22.000000	33.000000
2.160000	68.170000	88.620000	0.000000	0.000000	130.000000	63.000000	33.000000	42.000000
2.170000	68.580000	89.040000	0.000000	0.000000	130.000000	63.000000	41.000000	42.000000
2.180000	69.150000	89.490000	0.000000	0.000000	132.000000	63.000000	57.000000	45.000000
2.190000	69.630000	89.970000	0.000000	0.000000	130.000000	62.000000	48.000000	48.000000
2.200000	70.050000	90.320000	0.000000	0.000000	132.000000	61.000000	42.000000	35.000000
