t	x	y	pressure	penup	azimuth	inclination	v_x	v_y
0.000000	87.050000	80.070000	41.000000	1.000000	133.000000	52.000000	0.000000	0.000000
0.010000	87.370000	79.880000	58.000000	0.000000	133.000000	52.000000	32.000000	-19.000000
0.020000	87.160000	79.880000	61.000000	0.000000	133.000000	52.000000	-21.000000	0.000000
0.030000	87.240000	79.880000	78.000000	0.000000	133.000000	52.000000	8.000000	0.000000
0.040000	87.360000	79.960000	93.000000	0.000000	134.000000	51.000000	12.000000	8.000000
0.050000	87.540000	80.050000	108.000000	0.000000	134.000000	51.000000	18.000000	9.000000
0.060000	87.800000	80.240000	98.000000	0.000000	135.000000	51.000000	26.000000	19.000000
0.070000	88.130000	80.490000	132.000000	0.000000	135.000000	51.000000	33.000000	25.000000
0.080000	88.500000	80.770000	142.000000	0.000000	135.000000	51.000000	37.000000	28.000000
0.090000	88.890000	80.970000	143.000000	0.000000	136.000000	50.000000	39.000000	20.000000
0.100000	89.320000	81.480000	182.000000	0.000000	136.000000	50.000000	43.000000	51.000000
0.110000	89.780000	82.210000	186.000000	0.000000	135.000000	50.000000	46.000000	73.000000
0.120000	90.260000	82.890000	203.000000	0.000000	135.000000	50.000000	48.000000	68.000000
0.130000	90.770000	83.690000	222.000000	0.000000	135.000000	50.000000	51.000000	80.000000
0.140000	91.310000	84.580000	212.000000	0.000000	134.000000	49.000000	54.000000	89.000000
0.150000	91.810000	85.570000	218.000000	0.000000	134.000000	49.000000	50.000000	99.000000
0.160000	92.280000	86.290000	237.000000	0.000000	134.000000	49.000000	47.000000	72.000000
0.170000	92.620000	86.840000	257.000000	0.000000	134.000000	49.000000	34.000000	55.000000
0.180000	92.810000	87.130000	280.000000	0.000000	133.000000	48.000000	19.000000	29.000000
0.190000	92.900000	87.250000	289.000000	0.000000	133.000000	48.000000	9.000000	12.000000
0.200000	92.900000	87.250000	307.000000	0.000000	134.000000	48.000000	0.000000	0.000000
0.210000	92.900000	87.250000	309.000000	0.000000	134.000000	48.000000	0.000000	0.000000
0.220000	92.900000	87.250000	314.000000	0.000000	135.000000	47.000000	0.000000	0.000000
0.230000	92.600000	86.730000	335.000000	0.000000	135.000000	47.000000	-30.000000	-52.000000
0.240000	92.330000	86.210000	349.000000	0.000000	135.000000	47.000000	-27.000000	-52.000000
0.250000	92.020000	85.390000	361.000000	0.000000	136.000000	47.000000	-31.000000	-82.000000
0.260000	91.730000	84.440000	392.000000	0.000000	135.000000	47.000000	-29.000000	-95.000000
0.270000	91.450000	83.410000	417.000000	0.000000	135.000000	47.000000	-28.000000	-103.000000
0.280000	91.180000	82.480000	422.000000	0.000000	135.000000	47.000000	-27.000000	-93.000000
0.290000	90.930000	81.710000	427.000000	0.000000	135.000000	47.000000	-25.000000	-77.000000
0.300000	90.850000	81.040000	417.000000	0.000000	135.000000	47.000000	-8.000000	-67.000000
0.310000	90.850000	80.530000	396.000000	0.000000	135.000000	47.000000	0.000000	-51.000000
0.320000	90.850000	80.200000	376.000000	0.000000	135.000000	49.000000	0.000000	-33.000000
0.330000	90.850000	79.980000	369.000000	0.000000	135.000000	49.000000	0.000000	-22.000000
0.340000	90.730000	79.800000	297.000000	0.000000	135.000000	49.000000	-12.000000	-18.000000
0.350000	90.590000	79.610000	212.000000	0.000000	135.000000	49.000000	-14.000000	-19.000000
0.360000	90.480000	79.390000	41.000000	0.000000	135.000000	49.000000	-11.000000	-22.000000
0.370000	90.480000	79.390000	0.000000	1.000000	134.000000	48.000000	0.000000	0.000000
0.380000	90.480000	79.320000	0.000000	0.000000	133.000000	48.000000	0.000000	-7.000000
0.390000	90.550000	79.610000	0.000000	0.000000	133.000000	48.000000	7.000000	29.000000
0.400000	90.690000	80.000000	0.000000	0.000000	132.000000	49.000000	14.000000	39.000000
0.410000	90.940000	80.460000	0.000000	0.000000	133.000000	50.000000	25.000000	46.000000
0.420000	91.260000	80.890000	0.000000	0.000000	132.000000	50.000000	32.000000	43.000000
0.430000	91.610000	81.310000	0.000000	0.000000	132.000000	50.000000	35.000000	42.000000
0.440000	91.960000	81.680000	0.000000	0.000000	130.000000	51.000000	35.000000	37.000000
0.450000	92.320000	81.990000	0.000000	0.000000	130.000000	51.000000	36.000000	31.000000
0.460000	92.690000	82.260000	0.000000	0.000000	130.000000	51.000000	37.000000	27.000000
0.470000	93.080000	82.510000	0.000000	0.000000	130.000000	51.000000	39.000000	25.000000
0.480000	93.460000	82.730000	0.000000	0.000000	130.000000	51.000000	38.000000	22.000000
0.490000	93.870000	82.910000	0.000000	0.000000	129.000000	50.000000	41.000000	18.000000
0.500000	94.400000	83.020000	0.000000	0.000000	130.000000	50.000000	53.000000	11.000000
0.510000	95.010000	83.100000	0.000000	0.000000	130.000000	50.000000	61.000000	8.000000
0.520000	94.670000	83.150000	0.000000	0.000000	129.000000	49.000000	-34.000000	5.000000
0.530000	94.670000	83.150000	0.000000	0.000000	129.000000	49.000000	0.000000	0.000000
0.540000	94.900000	83.220000	0.000000	0.000000	129.000000	49.000000	23.000000	7.000000
0.550000	94.950000	83.220000	0.000000	0.000000	129.000000	49.000000	5.000000	0.000000
0.560000	94.950000	83.220000	0.000000	0.000000	131.000000	48.000000	0.000000	0.000000
0.570000	94.950000	83.220000	0.000000	0.000000	131.000000	48.000000	0.000000	0.000000
0.580000	94.870000	83.220000	0.000000	0.000000	131.000000	48.000000	-8.000000	0.000000
0.590000	94.870000	83.280000	0.000000	0.000000	131.000000	48.000000	0.000000	6.000000
0.600000	94.870000	83.280000	0.000000	0.000000	131.000000	48.000000	0.000000	0.000000
0.610000	94.870000	83.280000	0.000000	0.000000	129.000000	49.000000	0.000000	0.000000
0.620000	94.870000	83.280000	0.000000	0.000000	129.000000	49.000000	0.000000	0.000000
0.630000	94.870000	83.230000	0.000000	0.000000	130.000000	50.000000	0.000000	-5.000000
0.640000	94.870000	83.170000	0.000000	0.000000	130.000000	50.000000	0.000000	-6.000000
0.650000	94.790000	83.080000	0.000000	0.000000	130.000000	50.000000	-8.000000	-9.000000
0.660000	94.620000	82.980000	0.000000	0.000000	130.000000	50.000000	-17.000000	-10.000000
0.670000	94.450000	82.870000	0.000000	0.000000	130.000000	50.000000	-17.000000	-11.000000
0.680000	94.280000	82.760000	0.000000	0.000000	130.000000	50.000000	-17.000000	-11.000000
0.690000	94.140000	82.650000	0.000000	0.000000	130.000000	50.000000	-14.000000	-11.000000
0.700000	94.020000	82.550000	0.000000	0.000000	132.000000	50.000000	-12.000000	-10.000000
0.710000	93.920000	82.490000	0.000000	0.000000	132.000000	50.000000	-10.000000	-6.000000
0.720000	93.830000	82.490000	0.000000	0.000000	132.000000	50.000000	-9.000000	0.000000
0.730000	93.700000	82.440000	0.000000	0.000000	132.000000	50.000000	-13.000000	-5.000000
0.740000	93.530000	82.440000	0.000000	0.000000	133.000000	50.000000	-17.000000	0.000000
0.750000	93.360000	82.330000	0.000000	0.000000	132.000000	50.000000	-17.000000	-11.000000
0.760000	93.110000	82.210000	0.000000	0.000000	132.000000	50.000000	-25.000000	-12.000000
0.770000	92.800000	82.040000	0.000000	0.000000	133.000000	51.000000	-31.000000	-17.000000
0.780000	92.670000	81.970000	0.000000	0.000000	133.000000	51.000000	-13.000000	-7.000000
0.790000	92.590000	81.970000	0.000000	0.000000	133.000000	51.000000	-8.000000	0.000000
0.800000	92.590000	82.020000	0.000000	0.000000	133.000000	51.000000	0.000000	5.000000
0.810000	92.590000	82.130000	0.000000	0.000000	133.000000	51.000000	0.000000	11.000000
0.820000	92.740000	82.280000	0.000000	0.000000	134.000000	50.000000	15.000000	15.000000
0.830000	93.020000	82.510000	0.000000	0.000000	134.000000	50.000000	28.000000	23.000000
0.840000	93.020000	82.510000	24.000000	1.000000	134.000000	50.000000	0.000000	0.000000
0.850000	93.760000	83.090000	46.000000	0.000000	135.000000	50.000000	74.000000	58.000000
0.860000	94.060000	83.250000	61.000000	0.000000	135.000000	50.000000	30.000000	16.000000
0.870000	94.300000	83.370000	47.000000	0.000000	135.000000	50.000000	24.000000	12.000000
0.880000	94.470000	83.430000	63.000000	0.000000	137.000000	50.000000	17.000000	6.000000
0.890000	94.560000	83.430000	106.000000	0.000000	137.000000	50.000000	9.000000	0.000000
0.900000	94.560000	83.310000	132.000000	0.000000	137.000000	50.000000	0.000000	-12.000000
0.910000	94.560000	83.030000	184.000000	0.000000	138.000000	49.000000	0.000000	-28.000000
0.920000	94.490000	82.650000	223.000000	0.000000	138.000000	49.000000	-7.000000	-38.000000
0.930000	94.320000	82.130000	242.000000	0.000000	138.000000	49.000000	-17.000000	-52.000000
0.940000	94.110000	81.610000	275.000000	0.000000	138.000000	49.000000	-21.000000	-52.000000
0.950000	93.950000	81.200000	279.000000	0.000000	138.000000	49.000000	-16.000000	-41.000000
0.960000	93.880000	80.860000	281.000000	0.000000	138.000000	49.000000	-7.000000	-34.000000
0.970000	93.950000	80.710000	284.000000	0.000000	138.000000	49.000000	7.000000	-15.000000
0.980000	94.100000	80.710000	291.000000	0.000000	138.000000	49.000000	15.000000	0.000000
0.990000	94.320000	80.810000	296.000000	0.000000	138.000000	49.000000	22.000000	10.000000
1.000000	94.700000	81.120000	291.000000	0.000000	138.000000	49.000000	38.000000	31.000000
1.010000	95.180000	81.550000	279.000000	0.000000	138.000000	49.000000	48.000000	43.000000
1.020000	95.710000	82.050000	282.000000	0.000000	138.000000	49.000000	53.000000	50.000000
1.030000	96.130000	82.500000	267.000000	0.000000	140.000000	50.000000	42.000000	45.000000
1.040000	96.470000	82.960000	242.000000	0.000000	140.000000	50.000000	34.000000	46.000000
1.050000	96.780000	83.410000	256.000000	0.000000	140.000000	50.000000	31.000000	45.000000
1.060000	96.990000	83.620000	254.000000	0.000000	140.000000	50.000000	21.000000	21.000000
1.070000	97.140000	83.620000	260.000000	0.000000	140.000000	50.000000	15.000000	0.000000
1.080000	97.140000	83.570000	287.000000	0.000000	140.000000	50.000000	0.000000	-5.000000
1.090000	97.140000	83.360000	277.000000	0.000000	140.000000	50.000000	0.000000	-21.000000
1.100000	97.050000	83.070000	292.000000	0.000000	140.000000	50.000000	-9.000000	-29.000000
1.110000	97.050000	82.770000	292.000000	0.000000	140.000000	50.000000	0.000000	-30.000000
1.120000	97.050000	82.590000	276.000000	0.000000	140.000000	50.000000	0.000000	-18.000000
1.130000	97.100000	82.490000	279.000000	0.000000	141.000000	50.000000	5.000000	-10.000000
1.140000	97.280000	82.440000	242.000000	0.000000	140.000000	51.000000	18.000000	-5.000000
1.150000	97.610000	82.510000	193.000000	0.000000	140.000000	51.000000	33.000000	7.000000
1.160000	98.030000	82.670000	55.000000	0.000000	140.000000	51.000000	42.000000	16.000000
1.170000	98.030000	82.670000	0.000000	1.000000	140.000000	51.000000	0.000000	0.000000
1.180000	98.870000	83.020000	0.000000	0.000000	138.000000	51.000000	84.000000	35.000000
1.190000	99.120000	83.170000	0.000000	0.000000	138.000000	51.000000	25.000000	15.000000
1.200000	99.280000	83.330000	0.000000	0.000000	138.000000	51.000000	16.000000	16.000000
1.210000	99.390000	83.480000	0.000000	0.000000	137.000000	52.000000	11.000000	15.000000
1.220000	99.520000	83.690000	0.000000	0.000000	137.000000	52.000000	13.000000	21.000000
1.230000	99.720000	83.940000	0.000000	0.000000	137.000000	52.000000	20.000000	25.000000
1.240000	99.990000	84.200000	0.000000	0.000000	136.000000	52.000000	27.000000	26.000000
1.250000	100.330000	84.440000	0.000000	0.000000	136.000000	52.000000	34.000000	24.000000
1.260000	100.660000	84.640000	0.000000	0.000000	136.000000	52.000000	33.000000	20.000000
1.270000	100.880000	84.760000	0.000000	0.000000	136.000000	52.000000	22.000000	12.000000
1.280000	100.880000	84.760000	0.000000	0.000000	136.000000	52.000000	0.000000	0.000000
1.290000	100.880000	84.760000	0.000000	0.000000	137.000000	53.000000	0.000000	0.000000
1.300000	101.030000	84.490000	0.000000	0.000000	137.000000	53.000000	15.000000	-27.000000
1.310000	101.030000	84.490000	34.000000	1.000000	136.000000	52.000000	0.000000	0.000000
1.320000	101.030000	84.490000	131.000000	0.000000	135.000000	53.000000	0.000000	0.000000
1.330000	100.740000	84.370000	141.000000	0.000000	134.000000	52.000000	-29.000000	-12.000000
1.340000	100.640000	84.320000	193.000000	0.000000	134.000000	52.000000	-10.000000	-5.000000
1.350000	100.530000	84.320000	222.000000	0.000000	133.000000	52.000000	-11.000000	0.000000
1.360000	100.350000	84.180000	253.000000	0.000000	133.000000	52.000000	-18.000000	-14.000000
1.370000	100.120000	83.990000	250.000000	0.000000	132.000000	51.000000	-23.000000	-19.000000
1.380000	99.850000	83.760000	269.000000	0.000000	130.000000	51.000000	-27.000000	-23.000000
1.390000	99.590000	83.490000	277.000000	0.000000	130.000000	51.000000	-26.000000	-27.000000
1.400000	99.330000	83.260000	275.000000	0.000000	132.000000	50.000000	-26.000000	-23.000000
1.410000	99.150000	83.060000	277.000000	0.000000	132.000000	50.000000	-18.000000	-20.000000
1.420000	99.150000	82.940000	247.000000	0.000000	134.000000	50.000000	0.000000	-12.000000
1.430000	99.220000	82.890000	253.000000	0.000000	135.000000	51.000000	7.000000	-5.000000
1.440000	99.350000	82.890000	253.000000	0.000000	135.000000	51.000000	13.000000	0.000000
1.450000	99.520000	82.890000	254.000000	0.000000	136.000000	50.000000	17.000000	0.000000
1.460000	99.790000	83.000000	254.000000	0.000000	136.000000	50.000000	27.000000	11.000000
1.470000	100.100000	83.100000	207.000000	0.000000	136.000000	50.000000	31.000000	10.000000
1.480000	100.360000	83.220000	215.000000	0.000000	135.000000	51.000000	26.000000	12.000000
1.490000	100.580000	83.380000	171.000000	0.000000	135.000000	51.000000	22.000000	16.000000
1.500000	100.770000	83.580000	160.000000	0.000000	134.000000	50.000000	19.000000	20.000000
1.510000	100.990000	83.820000	148.000000	0.000000	133.000000	51.000000	22.000000	24.000000
1.520000	101.070000	84.020000	153.000000	0.000000	133.000000	51.000000	8.000000	20.000000
1.530000	101.070000	84.150000	184.000000	0.000000	130.000000	51.000000	0.000000	13.000000
1.540000	100.990000	84.200000	188.000000	0.000000	130.000000	51.000000	-8.000000	5.000000
1.550000	100.910000	84.200000	203.000000	0.000000	130.000000	51.000000	-8.000000	0.000000
1.560000	100.810000	84.120000	220.000000	0.000000	130.000000	51.000000	-10.000000	-8.000000
1.570000	100.750000	84.040000	222.000000	0.000000	130.000000	51.000000	-6.000000	-8.000000
1.580000	100.750000	83.960000	213.000000	0.000000	130.000000	51.000000	0.000000	-8.000000
1.590000	100.750000	83.960000	208.000000	0.000000	130.000000	51.000000	0.000000	0.000000
1.600000	100.880000	83.960000	213.000000	0.000000	130.000000	51.000000	13.000000	0.000000
1.610000	101.050000	84.040000	217.000000	0.000000	130.000000	51.000000	17.000000	8.000000
1.620000	101.280000	84.170000	215.000000	0.000000	130.000000	51.000000	23.000000	13.000000
1.630000	101.480000	84.320000	212.000000	0.000000	130.000000	51.000000	20.000000	15.000000
1.640000	101.610000	84.440000	205.000000	0.000000	130.000000	51.000000	13.000000	12.000000
1.650000	101.700000	84.530000	205.000000	0.000000	130.000000	51.000000	9.000000	9.000000
1.660000	101.700000	84.530000	202.000000	0.000000	130.000000	51.000000	0.000000	0.000000
1.670000	101.700000	84.530000	171.000000	0.000000	130.000000	51.000000	0.000000	0.000000
1.680000	101.700000	84.530000	170.000000	0.000000	130.000000	51.000000	0.000000	0.000000
1.690000	101.700000	84.480000	180.000000	0.000000	130.000000	51.000000	0.000000	-5.000000
1.700000	101.640000	84.360000	178.000000	0.000000	130.000000	51.000000	-6.000000	-12.000000
1.710000	101.640000	84.190000	193.000000	0.000000	130.000000	51.000000	0.000000	-17.000000
1.720000	101.540000	83.950000	210.000000	0.000000	130.000000	51.000000	-10.000000	-24.000000
1.730000	101.470000	83.650000	214.000000	0.000000	130.000000	51.000000	-7.000000	-30.000000
1.740000	101.400000	83.380000	223.000000	0.000000	130.000000	51.000000	-7.000000	-27.000000
1.750000	101.400000	83.160000	232.000000	0.000000	130.000000	51.000000	0.000000	-22.000000
1.760000	101.340000	82.970000	233.000000	0.000000	130.000000	51.000000	-6.000000	-19.000000
1.770000	101.340000	82.800000	211.000000	0.000000	130.000000	51.000000	0.000000	-17.000000
1.780000	101.460000	82.660000	212.000000	0.000000	130.000000	51.000000	12.000000	-14.000000
1.790000	101.550000	82.520000	191.000000	0.000000	132.000000	50.000000	9.000000	-14.000000
1.800000	101.620000	82.360000	186.000000	0.000000	132.000000	50.000000	7.000000	-16.000000
1.810000	101.670000	82.090000	151.000000	0.000000	132.000000	50.000000	5.000000	-27.000000
1.820000	101.610000	81.740000	81.000000	0.000000	132.000000	50.000000	-6.000000	-35.000000
1.830000	101.610000	81.740000	0.000000	1.000000	132.000000	50.000000	0.000000	0.000000
1.840000	101.310000	80.910000	0.000000	0.000000	132.000000	50.000000	-30.000000	-83.000000
1.850000	101.150000	80.690000	0.000000	0.000000	132.000000	50.000000	-16.000000	-22.000000
1.860000	101.010000	80.530000	0.000000	0.000000	132.000000	50.000000	-14.000000	-16.000000
1.870000	100.890000	80.530000	0.000000	0.000000	132.000000	50.000000	-12.000000	0.000000
1.880000	100.810000	80.580000	0.000000	0.000000	130.000000	51.000000	-8.000000	5.000000
1.890000	100.760000	80.700000	0.000000	0.000000	130.000000	51.000000	-5.000000	12.000000
1.900000	100.690000	80.850000	0.000000	0.000000	130.000000	51.000000	-7.000000	15.000000
1.910000	100.610000	81.010000	0.000000	0.000000	128.000000	50.000000	-8.000000	16.000000
1.920000	100.530000	81.180000	0.000000	0.000000	128.000000	50.000000	-8.000000	17.000000
1.930000	100.400000	81.320000	0.000000	0.000000	128.000000	50.000000	-13.000000	14.000000
1.940000	100.230000	81.430000	0.000000	0.000000	128.000000	50.000000	-17.000000	11.000000
1.950000	100.100000	81.540000	0.000000	0.000000	128.000000	50.000000	-13.000000	11.000000
1.960000	100.010000	81.650000	0.000000	0.000000	128.000000	50.000000	-9.000000	11.000000
1.970000	100.010000	81.760000	0.000000	0.000000	128.000000	50.000000	0.000000	11.000000
1.980000	100.010000	81.870000	0.000000	0.000000	128.000000	50.000000	0.000000	11.000000
1.990000	100.120000	81.980000	0.000000	0.000000	127.000000	50.000000	11.000000	11.000000
2.000000	100.220000	82.100000	0.000000	0.000000	128.000000	49.000000	10.000000	12.000000
2.010000	100.320000	82.250000	0.000000	0.000000	128.000000	49.000000	10.000000	15.000000
2.020000	100.480000	82.430000	0.000000	0.000000	129.000000	50.000000	16.000000	18.000000
2.030000	100.700000	82.710000	0.000000	0.000000	129.000000	50.000000	22.000000	28.000000
2.040000	100.950000	83.020000	0.000000	0.000000	130.000000	51.000000	25.000000	31.000000
2.050000	101.210000	83.350000	0.000000	0.000000	130.000000	51.000000	26.000000	33.000000
2.060000	101.520000	83.720000	0.000000	0.000000	132.000000	51.000000	31.000000	37.000000
2.070000	101.840000	84.090000	0.000000	0.000000	132.000000	51.000000	32.000000	37.000000
2.080000	102.160000	84.420000	0.000000	0.000000	133.000000	52.000000	32.000000	33.000000
2.090000	102.450000	84.690000	0.000000	0.000000	133.000000	52.000000	29.000000	27.000000
2.100000	102.710000	84.690000	0.000000	0.000000	133.000000	52.000000	26.000000	0.000000
2.110000	102.840000	84.620000	0.000000	0.000000	133.000000	52.000000	13.000000	-7.000000
2.120000	102.900000	84.520000	0.000000	0.000000	133.000000	52.000000	6.000000	-10.000000
2.130000	102.900000	84.520000	12.000000	0.000000	133.000000	52.000000	0.000000	0.000000
2.140000	102.900000	84.520000	137.000000	1.000000	132.000000	51.000000	0.000000	0.000000
2.150000	102.900000	84.520000	146.000000	0.000000	130.000000	52.000000	0.000000	0.000000
2.160000	102.900000	84.410000	167.000000	0.000000	130.000000	52.000000	0.000000	-11.000000
2.170000	102.900000	84.410000	175.000000	0.000000	130.000000	52.000000	0.000000	0.000000
2.180000	102.900000	84.410000	186.000000	0.000000	130.000000	52.000000	0.000000	0.000000
2.190000	102.990000	84.410000	186.000000	0.000000	130.000000	52.000000	9.000000	0.000000
2.200000	103.110000	84.350000	173.000000	0.000000	130.000000	52.000000	12.000000	-6.000000
2.210000	103.290000	84.350000	170.000000	0.000000	130.000000	52.000000	18.000000	0.000000
2.220000	103.530000	84.450000	143.000000	0.000000	130.000000	52.000000	24.000000	10.000000
