t	x	y	pressure	penup	azimuth	inclination	v_x	v_y
0.000000	14.010000	77.630000	24.000000	1.000000	126.000000	67.000000	0.000000	0.000000
0.010000	13.680000	77.270000	66.000000	0.000000	126.000000	66.000000	-33.000000	-36.000000
0.020000	13.560000	77.150000	168.000000	0.000000	125.000000	65.000000	-12.000000	-12.000000
0.030000	13.450000	77.010000	211.000000	0.000000	124.000000	64.000000	-11.000000	-14.000000
0.040000	13.340000	76.920000	311.000000	0.000000	122.000000	63.000000	-11.000000	-9.000000
0.050000	13.240000	76.850000	371.000000	0.000000	119.000000	63.000000	-10.000000	-7.000000
0.060000	13.180000	76.850000	431.000000	0.000000	119.000000	63.000000	-6.000000	0.000000
0.070000	13.180000	76.850000	453.000000	0.000000	118.000000	62.000000	0.000000	0.000000
0.080000	13.240000	76.910000	475.000000	0.000000	118.000000	62.000000	6.000000	6.000000
0.090000	13.370000	77.050000	492.000000	0.000000	117.000000	61.000000	13.000000	14.000000
0.100000	13.750000	77.540000	516.000000	0.000000	117.000000	61.000000	38.000000	49.000000
0.110000	14.270000	78.400000	548.000000	0.000000	117.000000	61.000000	52.000000	86.000000
0.120000	14.920000	79.510000	605.000000	0.000000	117.000000	61.000000	65.000000	111.000000
0.130000	15.700000	80.890000	638.000000	0.000000	120.000000	62.000000	78.000000	138.000000
0.140000	16.560000	82.550000	639.000000	0.000000	120.000000	62.000000	86.000000	166.000000
0.150000	17.360000	84.390000	610.000000	0.000000	122.000000	61.000000	80.000000	184.000000
0.160000	18.070000	86.620000	619.000000	0.000000	123.000000	62.000000	71.000000	223.000000
0.170000	18.730000	88.250000	641.000000	0.000000	126.000000	62.000000	66.000000	163.000000
0.180000	19.110000	89.470000	663.000000	0.000000	129.000000	63.000000	38.000000	122.000000
0.190000	19.220000	89.770000	675.000000	0.000000	130.000000	62.000000	11.000000	30.000000
0.200000	19.140000	89.700000	666.000000	0.000000	132.000000	63.000000	-8.000000	-7.000000
0.210000	19.090000	89.380000	667.000000	0.000000	132.000000	63.000000	-5.000000	-32.000000
0.220000	18.770000	88.530000	671.000000	0.000000	135.000000	63.000000	-32.000000	-85.000000
0.230000	18.260000	86.730000	650.000000	0.000000	135.000000	63.000000	-51.000000	-180.000000
0.240000	17.700000	84.290000	637.000000	0.000000	135.000000	63.000000	-56.000000	-244.000000
0.250000	17.220000	82.180000	655.000000	0.000000	135.000000	63.000000	-48.000000	-211.000000
0.260000	17.070000	80.750000	666.000000	0.000000	133.000000	62.000000	-15.000000	-143.000000
0.270000	17.070000	79.780000	691.000000	0.000000	132.000000	63.000000	0.000000	-97.000000
0.280000	17.130000	79.140000	705.000000	0.000000	130.000000	62.000000	6.000000	-64.000000
0.290000	17.130000	78.750000	717.000000	0.000000	129.000000	63.000000	0.000000	-39.000000
0.300000	17.060000	78.540000	721.000000	0.000000	127.000000	62.000000	-7.000000	-21.000000
0.310000	17.060000	78.540000	697.000000	0.000000	127.000000	62.000000	0.000000	0.000000
0.320000	16.790000	78.770000	636.000000	0.000000	126.000000	61.000000	-27.000000	23.000000
0.330000	16.390000	79.120000	613.000000	0.000000	127.000000	62.000000	-40.000000	35.000000
0.340000	15.590000	79.790000	594.000000	0.000000	127.000000	62.000000	-80.000000	67.000000
0.350000	14.500000	80.510000	603.000000	0.000000	127.000000	62.000000	-109.000000	72.000000
0.360000	13.220000	81.270000	656.000000	0.000000	127.000000	62.000000	-128.000000	76.000000
0.370000	11.990000	81.910000	703.000000	0.000000	127.000000	62.000000	-123.000000	64.000000
0.380000	11.000000	82.240000	720.000000	0.000000	127.000000	62.000000	-99.000000	33.000000
0.390000	10.180000	82.370000	736.000000	0.000000	129.000000	61.000000	-82.000000	13.000000
0.400000	9.940000	82.430000	731.000000	0.000000	129.000000	61.000000	-24.000000	6.000000
0.410000	10.090000	82.430000	708.000000	0.000000	128.000000	61.000000	15.000000	0.000000
0.420000	10.510000	82.430000	693.000000	0.000000	128.000000	61.000000	42.000000	0.000000
0.430000	11.780000	82.430000	696.000000	0.000000	128.000000	61.000000	127.000000	0.000000
0.440000	13.680000	82.560000	693.000000	0.000000	128.000000	61.000000	190.000000	13.000000
0.450000	16.010000	82.730000	694.000000	0.000000	128.000000	61.000000	233.000000	17.000000
0.460000	19.110000	83.020000	693.000000	0.000000	131.000000	61.000000	310.000000	29.000000
0.470000	22.490000	83.340000	707.000000	0.000000	132.000000	61.000000	338.000000	32.000000
0.480000	26.050000	83.690000	724.000000	0.000000	134.000000	61.000000	356.000000	35.000000
0.490000	29.460000	84.060000	731.000000	0.000000	135.000000	62.000000	341.000000	37.000000
0.500000	32.610000	84.360000	730.000000	0.000000	138.000000	61.000000	315.000000	30.000000
0.510000	35.590000	84.550000	724.000000	0.000000	138.000000	61.000000	298.000000	19.000000
0.520000	38.030000	84.690000	710.000000	0.000000	138.000000	61.000000	244.000000	14.000000
0.530000	39.410000	84.800000	679.000000	0.000000	139.000000	61.000000	138.000000	11.000000
0.540000	40.080000	84.700000	659.000000	0.000000	139.000000	61.000000	67.000000	-10.000000
0.550000	39.960000	84.480000	595.000000	0.000000	139.000000	61.000000	-12.000000	-22.000000
0.560000	38.610000	84.170000	449.000000	0.000000	142.000000	61.000000	-135.000000	-31.000000
0.570000	36.450000	83.590000	333.000000	0.000000	142.000000	61.000000	-216.000000	-58.000000
0.580000	33.010000	82.840000	336.000000	0.000000	142.000000	61.000000	-344.000000	-75.000000
0.590000	28.850000	81.960000	481.000000	0.000000	142.000000	61.000000	-416.000000	-88.000000
0.600000	24.210000	81.020000	616.000000	0.000000	142.000000	61.000000	-464.000000	-94.000000
0.610000	19.930000	80.030000	643.000000	0.000000	142.000000	61.000000	-428.000000	-99.000000
0.620000	16.500000	79.110000	687.000000	0.000000	141.000000	61.000000	-343.000000	-92.000000
0.630000	13.630000	78.220000	693.000000	0.000000	141.000000	61.000000	-287.000000	-89.000000
0.640000	11.800000	77.690000	687.000000	0.000000	138.000000	61.000000	-183.000000	-53.000000
0.650000	10.930000	77.400000	643.000000	0.000000	136.000000	61.000000	-87.000000	-29.000000
0.660000	10.700000	77.280000	659.000000	0.000000	134.000000	61.000000	-23.000000	-12.000000
0.670000	11.460000	77.280000	678.000000	0.000000	134.000000	61.000000	76.000000	0.000000
0.680000	13.150000	77.380000	690.000000	0.000000	132.000000	61.000000	169.000000	10.000000
0.690000	15.450000	77.830000	728.000000	0.000000	131.000000	61.000000	230.000000	45.000000
0.700000	18.800000	78.440000	759.000000	0.000000	131.000000	61.000000	335.000000	61.000000
0.710000	22.530000	79.160000	787.000000	0.000000	131.000000	61.000000	373.000000	72.000000
0.720000	26.500000	80.010000	796.000000	0.000000	132.000000	60.000000	397.000000	85.000000
0.730000	30.170000	80.720000	793.000000	0.000000	134.000000	61.000000	367.000000	71.000000
0.740000	33.390000	81.330000	777.000000	0.000000	135.000000	62.000000	322.000000	61.000000
0.750000	36.300000	81.660000	691.000000	0.000000	136.000000	61.000000	291.000000	33.000000
0.760000	38.230000	81.820000	543.000000	0.000000	138.000000	60.000000	193.000000	16.000000
0.770000	39.260000	81.880000	207.000000	0.000000	141.000000	60.000000	103.000000	6.000000
0.780000	39.260000	81.880000	0.000000	1.000000	141.000000	60.000000	0.000000	0.000000
0.790000	39.190000	81.590000	0.000000	0.000000	141.000000	60.000000	-7.000000	-29.000000
0.800000	37.690000	81.220000	0.000000	0.000000	142.000000	59.000000	-150.000000	-37.000000
0.810000	35.510000	80.730000	0.000000	0.000000	141.000000	60.000000	-218.000000	-49.000000
0.820000	33.260000	79.920000	0.000000	0.000000	141.000000	60.000000	-225.000000	-81.000000
0.830000	30.940000	78.990000	0.000000	0.000000	141.000000	60.000000	-232.000000	-93.000000
0.840000	28.560000	77.970000	0.000000	0.000000	138.000000	60.000000	-238.000000	-102.000000
0.850000	26.320000	77.120000	0.000000	0.000000	138.000000	60.000000	-224.000000	-85.000000
0.860000	24.370000	76.260000	0.000000	0.000000	136.000000	60.000000	-195.000000	-86.000000
0.870000	22.620000	75.620000	0.000000	0.000000	135.000000	60.000000	-175.000000	-64.000000
0.880000	21.460000	75.130000	0.000000	0.000000	134.000000	60.000000	-116.000000	-49.000000
0.890000	20.640000	74.760000	0.000000	0.000000	132.000000	60.000000	-82.000000	-37.000000
0.900000	20.640000	74.760000	301.000000	1.000000	132.000000	60.000000	0.000000	0.000000
0.910000	20.430000	74.510000	397.000000	0.000000	129.000000	60.000000	-21.000000	-25.000000
0.920000	20.680000	75.140000	425.000000	0.000000	129.000000	60.000000	25.000000	63.000000
0.930000	20.830000	75.900000	446.000000	0.000000	129.000000	60.000000	15.000000	76.000000
0.940000	21.720000	76.750000	452.000000	0.000000	128.000000	61.000000	89.000000	85.000000
0.950000	22.620000	77.840000	475.000000	0.000000	128.000000	61.000000	90.000000	109.000000
0.960000	23.530000	79.180000	515.000000	0.000000	128.000000	61.000000	91.000000	134.000000
0.970000	24.440000	80.700000	522.000000	0.000000	128.000000	61.000000	91.000000	152.000000
0.980000	25.370000	82.380000	502.000000	0.000000	129.000000	61.000000	93.000000	168.000000
0.990000	26.300000	84.330000	483.000000	0.000000	129.000000	61.000000	93.000000	195.000000
1.000000	27.200000	86.450000	472.000000	0.000000	129.000000	61.000000	90.000000	212.000000
1.010000	27.930000	88.490000	481.000000	0.000000	130.000000	62.000000	73.000000	204.000000
1.020000	28.540000	89.790000	524.000000	0.000000	132.000000	61.000000	61.000000	130.000000
1.030000	28.670000	90.600000	560.000000	0.000000	134.000000	61.000000	13.000000	81.000000
1.040000	28.670000	90.600000	565.000000	0.000000	135.000000	60.000000	0.000000	0.000000
1.050000	28.590000	90.260000	570.000000	0.000000	136.000000	60.000000	-8.000000	-34.000000
1.060000	28.250000	89.660000	556.000000	0.000000	136.000000	60.000000	-34.000000	-60.000000
1.070000	27.480000	87.890000	530.000000	0.000000	136.000000	60.000000	-77.000000	-177.000000
1.080000	26.420000	85.570000	515.000000	0.000000	136.000000	58.000000	-106.000000	-232.000000
1.090000	25.410000	82.890000	518.000000	0.000000	135.000000	59.000000	-101.000000	-268.000000
1.100000	24.970000	81.190000	533.000000	0.000000	135.000000	59.000000	-44.000000	-170.000000
1.110000	24.910000	80.110000	543.000000	0.000000	134.000000	60.000000	-6.000000	-108.000000
1.120000	25.170000	79.450000	561.000000	0.000000	131.000000	60.000000	26.000000	-66.000000
1.130000	25.610000	79.190000	589.000000	0.000000	128.000000	61.000000	44.000000	-26.000000
1.140000	26.180000	79.430000	592.000000	0.000000	126.000000	61.000000	57.000000	24.000000
1.150000	26.980000	80.010000	606.000000	0.000000	126.000000	61.000000	80.000000	58.000000
1.160000	27.870000	81.220000	608.000000	0.000000	126.000000	61.000000	89.000000	121.000000
1.170000	28.830000	82.690000	597.000000	0.000000	126.000000	61.000000	96.000000	147.000000
1.180000	29.470000	84.340000	585.000000	0.000000	126.000000	61.000000	64.000000	165.000000
1.190000	30.020000	86.450000	588.000000	0.000000	125.000000	60.000000	55.000000	211.000000
1.200000	30.500000	88.510000	614.000000	0.000000	125.000000	60.000000	48.000000	206.000000
1.210000	30.830000	89.590000	663.000000	0.000000	126.000000	60.000000	33.000000	108.000000
1.220000	30.830000	90.030000	687.000000	0.000000	128.000000	59.000000	0.000000	44.000000
1.230000	30.710000	89.790000	696.000000	0.000000	131.000000	60.000000	-12.000000	-24.000000
1.240000	30.280000	88.880000	687.000000	0.000000	132.000000	59.000000	-43.000000	-91.000000
1.250000	29.420000	87.530000	650.000000	0.000000	132.000000	59.000000	-86.000000	-135.000000
1.260000	28.260000	84.980000	641.000000	0.000000	134.000000	58.000000	-116.000000	-255.000000
1.270000	27.540000	82.970000	646.000000	0.000000	134.000000	58.000000	-72.000000	-201.000000
1.280000	27.440000	81.320000	664.000000	0.000000	132.000000	59.000000	-10.000000	-165.000000
1.290000	27.750000	80.460000	669.000000	0.000000	132.000000	59.000000	31.000000	-86.000000
1.300000	28.210000	80.090000	694.000000	0.000000	129.000000	59.000000	46.000000	-37.000000
1.310000	28.670000	80.090000	720.000000	0.000000	128.000000	59.000000	46.000000	0.000000
1.320000	29.120000	80.410000	757.000000	0.000000	128.000000	59.000000	45.000000	32.000000
1.330000	29.650000	81.180000	751.000000	0.000000	128.000000	59.000000	53.000000	77.000000
1.340000	30.140000	82.230000	760.000000	0.000000	127.000000	59.000000	49.000000	105.000000
1.350000	30.350000	83.450000	757.000000	0.000000	128.000000	59.000000	21.000000	122.000000
1.360000	30.350000	84.840000	763.000000	0.000000	128.000000	59.000000	0.000000	139.000000
1.370000	30.470000	86.340000	790.000000	0.000000	128.000000	59.000000	12.000000	150.000000
1.380000	30.420000	86.890000	840.000000	0.000000	128.000000	59.000000	-5.000000	55.000000
1.390000	30.290000	86.970000	852.000000	0.000000	129.000000	60.000000	-13.000000	8.000000
1.400000	30.130000	86.740000	848.000000	0.000000	129.000000	60.000000	-16.000000	-23.000000
1.410000	29.880000	86.540000	840.000000	0.000000	129.000000	60.000000	-25.000000	-20.000000
1.420000	29.570000	85.740000	829.000000	0.000000	129.000000	60.000000	-31.000000	-80.000000
1.430000	29.520000	84.540000	803.000000	0.000000	129.000000	60.000000	-5.000000	-120.000000
1.440000	30.070000	83.820000	805.000000	0.000000	129.000000	60.000000	55.000000	-72.000000
1.450000	31.010000	83.260000	805.000000	0.000000	129.000000	60.000000	94.000000	-56.000000
1.460000	32.480000	82.800000	800.000000	0.000000	131.000000	60.000000	147.000000	-46.000000
1.470000	33.980000	82.540000	799.000000	0.000000	132.000000	60.000000	150.000000	-26.000000
1.480000	35.580000	82.410000	806.000000	0.000000	132.000000	60.000000	160.000000	-13.000000
1.490000	36.950000	82.360000	814.000000	0.000000	134.000000	60.000000	137.000000	-5.000000
1.500000	38.160000	82.150000	818.000000	0.000000	134.000000	60.000000	121.000000	-21.000000
1.510000	38.730000	81.920000	820.000000	0.000000	134.000000	60.000000	57.000000	-23.000000
1.520000	38.730000	81.640000	823.000000	0.000000	135.000000	59.000000	0.000000	-28.000000
1.530000	38.400000	81.050000	827.000000	0.000000	135.000000	59.000000	-33.000000	-59.000000
1.540000	37.140000	80.260000	821.000000	0.000000	135.000000	59.000000	-126.000000	-79.000000
1.550000	35.180000	79.100000	812.000000	0.000000	132.000000	59.000000	-196.000000	-116.000000
1.560000	32.740000	77.930000	802.000000	0.000000	132.000000	59.000000	-244.000000	-117.000000
1.570000	29.870000	76.790000	814.000000	0.000000	132.000000	59.000000	-287.000000	-114.000000
1.580000	27.320000	75.870000	814.000000	0.000000	129.000000	59.000000	-255.000000	-92.000000
1.590000	24.990000	75.080000	811.000000	0.000000	129.000000	59.000000	-233.000000	-79.000000
1.600000	23.000000	74.260000	818.000000	0.000000	128.000000	59.000000	-199.000000	-82.000000
1.610000	21.580000	73.690000	815.000000	0.000000	129.000000	60.000000	-142.000000	-57.000000
1.620000	20.550000	73.300000	800.000000	0.000000	129.000000	60.000000	-103.000000	-39.000000
1.630000	20.130000	73.070000	771.000000	0.000000	129.000000	60.000000	-42.000000	-23.000000
1.640000	20.130000	73.070000	727.000000	0.000000	129.000000	60.000000	0.000000	0.000000
1.650000	20.130000	73.070000	705.000000	0.000000	129.000000	60.000000	0.000000	0.000000
1.660000	20.980000	73.520000	691.000000	0.000000	128.000000	61.000000	85.000000	45.000000
1.670000	21.910000	74.190000	691.000000	0.000000	128.000000	61.000000	93.000000	67.000000
1.680000	23.010000	75.070000	691.000000	0.000000	128.000000	61.000000	110.000000	88.000000
1.690000	24.100000	75.980000	696.000000	0.000000	128.000000	61.000000	109.000000	91.000000
1.700000	24.950000	76.860000	703.000000	0.000000	128.000000	61.000000	85.000000	88.000000
1.710000	25.650000	77.730000	719.000000	0.000000	129.000000	61.000000	70.000000	87.000000
1.720000	26.000000	78.130000	754.000000	0.000000	129.000000	61.000000	35.000000	40.000000
1.730000	26.070000	78.130000	791.000000	0.000000	129.000000	61.000000	7.000000	0.000000
1.740000	25.950000	77.970000	787.000000	0.000000	130.000000	62.000000	-12.000000	-16.000000
1.750000	25.660000	77.700000	790.000000	0.000000	130.000000	62.000000	-29.000000	-27.000000
1.760000	25.130000	76.950000	799.000000	0.000000	130.000000	62.000000	-53.000000	-75.000000
1.770000	24.450000	75.870000	806.000000	0.000000	130.000000	62.000000	-68.000000	-108.000000
1.780000	24.090000	75.050000	809.000000	0.000000	130.000000	62.000000	-36.000000	-82.000000
1.790000	24.020000	74.480000	805.000000	0.000000	130.000000	62.000000	-7.000000	-57.000000
1.800000	24.150000	74.080000	796.000000	0.000000	130.000000	62.000000	13.000000	-40.000000
1.810000	24.430000	73.870000	787.000000	0.000000	130.000000	62.000000	28.000000	-21.000000
1.820000	24.910000	73.870000	787.000000	0.000000	130.000000	62.000000	48.000000	0.000000
1.830000	25.520000	74.130000	790.000000	0.000000	129.000000	61.000000	61.000000	26.000000
1.840000	26.220000	74.780000	806.000000	0.000000	129.000000	61.000000	70.000000	65.000000
1.850000	26.950000	75.600000	818.000000	0.000000	129.000000	61.000000	73.000000	82.000000
1.860000	27.400000	76.540000	827.000000	0.000000	129.000000	61.000000	45.000000	94.000000
1.870000	27.650000	77.480000	825.000000	0.000000	128.000000	61.000000	25.000000	94.000000
1.880000	27.940000	78.280000	843.000000	0.000000	128.000000	61.000000	29.000000	80.000000
1.890000	28.080000	79.000000	855.000000	0.000000	126.000000	60.000000	14.000000	72.000000
1.900000	28.080000	79.000000	861.000000	0.000000	126.000000	60.000000	0.000000	0.000000
1.910000	28.080000	78.800000	861.000000	0.000000	125.000000	59.000000	0.000000	-20.000000
1.920000	27.950000	78.520000	864.000000	0.000000	127.000000	59.000000	-13.000000	-28.000000
1.930000	27.840000	77.870000	861.000000	0.000000	127.000000	59.000000	-11.000000	-65.000000
1.940000	27.750000	77.310000	858.000000	0.000000	126.000000	58.000000	-9.000000	-56.000000
1.950000	27.850000	76.820000	864.000000	0.000000	126.000000	58.000000	10.000000	-49.000000
1.960000	28.080000	76.530000	857.000000	0.000000	126.000000	58.000000	23.000000	-29.000000
1.970000	28.540000	76.420000	855.000000	0.000000	126.000000	58.000000	46.000000	-11.000000
1.980000	28.970000	76.420000	857.000000	0.000000	124.000000	58.000000	43.000000	0.000000
1.990000	29.380000	76.690000	858.000000	0.000000	124.000000	58.000000	41.000000	27.000000
2.000000	29.720000	76.980000	853.000000	0.000000	123.000000	59.000000	34.000000	29.000000
2.010000	29.940000	77.310000	873.000000	0.000000	124.000000	60.000000	22.000000	33.000000
2.020000	30.090000	77.620000	908.000000	0.000000	124.000000	60.000000	15.000000	31.000000
2.030000	30.180000	77.620000	908.000000	0.000000	124.000000	60.000000	9.000000	0.000000
2.040000	30.250000	77.350000	941.000000	0.000000	124.000000	60.000000	7.000000	-27.000000
2.050000	30.310000	77.140000	941.000000	0.000000	124.000000	60.000000	6.000000	-21.000000
2.060000	30.600000	76.750000	942.000000	0.000000	124.000000	60.000000	29.000000	-39.000000
2.070000	30.870000	76.240000	932.000000	0.000000	124.000000	60.000000	27.000000	-51.000000
2.080000	31.130000	76.020000	906.000000	0.000000	124.000000	60.000000	26.000000	-22.000000
2.090000	31.400000	76.020000	837.000000	0.000000	124.000000	60.000000	27.000000	0.000000
2.100000	31.600000	76.080000	711.000000	0.000000	124.000000	60.000000	20.000000	6.000000
2.110000	31.760000	76.580000	257.000000	0.000000	124.000000	60.000000	16.000000	50.000000
2.120000	31.760000	76.580000	0.000000	1.000000	125.000000	60.000000	0.000000	0.000000
2.130000	31.140000	78.250000	0.000000	0.000000	125.000000	60.000000	-62.000000	167.000000
2.140000	30.350000	79.120000	0.000000	0.000000	126.000000	60.000000	-79.000000	87.000000
2.150000	29.160000	80.200000	0.000000	0.000000	128.000000	61.000000	-119.000000	108.000000
2.160000	27.630000	81.430000	0.000000	0.000000	128.000000	61.000000	-153.000000	123.000000
2.170000	25.870000	82.630000	0.000000	0.000000	128.000000	61.000000	-176.000000	120.000000
2.180000	24.030000	83.340000	0.000000	0.000000	131.000000	61.000000	-184.000000	71.000000
