t	x	y	pressure	penup	azimuth	inclination	v_x	v_y
0.000000	49.830000	23.580000	65.000000	1.000000	114.000000	51.000000	0.000000	0.000000
0.010000	49.830000	23.580000	108.000000	0.000000	112.000000	51.000000	0.000000	0.000000
0.020000	50.020000	23.830000	168.000000	0.000000	112.000000	51.000000	19.000000	25.000000
0.030000	50.160000	23.980000	239.000000	0.000000	112.000000	51.000000	14.000000	15.000000
0.040000	50.340000	24.190000	312.000000	0.000000	111.000000	51.000000	18.000000	21.000000
0.050000	50.610000	24.450000	353.000000	0.000000	111.000000	51.000000	27.000000	26.000000
0.060000	50.950000	24.870000	402.000000	0.000000	112.000000	52.000000	34.000000	42.000000
0.070000	51.340000	25.350000	448.000000	0.000000	112.000000	52.000000	39.000000	48.000000
0.080000	51.780000	25.860000	496.000000	0.000000	112.000000	52.000000	44.000000	51.000000
0.090000	52.240000	26.440000	516.000000	0.000000	113.000000	52.000000	46.000000	58.000000
0.100000	52.690000	27.150000	539.000000	0.000000	113.000000	52.000000	45.000000	71.000000
0.110000	53.090000	27.940000	565.000000	0.000000	114.000000	51.000000	40.000000	79.000000
0.120000	53.460000	28.780000	560.000000	0.000000	116.000000	52.000000	37.000000	84.000000
0.130000	53.760000	29.710000	570.000000	0.000000	117.000000	52.000000	30.000000	93.000000
0.140000	54.000000	30.700000	557.000000	0.000000	119.000000	51.000000	24.000000	99.000000
0.150000	54.200000	31.790000	562.000000	0.000000	120.000000	51.000000	20.000000	109.000000
0.160000	54.350000	32.710000	561.000000	0.000000	121.000000	51.000000	15.000000	92.000000
0.170000	54.400000	33.510000	560.000000	0.000000	122.000000	50.000000	5.000000	80.000000
0.180000	54.400000	33.910000	569.000000	0.000000	122.000000	50.000000	0.000000	40.000000
0.190000	54.290000	34.290000	577.000000	0.000000	124.000000	50.000000	-11.000000	38.000000
0.200000	54.190000	34.400000	577.000000	0.000000	124.000000	50.000000	-10.000000	11.000000
0.210000	54.080000	34.330000	578.000000	0.000000	124.000000	50.000000	-11.000000	-7.000000
0.220000	54.080000	34.380000	569.000000	0.000000	124.000000	50.000000	0.000000	5.000000
0.230000	54.030000	34.380000	560.000000	0.000000	124.000000	50.000000	-5.000000	0.000000
0.240000	54.030000	34.380000	560.000000	0.000000	124.000000	50.000000	0.000000	0.000000
0.250000	54.100000	34.110000	563.000000	0.000000	124.000000	50.000000	7.000000	-27.000000
0.260000	54.150000	33.750000	567.000000	0.000000	125.000000	50.000000	5.000000	-36.000000
0.270000	54.150000	33.320000	589.000000	0.000000	124.000000	49.000000	0.000000	-43.000000
0.280000	54.240000	32.720000	595.000000	0.000000	124.000000	49.000000	9.000000	-60.000000
0.290000	54.300000	32.010000	599.000000	0.000000	125.000000	48.000000	6.000000	-71.000000
0.300000	54.300000	31.360000	613.000000	0.000000	126.000000	49.000000	0.000000	-65.000000
0.310000	54.410000	30.680000	642.000000	0.000000	126.000000	49.000000	11.000000	-68.000000
0.320000	54.460000	29.930000	662.000000	0.000000	126.000000	49.000000	5.000000	-75.000000
0.330000	54.460000	29.020000	697.000000	0.000000	126.000000	49.000000	0.000000	-91.000000
0.340000	54.510000	28.010000	700.000000	0.000000	125.000000	50.000000	5.000000	-101.000000
0.350000	54.560000	26.980000	730.000000	0.000000	125.000000	50.000000	5.000000	-103.000000
0.360000	54.610000	26.070000	736.000000	0.000000	125.000000	50.000000	5.000000	-91.000000
0.370000	54.740000	25.240000	749.000000	0.000000	126.000000	50.000000	13.000000	-83.000000
0.380000	54.870000	24.600000	752.000000	0.000000	126.000000	50.000000	13.000000	-64.000000
0.390000	55.020000	24.080000	751.000000	0.000000	126.000000	50.000000	15.000000	-52.000000
0.400000	55.100000	23.640000	757.000000	0.000000	125.000000	51.000000	8.000000	-44.000000
0.410000	55.100000	23.370000	756.000000	0.000000	125.000000	51.000000	0.000000	-27.000000
0.420000	55.100000	23.270000	760.000000	0.000000	125.000000	51.000000	0.000000	-10.000000
0.430000	55.100000	23.270000	779.000000	0.000000	125.000000	51.000000	0.000000	0.000000
0.440000	55.100000	23.340000	800.000000	0.000000	125.000000	51.000000	0.000000	7.000000
0.450000	55.100000	23.400000	806.000000	0.000000	125.000000	51.000000	0.000000	6.000000
0.460000	55.100000	23.530000	814.000000	0.000000	125.000000	51.000000	0.000000	13.000000
0.470000	55.010000	23.720000	811.000000	0.000000	125.000000	51.000000	-9.000000	19.000000
0.480000	54.950000	24.080000	809.000000	0.000000	125.000000	51.000000	-6.000000	36.000000
0.490000	54.900000	24.510000	800.000000	0.000000	125.000000	51.000000	-5.000000	43.000000
0.500000	54.820000	24.980000	787.000000	0.000000	125.000000	51.000000	-8.000000	47.000000
0.510000	54.730000	25.610000	783.000000	0.000000	125.000000	51.000000	-9.000000	63.000000
0.520000	54.630000	26.390000	794.000000	0.000000	125.000000	51.000000	-10.000000	78.000000
0.530000	54.490000	27.280000	794.000000	0.000000	125.000000	51.000000	-14.000000	89.000000
0.540000	54.320000	28.220000	796.000000	0.000000	125.000000	51.000000	-17.000000	94.000000
0.550000	53.980000	28.970000	787.000000	0.000000	126.000000	50.000000	-34.000000	75.000000
0.560000	53.470000	29.440000	797.000000	0.000000	125.000000	50.000000	-51.000000	47.000000
0.570000	52.840000	29.800000	793.000000	0.000000	125.000000	50.000000	-63.000000	36.000000
0.580000	52.020000	29.990000	791.000000	0.000000	125.000000	50.000000	-82.000000	19.000000
0.590000	51.080000	30.120000	797.000000	0.000000	125.000000	50.000000	-94.000000	13.000000
0.600000	50.050000	30.120000	796.000000	0.000000	125.000000	50.000000	-103.000000	0.000000
0.610000	49.190000	30.010000	790.000000	0.000000	124.000000	49.000000	-86.000000	-11.000000
0.620000	48.390000	29.890000	787.000000	0.000000	124.000000	49.000000	-80.000000	-12.000000
0.630000	47.700000	29.750000	787.000000	0.000000	124.000000	49.000000	-69.000000	-14.000000
0.640000	47.200000	29.590000	787.000000	0.000000	124.000000	49.000000	-50.000000	-16.000000
0.650000	46.830000	29.430000	784.000000	0.000000	123.000000	48.000000	-37.000000	-16.000000
0.660000	46.830000	29.370000	759.000000	0.000000	123.000000	48.000000	0.000000	-6.000000
0.670000	46.830000	29.370000	750.000000	0.000000	123.000000	48.000000	0.000000	0.000000
0.680000	47.090000	29.290000	757.000000	0.000000	123.000000	48.000000	26.000000	-8.000000
0.690000	47.440000	29.190000	755.000000	0.000000	123.000000	48.000000	35.000000	-10.000000
0.700000	48.030000	29.070000	751.000000	0.000000	123.000000	48.000000	59.000000	-12.000000
0.710000	48.670000	29.070000	768.000000	0.000000	123.000000	48.000000	64.000000	0.000000
0.720000	49.580000	29.070000	790.000000	0.000000	123.000000	48.000000	91.000000	0.000000
0.730000	50.640000	29.170000	791.000000	0.000000	123.000000	48.000000	106.000000	10.000000
0.740000	51.990000	29.240000	826.000000	0.000000	123.000000	48.000000	135.000000	7.000000
0.750000	53.370000	29.320000	848.000000	0.000000	123.000000	48.000000	138.000000	8.000000
0.760000	54.850000	29.440000	860.000000	0.000000	124.000000	49.000000	148.000000	12.000000
0.770000	56.680000	29.740000	892.000000	0.000000	124.000000	49.000000	183.000000	30.000000
0.780000	58.740000	30.170000	942.000000	0.000000	124.000000	49.000000	206.000000	43.000000
0.790000	60.740000	30.670000	950.000000	0.000000	125.000000	50.000000	200.000000	50.000000
0.800000	63.090000	31.420000	964.000000	0.000000	125.000000	50.000000	235.000000	75.000000
0.810000	65.540000	32.330000	967.000000	0.000000	126.000000	50.000000	245.000000	91.000000
0.820000	67.940000	33.160000	977.000000	0.000000	127.000000	50.000000	240.000000	83.000000
0.830000	70.010000	33.960000	973.000000	0.000000	128.000000	50.000000	207.000000	80.000000
0.840000	71.600000	34.440000	968.000000	0.000000	128.000000	50.000000	159.000000	48.000000
0.850000	72.880000	34.710000	967.000000	0.000000	130.000000	51.000000	128.000000	27.000000
0.860000	73.510000	34.710000	946.000000	0.000000	130.000000	51.000000	63.000000	0.000000
0.870000	73.670000	34.710000	944.000000	0.000000	133.000000	51.000000	16.000000	0.000000
0.880000	73.510000	34.590000	947.000000	0.000000	133.000000	51.000000	-16.000000	-12.000000
0.890000	73.510000	34.590000	938.000000	0.000000	133.000000	51.000000	0.000000	0.000000
0.900000	73.440000	34.590000	947.000000	0.000000	135.000000	51.000000	-7.000000	0.000000
0.910000	73.390000	34.590000	918.000000	0.000000	135.000000	51.000000	-5.000000	0.000000
0.920000	73.330000	34.590000	881.000000	0.000000	135.000000	51.000000	-6.000000	0.000000
0.930000	73.120000	34.530000	787.000000	0.000000	136.000000	50.000000	-21.000000	-6.000000
0.940000	72.730000	34.360000	647.000000	0.000000	135.000000	50.000000	-39.000000	-17.000000
0.950000	72.210000	34.180000	299.000000	0.000000	134.000000	50.000000	-52.000000	-18.000000
0.960000	72.210000	34.180000	0.000000	1.000000	134.000000	50.000000	0.000000	0.000000
0.970000	71.230000	33.570000	0.000000	0.000000	134.000000	50.000000	-98.000000	-61.000000
0.980000	70.790000	33.490000	0.000000	0.000000	133.000000	51.000000	-44.000000	-8.000000
0.990000	70.330000	33.410000	0.000000	0.000000	133.000000	51.000000	-46.000000	-8.000000
1.000000	70.090000	33.410000	0.000000	0.000000	133.000000	51.000000	-24.000000	0.000000
1.010000	69.900000	33.410000	0.000000	0.000000	133.000000	51.000000	-19.000000	0.000000
1.020000	69.790000	33.410000	0.000000	0.000000	133.000000	51.000000	-11.000000	0.000000
1.030000	69.790000	33.410000	0.000000	0.000000	134.000000	51.000000	0.000000	0.000000
1.040000	69.840000	33.410000	0.000000	0.000000	134.000000	51.000000	5.000000	0.000000
1.050000	69.920000	33.470000	0.000000	0.000000	135.000000	52.000000	8.000000	6.000000
1.060000	70.050000	33.470000	0.000000	0.000000	135.000000	52.000000	13.000000	0.000000
1.070000	70.130000	33.470000	0.000000	0.000000	136.000000	51.000000	8.000000	0.000000
1.080000	70.130000	33.470000	0.000000	0.000000	136.000000	51.000000	0.000000	0.000000
1.090000	70.200000	33.470000	0.000000	0.000000	136.000000	51.000000	7.000000	0.000000
1.100000	70.200000	33.470000	0.000000	0.000000	136.000000	50.000000	0.000000	0.000000
1.110000	70.250000	33.470000	0.000000	0.000000	135.000000	51.000000	5.000000	0.000000
1.120000	70.250000	33.540000	0.000000	0.000000	135.000000	51.000000	0.000000	7.000000
1.130000	70.310000	33.590000	0.000000	0.000000	136.000000	51.000000	6.000000	5.000000
1.140000	70.310000	33.590000	0.000000	0.000000	136.000000	51.000000	0.000000	0.000000
1.150000	70.310000	33.670000	0.000000	0.000000	136.000000	51.000000	0.000000	8.000000
1.160000	70.240000	33.670000	0.000000	0.000000	137.000000	52.000000	-7.000000	0.000000
1.170000	70.180000	33.740000	0.000000	0.000000	136.000000	52.000000	-6.000000	7.000000
1.180000	70.100000	33.740000	0.000000	0.000000	136.000000	52.000000	-8.000000	0.000000
1.190000	70.010000	33.740000	0.000000	0.000000	136.000000	52.000000	-9.000000	0.000000
1.200000	69.920000	33.740000	0.000000	0.000000	137.000000	53.000000	-9.000000	0.000000
1.210000	69.820000	33.660000	0.000000	0.000000	137.000000	53.000000	-10.000000	-8.000000
1.220000	69.700000	33.610000	0.000000	0.000000	137.000000	53.000000	-12.000000	-5.000000
1.230000	69.570000	33.610000	0.000000	0.000000	137.000000	53.000000	-13.000000	0.000000
1.240000	69.450000	33.610000	0.000000	0.000000	137.000000	53.000000	-12.000000	0.000000
1.250000	69.270000	33.530000	0.000000	0.000000	137.000000	53.000000	-18.000000	-8.000000
1.260000	69.050000	33.450000	0.000000	0.000000	137.000000	53.000000	-22.000000	-8.000000
1.270000	68.700000	33.310000	0.000000	0.000000	137.000000	53.000000	-35.000000	-14.000000
1.280000	68.240000	33.110000	0.000000	0.000000	137.000000	53.000000	-46.000000	-20.000000
1.290000	67.700000	32.850000	0.000000	0.000000	137.000000	53.000000	-54.000000	-26.000000
1.300000	67.110000	32.570000	0.000000	0.000000	136.000000	52.000000	-59.000000	-28.000000
1.310000	66.530000	32.250000	0.000000	0.000000	135.000000	52.000000	-58.000000	-32.000000
1.320000	65.920000	31.900000	0.000000	0.000000	135.000000	52.000000	-61.000000	-35.000000
1.330000	65.290000	31.550000	0.000000	0.000000	135.000000	51.000000	-63.000000	-35.000000
1.340000	64.900000	31.280000	0.000000	0.000000	134.000000	50.000000	-39.000000	-27.000000
1.350000	64.550000	31.050000	0.000000	0.000000	134.000000	50.000000	-35.000000	-23.000000
1.360000	64.280000	30.840000	0.000000	0.000000	133.000000	50.000000	-27.000000	-21.000000
1.370000	64.060000	30.630000	0.000000	0.000000	130.000000	50.000000	-22.000000	-21.000000
1.380000	63.890000	30.420000	0.000000	0.000000	130.000000	50.000000	-17.000000	-21.000000
1.390000	63.790000	30.140000	0.000000	0.000000	130.000000	50.000000	-10.000000	-28.000000
1.400000	63.700000	29.860000	0.000000	0.000000	129.000000	49.000000	-9.000000	-28.000000
1.410000	63.620000	29.570000	0.000000	0.000000	128.000000	49.000000	-8.000000	-29.000000
1.420000	63.540000	29.280000	0.000000	0.000000	128.000000	49.000000	-8.000000	-29.000000
1.430000	63.490000	28.990000	0.000000	0.000000	127.000000	49.000000	-5.000000	-29.000000
1.440000	63.490000	28.830000	0.000000	0.000000	126.000000	49.000000	0.000000	-16.000000
1.450000	63.490000	28.740000	0.000000	0.000000	126.000000	49.000000	0.000000	-9.000000
1.460000	63.590000	28.690000	0.000000	0.000000	125.000000	50.000000	10.000000	-5.000000
1.470000	63.660000	28.690000	0.000000	0.000000	125.000000	50.000000	7.000000	0.000000
1.480000	63.720000	28.760000	0.000000	0.000000	125.000000	50.000000	6.000000	7.000000
1.490000	63.790000	28.850000	0.000000	0.000000	125.000000	50.000000	7.000000	9.000000
1.500000	63.870000	28.970000	0.000000	0.000000	125.000000	50.000000	8.000000	12.000000
1.510000	63.980000	29.120000	0.000000	0.000000	125.000000	50.000000	11.000000	15.000000
1.520000	64.100000	29.280000	0.000000	0.000000	125.000000	50.000000	12.000000	16.000000
1.530000	64.200000	29.430000	0.000000	0.000000	125.000000	50.000000	10.000000	15.000000
1.540000	64.200000	29.430000	0.000000	0.000000	125.000000	50.000000	0.000000	0.000000
1.550000	64.140000	29.320000	0.000000	0.000000	125.000000	50.000000	-6.000000	-11.000000
1.560000	64.040000	29.200000	0.000000	0.000000	126.000000	49.000000	-10.000000	-12.000000
1.570000	63.940000	29.070000	0.000000	0.000000	126.000000	49.000000	-10.000000	-13.000000
1.580000	63.840000	28.900000	0.000000	0.000000	126.000000	49.000000	-10.000000	-17.000000
1.590000	63.730000	28.720000	0.000000	0.000000	127.000000	50.000000	-11.000000	-18.000000
1.600000	63.630000	28.550000	0.000000	0.000000	127.000000	50.000000	-10.000000	-17.000000
1.610000	63.560000	28.430000	0.000000	0.000000	127.000000	50.000000	-7.000000	-12.000000
1.620000	63.500000	28.350000	0.000000	0.000000	127.000000	50.000000	-6.000000	-8.000000
1.630000	63.430000	28.300000	0.000000	0.000000	127.000000	51.000000	-7.000000	-5.000000
1.640000	63.370000	28.300000	0.000000	0.000000	127.000000	51.000000	-6.000000	0.000000
1.650000	63.310000	28.220000	0.000000	0.000000	127.000000	51.000000	-6.000000	-8.000000
1.660000	63.260000	28.060000	0.000000	0.000000	127.000000	51.000000	-5.000000	-16.000000
1.670000	63.170000	27.900000	0.000000	0.000000	126.000000	51.000000	-9.000000	-16.000000
1.680000	63.040000	27.730000	0.000000	0.000000	126.000000	51.000000	-13.000000	-17.000000
1.690000	62.880000	27.560000	0.000000	0.000000	125.000000	51.000000	-16.000000	-17.000000
1.700000	62.770000	27.450000	0.000000	0.000000	123.000000	51.000000	-11.000000	-11.000000
1.710000	62.620000	27.380000	0.000000	0.000000	123.000000	51.000000	-15.000000	-7.000000
1.720000	62.490000	27.380000	0.000000	0.000000	123.000000	51.000000	-13.000000	0.000000
1.730000	62.390000	27.380000	0.000000	0.000000	123.000000	51.000000	-10.000000	0.000000
1.740000	62.320000	27.280000	0.000000	0.000000	122.000000	51.000000	-7.000000	-10.000000
1.750000	62.260000	27.180000	0.000000	0.000000	122.000000	51.000000	-6.000000	-10.000000
1.760000	62.200000	27.110000	0.000000	0.000000	122.000000	51.000000	-6.000000	-7.000000
1.770000	62.110000	27.110000	0.000000	0.000000	122.000000	51.000000	-9.000000	0.000000
1.780000	61.990000	27.020000	0.000000	0.000000	121.000000	51.000000	-12.000000	-9.000000
1.790000	61.870000	26.950000	0.000000	0.000000	121.000000	51.000000	-12.000000	-7.000000
1.800000	61.740000	26.870000	0.000000	0.000000	121.000000	51.000000	-13.000000	-8.000000
1.810000	61.610000	26.800000	0.000000	0.000000	121.000000	51.000000	-13.000000	-7.000000
1.820000	61.480000	26.750000	0.000000	0.000000	121.000000	51.000000	-13.000000	-5.000000
1.830000	61.350000	26.750000	0.000000	0.000000	120.000000	51.000000	-13.000000	0.000000
1.840000	61.220000	26.680000	0.000000	0.000000	120.000000	51.000000	-13.000000	-7.000000
1.850000	61.110000	26.680000	0.000000	0.000000	120.000000	51.000000	-11.000000	0.000000
1.860000	61.010000	26.620000	0.000000	0.000000	120.000000	51.000000	-10.000000	-6.000000
1.870000	60.930000	26.620000	0.000000	0.000000	120.000000	51.000000	-8.000000	0.000000
1.880000	60.850000	26.560000	0.000000	0.000000	120.000000	51.000000	-8.000000	-6.000000
1.890000	60.800000	26.510000	0.000000	0.000000	120.000000	51.000000	-5.000000	-5.000000
1.900000	60.740000	26.460000	0.000000	0.000000	120.000000	51.000000	-6.000000	-5.000000
1.910000	60.740000	26.460000	20.000000	1.000000	120.000000	51.000000	0.000000	0.000000
1.920000	60.740000	26.460000	101.000000	0.000000	120.000000	51.000000	0.000000	0.000000
1.930000	60.740000	26.460000	170.000000	0.000000	120.000000	51.000000	0.000000	0.000000
1.940000	60.740000	26.460000	207.000000	0.000000	120.000000	51.000000	0.000000	0.000000
1.950000	60.740000	26.460000	249.000000	0.000000	120.000000	51.000000	0.000000	0.000000
1.960000	61.080000	26.700000	309.000000	0.000000	120.000000	51.000000	34.000000	24.000000
1.970000	61.280000	26.890000	330.000000	0.000000	120.000000	51.000000	20.000000	19.000000
1.980000	61.520000	27.150000	349.000000	0.000000	120.000000	51.000000	24.000000	26.000000
1.990000	61.810000	27.550000	413.000000	0.000000	120.000000	51.000000	29.000000	40.000000
2.000000	62.180000	27.950000	446.000000	0.000000	121.000000	51.000000	37.000000	40.000000
2.010000	62.610000	28.410000	473.000000	0.000000	121.000000	51.000000	43.000000	46.000000
2.020000	62.970000	28.920000	489.000000	0.000000	122.000000	50.000000	36.000000	51.000000
2.030000	63.290000	29.410000	522.000000	0.000000	123.000000	51.000000	32.000000	49.000000
2.040000	63.620000	29.900000	538.000000	0.000000	125.000000	51.000000	33.000000	49.000000
2.050000	63.840000	30.360000	554.000000	0.000000	126.000000	50.000000	22.000000	46.000000
2.060000	63.990000	30.910000	564.000000	0.000000	126.000000	50.000000	15.000000	55.000000
2.070000	64.170000	31.530000	563.000000	0.000000	126.000000	50.000000	18.000000	62.000000
2.080000	64.310000	32.050000	566.000000	0.000000	128.000000	50.000000	14.000000	52.000000
2.090000	64.420000	32.560000	566.000000	0.000000	128.000000	50.000000	11.000000	51.000000
2.100000	64.560000	33.060000	567.000000	0.000000	128.000000	50.000000	14.000000	50.000000
2.110000	64.670000	33.550000	560.000000	0.000000	128.000000	50.000000	11.000000	49.000000
2.120000	64.730000	33.870000	560.000000	0.000000	129.000000	50.000000	6.000000	32.000000
2.130000	64.730000	34.080000	566.000000	0.000000	129.000000	50.000000	0.000000	21.000000
2.140000	64.780000	34.380000	566.000000	0.000000	129.000000	50.000000	5.000000	30.000000
2.150000	64.780000	34.590000	563.000000	0.000000	128.000000	50.000000	0.000000	21.000000
2.160000	64.730000	34.730000	560.000000	0.000000	128.000000	50.000000	-5.000000	14.000000
2.170000	64.730000	34.890000	564.000000	0.000000	127.000000	50.000000	0.000000	16.000000
2.180000	64.660000	35.060000	565.000000	0.000000	127.000000	50.000000	-7.000000	17.000000
2.190000	64.660000	35.210000	564.000000	0.000000	128.000000	49.000000	0.000000	15.000000
2.200000	64.660000	35.310000	565.000000	0.000000	128.000000	49.000000	0.000000	10.000000
2.210000	64.660000	35.400000	562.000000	0.000000	128.000000	49.000000	0.000000	9.000000
2.220000	64.590000	35.400000	564.000000	0.000000	128.000000	49.000000	-7.000000	0.000000
