t	x	y	pressure	penup	azimuth	inclination	v_x	v_y
0.000000	53.220000	27.580000	132.000000	1.000000	130.000000	65.000000	0.000000	0.000000
0.010000	53.220000	27.580000	203.000000	0.000000	132.000000	65.000000	0.000000	0.000000
0.020000	53.220000	27.580000	309.000000	0.000000	132.000000	65.000000	0.000000	0.000000
0.030000	53.220000	27.580000	417.000000	0.000000	133.000000	65.000000	0.000000	0.000000
0.040000	53.220000	27.580000	488.000000	0.000000	133.000000	65.000000	0.000000	0.000000
0.050000	53.220000	27.580000	536.000000	0.000000	133.000000	65.000000	0.000000	0.000000
0.060000	53.220000	27.580000	581.000000	0.000000	135.000000	65.000000	0.000000	0.000000
0.070000	53.220000	27.580000	617.000000	0.000000	135.000000	65.000000	0.000000	0.000000
0.080000	53.220000	27.580000	636.000000	0.000000	135.000000	65.000000	0.000000	0.000000
0.090000	53.220000	27.580000	673.000000	0.000000	135.000000	65.000000	0.000000	0.000000
0.100000	53.220000	27.580000	702.000000	0.000000	135.000000	65.000000	0.000000	0.000000
0.110000	53.220000	27.580000	720.000000	0.000000	135.000000	65.000000	0.000000	0.000000
0.120000	53.220000	27.580000	749.000000	0.000000	135.000000	65.000000	0.000000	0.000000
0.130000	53.220000	27.580000	763.000000	0.000000	135.000000	65.000000	0.000000	0.000000
0.140000	53.430000	27.920000	788.000000	0.000000	137.000000	65.000000	21.000000	34.000000
0.150000	53.650000	28.150000	799.000000	0.000000	137.000000	65.000000	22.000000	23.000000
0.160000	53.800000	28.360000	817.000000	0.000000	138.000000	65.000000	15.000000	21.000000
0.170000	53.890000	28.590000	842.000000	0.000000	138.000000	65.000000	9.000000	23.000000
0.180000	54.040000	28.840000	861.000000	0.000000	138.000000	65.000000	15.000000	25.000000
0.190000	54.190000	29.170000	855.000000	0.000000	140.000000	65.000000	15.000000	33.000000
0.200000	54.350000	29.610000	863.000000	0.000000	140.000000	65.000000	16.000000	44.000000
0.210000	54.540000	30.120000	872.000000	0.000000	143.000000	64.000000	19.000000	51.000000
0.220000	54.710000	30.790000	873.000000	0.000000	143.000000	64.000000	17.000000	67.000000
0.230000	54.880000	31.380000	884.000000	0.000000	145.000000	64.000000	17.000000	59.000000
0.240000	55.090000	31.910000	888.000000	0.000000	145.000000	64.000000	21.000000	53.000000
0.250000	55.190000	32.450000	891.000000	0.000000	148.000000	63.000000	10.000000	54.000000
0.260000	55.190000	32.980000	905.000000	0.000000	148.000000	63.000000	0.000000	53.000000
0.270000	55.250000	33.460000	899.000000	0.000000	148.000000	63.000000	6.000000	48.000000
0.280000	55.250000	33.760000	905.000000	0.000000	149.000000	63.000000	0.000000	30.000000
0.290000	55.180000	33.970000	912.000000	0.000000	149.000000	63.000000	-7.000000	21.000000
0.300000	55.180000	34.230000	918.000000	0.000000	149.000000	63.000000	0.000000	26.000000
0.310000	55.180000	34.430000	921.000000	0.000000	149.000000	63.000000	0.000000	20.000000
0.320000	55.180000	34.480000	923.000000	0.000000	151.000000	63.000000	0.000000	5.000000
0.330000	55.180000	34.480000	921.000000	0.000000	151.000000	63.000000	0.000000	0.000000
0.340000	55.180000	34.480000	917.000000	0.000000	151.000000	63.000000	0.000000	0.000000
0.350000	55.180000	34.480000	915.000000	0.000000	151.000000	63.000000	0.000000	0.000000
0.360000	55.180000	34.420000	909.000000	0.000000	151.000000	63.000000	0.000000	-6.000000
0.370000	55.180000	34.420000	905.000000	0.000000	151.000000	63.000000	0.000000	0.000000
0.380000	55.180000	34.340000	903.000000	0.000000	151.000000	63.000000	0.000000	-8.000000
0.390000	55.180000	34.210000	899.000000	0.000000	151.000000	63.000000	0.000000	-13.000000
0.400000	55.130000	33.950000	905.000000	0.000000	151.000000	63.000000	-5.000000	-26.000000
0.410000	55.130000	33.590000	905.000000	0.000000	151.000000	63.000000	0.000000	-36.000000
0.420000	55.190000	33.170000	903.000000	0.000000	151.000000	63.000000	6.000000	-42.000000
0.430000	55.190000	32.670000	903.000000	0.000000	151.000000	63.000000	0.000000	-50.000000
0.440000	55.080000	32.110000	899.000000	0.000000	151.000000	63.000000	-11.000000	-56.000000
0.450000	55.020000	31.620000	899.000000	0.000000	151.000000	63.000000	-6.000000	-49.000000
0.460000	54.970000	31.180000	897.000000	0.000000	152.000000	62.000000	-5.000000	-44.000000
0.470000	54.970000	30.770000	900.000000	0.000000	152.000000	62.000000	0.000000	-41.000000
0.480000	54.970000	30.350000	902.000000	0.000000	152.000000	62.000000	0.000000	-42.000000
0.490000	54.970000	29.910000	899.000000	0.000000	151.000000	63.000000	0.000000	-44.000000
0.500000	54.970000	29.450000	902.000000	0.000000	151.000000	63.000000	0.000000	-46.000000
0.510000	54.970000	29.060000	900.000000	0.000000	151.000000	63.000000	0.000000	-39.000000
0.520000	55.060000	28.720000	903.000000	0.000000	150.000000	64.000000	9.000000	-34.000000
0.530000	55.060000	28.330000	903.000000	0.000000	150.000000	64.000000	0.000000	-39.000000
0.540000	55.060000	28.050000	903.000000	0.000000	148.000000	63.000000	0.000000	-28.000000
0.550000	55.130000	27.840000	903.000000	0.000000	146.000000	64.000000	7.000000	-21.000000
0.560000	55.190000	27.660000	902.000000	0.000000	146.000000	64.000000	6.000000	-18.000000
0.570000	55.190000	27.500000	903.000000	0.000000	145.000000	65.000000	0.000000	-16.000000
0.580000	55.240000	27.360000	908.000000	0.000000	145.000000	65.000000	5.000000	-14.000000
0.590000	55.240000	27.220000	903.000000	0.000000	144.000000	66.000000	0.000000	-14.000000
0.600000	55.290000	27.150000	906.000000	0.000000	146.000000	66.000000	5.000000	-7.000000
0.610000	55.290000	27.150000	903.000000	0.000000	146.000000	66.000000	0.000000	0.000000
0.620000	55.290000	27.050000	905.000000	0.000000	144.000000	67.000000	0.000000	-10.000000
0.630000	55.290000	27.000000	902.000000	0.000000	144.000000	67.000000	0.000000	-5.000000
0.640000	55.290000	27.000000	899.000000	0.000000	144.000000	67.000000	0.000000	0.000000
0.650000	55.290000	27.000000	897.000000	0.000000	144.000000	67.000000	0.000000	0.000000
0.660000	55.240000	26.940000	900.000000	0.000000	144.000000	67.000000	-5.000000	-6.000000
0.670000	55.240000	26.940000	903.000000	0.000000	144.000000	67.000000	0.000000	0.000000
0.680000	55.240000	26.940000	903.000000	0.000000	144.000000	67.000000	0.000000	0.000000
0.690000	55.240000	26.940000	905.000000	0.000000	144.000000	67.000000	0.000000	0.000000
0.700000	55.240000	27.030000	905.000000	0.000000	144.000000	67.000000	0.000000	9.000000
0.710000	55.240000	27.120000	897.000000	0.000000	142.000000	66.000000	0.000000	9.000000
0.720000	55.240000	27.380000	894.000000	0.000000	142.000000	66.000000	0.000000	26.000000
0.730000	55.180000	27.680000	906.000000	0.000000	142.000000	66.000000	-6.000000	30.000000
0.740000	55.090000	28.020000	896.000000	0.000000	142.000000	66.000000	-9.000000	34.000000
0.750000	54.960000	28.400000	897.000000	0.000000	142.000000	66.000000	-13.000000	38.000000
0.760000	54.860000	28.680000	894.000000	0.000000	144.000000	66.000000	-10.000000	28.000000
0.770000	54.720000	29.070000	890.000000	0.000000	144.000000	66.000000	-14.000000	39.000000
0.780000	54.500000	29.570000	888.000000	0.000000	145.000000	65.000000	-22.000000	50.000000
0.790000	54.250000	29.980000	891.000000	0.000000	146.000000	64.000000	-25.000000	41.000000
0.800000	54.090000	30.350000	890.000000	0.000000	146.000000	64.000000	-16.000000	37.000000
0.810000	53.930000	30.660000	896.000000	0.000000	148.000000	63.000000	-16.000000	31.000000
0.820000	53.760000	30.940000	894.000000	0.000000	148.000000	63.000000	-17.000000	28.000000
0.830000	53.620000	31.210000	894.000000	0.000000	148.000000	63.000000	-14.000000	27.000000
0.840000	53.500000	31.470000	894.000000	0.000000	149.000000	63.000000	-12.000000	26.000000
0.850000	53.410000	31.720000	896.000000	0.000000	149.000000	63.000000	-9.000000	25.000000
0.860000	53.330000	31.840000	896.000000	0.000000	149.000000	63.000000	-8.000000	12.000000
0.870000	53.230000	31.960000	900.000000	0.000000	149.000000	63.000000	-10.000000	12.000000
0.880000	53.130000	32.040000	905.000000	0.000000	150.000000	62.000000	-10.000000	8.000000
0.890000	53.130000	32.040000	905.000000	0.000000	150.000000	62.000000	0.000000	0.000000
0.900000	53.130000	32.040000	902.000000	0.000000	150.000000	62.000000	0.000000	0.000000
0.910000	53.130000	32.040000	903.000000	0.000000	150.000000	62.000000	0.000000	0.000000
0.920000	53.130000	32.040000	900.000000	0.000000	150.000000	62.000000	0.000000	0.000000
0.930000	53.130000	32.040000	900.000000	0.000000	150.000000	62.000000	0.000000	0.000000
0.940000	53.130000	32.040000	900.000000	0.000000	150.000000	62.000000	0.000000	0.000000
0.950000	53.130000	32.040000	899.000000	0.000000	150.000000	62.000000	0.000000	0.000000
0.960000	53.130000	32.040000	897.000000	0.000000	150.000000	62.000000	0.000000	0.000000
0.970000	53.130000	32.040000	891.000000	0.000000	150.000000	62.000000	0.000000	0.000000
0.980000	53.190000	32.040000	891.000000	0.000000	150.000000	62.000000	6.000000	0.000000
0.990000	53.190000	31.970000	894.000000	0.000000	150.000000	62.000000	0.000000	-7.000000
1.000000	53.400000	31.910000	896.000000	0.000000	150.000000	62.000000	21.000000	-6.000000
1.010000	53.650000	31.910000	897.000000	0.000000	150.000000	62.000000	25.000000	0.000000
1.020000	53.960000	31.850000	897.000000	0.000000	150.000000	62.000000	31.000000	-6.000000
1.030000	54.240000	31.850000	897.000000	0.000000	150.000000	62.000000	28.000000	0.000000
1.040000	54.520000	31.850000	900.000000	0.000000	152.000000	62.000000	28.000000	0.000000
1.050000	54.840000	31.800000	900.000000	0.000000	152.000000	62.000000	32.000000	-5.000000
1.060000	55.170000	31.800000	902.000000	0.000000	152.000000	62.000000	33.000000	0.000000
1.070000	55.480000	31.800000	900.000000	0.000000	152.000000	62.000000	31.000000	0.000000
1.080000	55.790000	31.800000	900.000000	0.000000	152.000000	62.000000	31.000000	0.000000
1.090000	56.140000	31.800000	899.000000	0.000000	154.000000	63.000000	35.000000	0.000000
1.100000	56.530000	31.740000	902.000000	0.000000	154.000000	63.000000	39.000000	-6.000000
1.110000	56.970000	31.740000	899.000000	0.000000	155.000000	62.000000	44.000000	0.000000
1.120000	57.410000	31.740000	900.000000	0.000000	156.000000	62.000000	44.000000	0.000000
1.130000	57.890000	31.740000	900.000000	0.000000	156.000000	62.000000	48.000000	0.000000
1.140000	58.450000	31.740000	899.000000	0.000000	156.000000	62.000000	56.000000	0.000000
1.150000	59.000000	31.740000	899.000000	0.000000	156.000000	62.000000	55.000000	0.000000
1.160000	59.520000	31.740000	900.000000	0.000000	155.000000	62.000000	52.000000	0.000000
1.170000	60.080000	31.740000	899.000000	0.000000	155.000000	62.000000	56.000000	0.000000
1.180000	60.670000	31.740000	900.000000	0.000000	155.000000	62.000000	59.000000	0.000000
1.190000	61.250000	31.740000	899.000000	0.000000	155.000000	62.000000	58.000000	0.000000
1.200000	61.830000	31.800000	899.000000	0.000000	153.000000	61.000000	58.000000	6.000000
1.210000	62.510000	31.870000	897.000000	0.000000	153.000000	61.000000	68.000000	7.000000
1.220000	63.130000	31.870000	897.000000	0.000000	155.000000	62.000000	62.000000	0.000000
1.230000	63.700000	31.870000	894.000000	0.000000	155.000000	62.000000	57.000000	0.000000
1.240000	64.310000	31.870000	896.000000	0.000000	155.000000	62.000000	61.000000	0.000000
1.250000	64.860000	31.920000	896.000000	0.000000	156.000000	62.000000	55.000000	5.000000
1.260000	65.380000	31.920000	897.000000	0.000000	158.000000	62.000000	52.000000	0.000000
1.270000	65.940000	31.920000	896.000000	0.000000	158.000000	62.000000	56.000000	0.000000
1.280000	66.440000	31.920000	894.000000	0.000000	160.000000	63.000000	50.000000	0.000000
1.290000	66.880000	31.920000	894.000000	0.000000	161.000000	62.000000	44.000000	0.000000
1.300000	67.290000	31.920000	891.000000	0.000000	163.000000	62.000000	41.000000	0.000000
1.310000	67.680000	31.970000	890.000000	0.000000	163.000000	62.000000	39.000000	5.000000
1.320000	68.040000	31.970000	891.000000	0.000000	163.000000	62.000000	36.000000	0.000000
1.330000	68.390000	31.970000	891.000000	0.000000	163.000000	62.000000	35.000000	0.000000
1.340000	68.820000	31.970000	891.000000	0.000000	163.000000	62.000000	43.000000	0.000000
1.350000	69.160000	31.970000	893.000000	0.000000	163.000000	62.000000	34.000000	0.000000
1.360000	69.430000	31.970000	896.000000	0.000000	163.000000	62.000000	27.000000	0.000000
1.370000	69.660000	31.970000	890.000000	0.000000	163.000000	62.000000	23.000000	0.000000
1.380000	69.890000	31.970000	891.000000	0.000000	163.000000	62.000000	23.000000	0.000000
1.390000	70.020000	31.970000	890.000000	0.000000	163.000000	61.000000	13.000000	0.000000
1.400000	70.080000	31.970000	891.000000	0.000000	162.000000	61.000000	6.000000	0.000000
1.410000	70.080000	31.970000	890.000000	0.000000	162.000000	61.000000	0.000000	0.000000
1.420000	70.080000	31.970000	890.000000	0.000000	162.000000	61.000000	0.000000	0.000000
1.430000	70.080000	31.970000	887.000000	0.000000	162.000000	61.000000	0.000000	0.000000
1.440000	70.030000	31.970000	881.000000	0.000000	162.000000	61.000000	-5.000000	0.000000
1.450000	70.030000	31.970000	873.000000	0.000000	162.000000	61.000000	0.000000	0.000000
1.460000	69.890000	31.970000	873.000000	0.000000	162.000000	61.000000	-14.000000	0.000000
1.470000	69.720000	31.970000	867.000000	0.000000	162.000000	61.000000	-17.000000	0.000000
1.480000	69.510000	31.900000	869.000000	0.000000	162.000000	61.000000	-21.000000	-7.000000
1.490000	69.320000	31.900000	866.000000	0.000000	162.000000	61.000000	-19.000000	0.000000
1.500000	69.190000	31.900000	861.000000	0.000000	160.000000	60.000000	-13.000000	0.000000
1.510000	68.860000	31.900000	863.000000	0.000000	159.000000	61.000000	-33.000000	0.000000
1.520000	68.380000	31.900000	861.000000	0.000000	159.000000	61.000000	-48.000000	0.000000
1.530000	67.970000	31.850000	860.000000	0.000000	159.000000	61.000000	-41.000000	-5.000000
1.540000	67.440000	31.850000	855.000000	0.000000	161.000000	62.000000	-53.000000	0.000000
1.550000	66.830000	31.850000	846.000000	0.000000	161.000000	62.000000	-61.000000	0.000000
1.560000	66.220000	31.740000	855.000000	0.000000	161.000000	62.000000	-61.000000	-11.000000
1.570000	65.540000	31.640000	846.000000	0.000000	161.000000	62.000000	-68.000000	-10.000000
1.580000	64.800000	31.540000	849.000000	0.000000	161.000000	62.000000	-74.000000	-10.000000
1.590000	64.160000	31.440000	851.000000	0.000000	161.000000	62.000000	-64.000000	-10.000000
1.600000	63.440000	31.320000	845.000000	0.000000	161.000000	62.000000	-72.000000	-12.000000
1.610000	62.670000	31.210000	843.000000	0.000000	159.000000	61.000000	-77.000000	-11.000000
1.620000	61.950000	31.100000	840.000000	0.000000	159.000000	61.000000	-72.000000	-11.000000
1.630000	61.210000	30.970000	837.000000	0.000000	157.000000	61.000000	-74.000000	-13.000000
1.640000	60.440000	30.860000	834.000000	0.000000	155.000000	62.000000	-77.000000	-11.000000
1.650000	59.700000	30.740000	830.000000	0.000000	153.000000	61.000000	-74.000000	-12.000000
1.660000	58.970000	30.630000	827.000000	0.000000	153.000000	61.000000	-73.000000	-11.000000
1.670000	58.240000	30.520000	828.000000	0.000000	150.000000	62.000000	-73.000000	-11.000000
1.680000	57.480000	30.390000	822.000000	0.000000	150.000000	62.000000	-76.000000	-13.000000
1.690000	56.900000	30.300000	824.000000	0.000000	148.000000	61.000000	-58.000000	-9.000000
1.700000	56.440000	30.250000	822.000000	0.000000	148.000000	61.000000	-46.000000	-5.000000
1.710000	55.950000	30.130000	821.000000	0.000000	148.000000	61.000000	-49.000000	-12.000000
1.720000	55.460000	30.010000	818.000000	0.000000	147.000000	62.000000	-49.000000	-12.000000
1.730000	54.970000	29.890000	829.000000	0.000000	147.000000	62.000000	-49.000000	-12.000000
1.740000	54.470000	29.760000	817.000000	0.000000	149.000000	63.000000	-50.000000	-13.000000
1.750000	53.980000	29.660000	818.000000	0.000000	149.000000	63.000000	-49.000000	-10.000000
1.760000	53.710000	29.580000	817.000000	0.000000	149.000000	63.000000	-27.000000	-8.000000
1.770000	53.480000	29.520000	832.000000	0.000000	149.000000	63.000000	-23.000000	-6.000000
1.780000	53.290000	29.460000	832.000000	0.000000	147.000000	62.000000	-19.000000	-6.000000
1.790000	53.110000	29.400000	818.000000	0.000000	147.000000	62.000000	-18.000000	-6.000000
1.800000	52.980000	29.400000	819.000000	0.000000	147.000000	62.000000	-13.000000	0.000000
1.810000	52.920000	29.350000	819.000000	0.000000	147.000000	62.000000	-6.000000	-5.000000
1.820000	52.920000	29.350000	818.000000	0.000000	147.000000	62.000000	0.000000	0.000000
1.830000	52.920000	29.300000	832.000000	0.000000	146.000000	62.000000	0.000000	-5.000000
1.840000	52.920000	29.300000	830.000000	0.000000	146.000000	62.000000	0.000000	0.000000
1.850000	52.920000	29.300000	832.000000	0.000000	146.000000	62.000000	0.000000	0.000000
1.860000	52.970000	29.300000	830.000000	0.000000	146.000000	62.000000	5.000000	0.000000
1.870000	52.970000	29.300000	830.000000	0.000000	146.000000	62.000000	0.000000	0.000000
1.880000	53.040000	29.300000	818.000000	0.000000	147.000000	62.000000	7.000000	0.000000
1.890000	53.240000	29.300000	824.000000	0.000000	147.000000	62.000000	20.000000	0.000000
1.900000	53.490000	29.300000	833.000000	0.000000	147.000000	62.000000	25.000000	0.000000
1.910000	53.830000	29.300000	837.000000	0.000000	147.000000	62.000000	34.000000	0.000000
1.920000	54.210000	29.300000	845.000000	0.000000	147.000000	62.000000	38.000000	0.000000
1.930000	54.630000	29.300000	851.000000	0.000000	147.000000	62.000000	42.000000	0.000000
1.940000	55.060000	29.300000	851.000000	0.000000	149.000000	63.000000	43.000000	0.000000
1.950000	55.550000	29.300000	860.000000	0.000000	149.000000	63.000000	49.000000	0.000000
1.960000	56.050000	29.300000	863.000000	0.000000	149.000000	63.000000	50.000000	0.000000
1.970000	56.570000	29.300000	864.000000	0.000000	149.000000	63.000000	52.000000	0.000000
1.980000	57.120000	29.300000	864.000000	0.000000	151.000000	63.000000	55.000000	0.000000
1.990000	57.660000	29.300000	869.000000	0.000000	151.000000	63.000000	54.000000	0.000000
2.000000	58.200000	29.350000	853.000000	0.000000	151.000000	63.000000	54.000000	5.000000
2.010000	58.810000	29.350000	854.000000	0.000000	151.000000	63.000000	61.000000	0.000000
2.020000	59.420000	29.430000	854.000000	0.000000	151.000000	63.000000	61.000000	8.000000
2.030000	60.030000	29.430000	855.000000	0.000000	151.000000	63.000000	61.000000	0.000000
2.040000	60.680000	29.430000	854.000000	0.000000	149.000000	63.000000	65.000000	0.000000
2.050000	61.260000	29.430000	855.000000	0.000000	149.000000	63.000000	58.000000	0.000000
2.060000	61.800000	29.490000	855.000000	0.000000	150.000000	62.000000	54.000000	6.000000
2.070000	62.320000	29.490000	857.000000	0.000000	150.000000	62.000000	52.000000	0.000000
2.080000	62.840000	29.490000	855.000000	0.000000	150.000000	62.000000	52.000000	0.000000
2.090000	63.350000	29.490000	857.000000	0.000000	150.000000	62.000000	51.000000	0.000000
2.100000	63.890000	29.490000	855.000000	0.000000	152.000000	62.000000	54.000000	0.000000
2.110000	64.420000	29.490000	860.000000	0.000000	154.000000	63.000000	53.000000	0.000000
2.120000	64.930000	29.550000	858.000000	0.000000	154.000000	63.000000	51.000000	6.000000
2.130000	65.360000	29.550000	858.000000	0.000000	155.000000	63.000000	43.000000	0.000000
2.140000	65.680000	29.550000	861.000000	0.000000	155.000000	63.000000	32.000000	0.000000
2.150000	65.930000	29.550000	861.000000	0.000000	157.000000	63.000000	25.000000	0.000000
2.160000	66.270000	29.550000	858.000000	0.000000	157.000000	63.000000	34.000000	0.000000
2.170000	66.610000	29.500000	861.000000	0.000000	157.000000	63.000000	34.000000	-5.000000
2.180000	66.950000	29.500000	858.000000	0.000000	157.000000	63.000000	34.000000	0.000000
2.190000	67.200000	29.500000	861.000000	0.000000	159.000000	64.000000	25.000000	0.000000
2.200000	67.400000	29.500000	861.000000	0.000000	159.000000	64.000000	20.000000	0.000000
2.210000	67.490000	29.450000	860.000000	0.000000	159.000000	64.000000	9.000000	-5.000000
2.220000	67.590000	29.450000	861.000000	0.000000	159.000000	64.000000	10.000000	0.000000
