t	x	y	pressure	penup	azimuth	inclination	v_x	v_y
0.000000	14.810000	77.110000	209.000000	1.000000	119.000000	53.000000	0.000000	0.000000
0.010000	14.580000	76.750000	257.000000	0.000000	120.000000	55.000000	-23.000000	-36.000000
0.020000	14.520000	76.750000	398.000000	0.000000	119.000000	56.000000	-6.000000	0.000000
0.030000	14.520000	76.750000	472.000000	0.000000	116.000000	57.000000	0.000000	0.000000
0.040000	14.520000	76.750000	538.000000	0.000000	114.000000	57.000000	0.000000	0.000000
0.050000	14.520000	76.750000	584.000000	0.000000	112.000000	56.000000	0.000000	0.000000
0.060000	15.100000	77.700000	644.000000	0.000000	111.000000	55.000000	58.000000	95.000000
0.070000	15.810000	78.780000	722.000000	0.000000	111.000000	55.000000	71.000000	108.000000
0.080000	16.850000	80.370000	783.000000	0.000000	112.000000	54.000000	104.000000	159.000000
0.090000	17.800000	81.920000	834.000000	0.000000	113.000000	54.000000	95.000000	155.000000
0.100000	18.700000	83.190000	887.000000	0.000000	113.000000	54.000000	90.000000	127.000000
0.110000	19.320000	84.290000	945.000000	0.000000	115.000000	54.000000	62.000000	110.000000
0.120000	19.570000	84.770000	980.000000	0.000000	117.000000	54.000000	25.000000	48.000000
0.130000	19.570000	84.830000	982.000000	0.000000	117.000000	54.000000	0.000000	6.000000
0.140000	19.510000	84.600000	1017.000000	0.000000	118.000000	54.000000	-6.000000	-23.000000
0.150000	19.400000	83.760000	1023.000000	0.000000	120.000000	54.000000	-11.000000	-84.000000
0.160000	19.250000	82.250000	1023.000000	0.000000	120.000000	54.000000	-15.000000	-151.000000
0.170000	19.070000	80.290000	1023.000000	0.000000	120.000000	54.000000	-18.000000	-196.000000
0.180000	18.940000	78.020000	1023.000000	0.000000	122.000000	54.000000	-13.000000	-227.000000
0.190000	19.120000	76.240000	1023.000000	0.000000	122.000000	54.000000	18.000000	-178.000000
0.200000	19.480000	74.780000	1023.000000	0.000000	121.000000	53.000000	36.000000	-146.000000
0.210000	19.980000	73.680000	1023.000000	0.000000	121.000000	53.000000	50.000000	-110.000000
0.220000	20.400000	73.130000	1023.000000	0.000000	121.000000	53.000000	42.000000	-55.000000
0.230000	20.500000	72.940000	1023.000000	0.000000	118.000000	53.000000	10.000000	-19.000000
0.240000	20.400000	73.000000	1023.000000	0.000000	118.000000	53.000000	-10.000000	6.000000
0.250000	20.070000	73.450000	1023.000000	0.000000	118.000000	53.000000	-33.000000	45.000000
0.260000	19.100000	74.150000	1023.000000	0.000000	117.000000	53.000000	-97.000000	70.000000
0.270000	17.700000	75.030000	1023.000000	0.000000	117.000000	53.000000	-140.000000	88.000000
0.280000	15.550000	75.480000	1023.000000	0.000000	117.000000	53.000000	-215.000000	45.000000
0.290000	13.270000	75.650000	1023.000000	0.000000	117.000000	53.000000	-228.000000	17.000000
0.300000	10.910000	75.100000	1023.000000	0.000000	117.000000	53.000000	-236.000000	-55.000000
0.310000	8.320000	74.600000	1023.000000	0.000000	117.000000	53.000000	-259.000000	-50.000000
0.320000	6.770000	74.140000	1023.000000	0.000000	117.000000	53.000000	-155.000000	-46.000000
0.330000	5.920000	74.010000	1023.000000	0.000000	117.000000	53.000000	-85.000000	-13.000000
0.340000	6.000000	74.200000	1023.000000	0.000000	117.000000	53.000000	8.000000	19.000000
0.350000	7.470000	74.600000	1023.000000	0.000000	117.000000	53.000000	147.000000	40.000000
0.360000	9.870000	75.930000	1023.000000	0.000000	117.000000	53.000000	240.000000	133.000000
0.370000	13.910000	77.640000	1023.000000	0.000000	118.000000	54.000000	404.000000	171.000000
0.380000	19.120000	79.600000	1023.000000	0.000000	119.000000	53.000000	521.000000	196.000000
0.390000	25.120000	81.570000	1023.000000	0.000000	121.000000	53.000000	600.000000	197.000000
0.400000	30.510000	83.130000	1023.000000	0.000000	123.000000	53.000000	539.000000	156.000000
0.410000	34.520000	84.420000	1023.000000	0.000000	124.000000	53.000000	401.000000	129.000000
0.420000	37.600000	85.440000	1023.000000	0.000000	125.000000	53.000000	308.000000	102.000000
0.430000	38.880000	86.020000	1023.000000	0.000000	128.000000	53.000000	128.000000	58.000000
0.440000	39.260000	86.310000	1023.000000	0.000000	128.000000	53.000000	38.000000	29.000000
0.450000	39.040000	86.600000	935.000000	0.000000	128.000000	53.000000	-22.000000	29.000000
0.460000	38.560000	86.850000	739.000000	0.000000	128.000000	53.000000	-48.000000	25.000000
0.470000	37.430000	86.660000	132.000000	0.000000	128.000000	53.000000	-113.000000	-19.000000
0.480000	37.430000	86.660000	0.000000	1.000000	128.000000	53.000000	0.000000	0.000000
0.490000	34.170000	85.510000	0.000000	0.000000	127.000000	53.000000	-326.000000	-115.000000
0.500000	32.480000	84.770000	0.000000	0.000000	127.000000	53.000000	-169.000000	-74.000000
0.510000	31.170000	84.040000	0.000000	0.000000	127.000000	53.000000	-131.000000	-73.000000
0.520000	30.100000	83.330000	0.000000	0.000000	127.000000	53.000000	-107.000000	-71.000000
0.530000	29.170000	82.630000	0.000000	0.000000	128.000000	53.000000	-93.000000	-70.000000
0.540000	28.260000	81.880000	0.000000	0.000000	128.000000	53.000000	-91.000000	-75.000000
0.550000	27.360000	81.040000	0.000000	0.000000	127.000000	53.000000	-90.000000	-84.000000
0.560000	26.470000	80.300000	0.000000	0.000000	127.000000	53.000000	-89.000000	-74.000000
0.570000	25.590000	79.630000	0.000000	0.000000	125.000000	54.000000	-88.000000	-67.000000
0.580000	25.080000	79.270000	0.000000	0.000000	125.000000	54.000000	-51.000000	-36.000000
0.590000	24.600000	79.070000	0.000000	0.000000	125.000000	54.000000	-48.000000	-20.000000
0.600000	24.180000	78.970000	0.000000	0.000000	125.000000	54.000000	-42.000000	-10.000000
0.610000	23.800000	78.810000	0.000000	0.000000	124.000000	53.000000	-38.000000	-16.000000
0.620000	23.470000	78.680000	0.000000	0.000000	124.000000	53.000000	-33.000000	-13.000000
0.630000	23.200000	78.680000	0.000000	0.000000	124.000000	53.000000	-27.000000	0.000000
0.640000	23.130000	78.760000	0.000000	0.000000	124.000000	53.000000	-7.000000	8.000000
0.650000	23.180000	79.090000	0.000000	0.000000	124.000000	53.000000	5.000000	33.000000
0.660000	23.410000	79.580000	0.000000	0.000000	124.000000	53.000000	23.000000	49.000000
0.670000	23.810000	80.170000	0.000000	0.000000	123.000000	52.000000	40.000000	59.000000
0.680000	24.310000	80.920000	0.000000	0.000000	123.000000	52.000000	50.000000	75.000000
0.690000	25.030000	81.780000	0.000000	0.000000	122.000000	53.000000	72.000000	86.000000
0.700000	25.750000	82.720000	0.000000	0.000000	122.000000	53.000000	72.000000	94.000000
0.710000	26.480000	83.560000	0.000000	0.000000	122.000000	53.000000	73.000000	84.000000
0.720000	26.850000	84.090000	0.000000	0.000000	123.000000	53.000000	37.000000	53.000000
0.730000	26.980000	84.410000	0.000000	0.000000	124.000000	53.000000	13.000000	32.000000
0.740000	27.030000	84.490000	0.000000	0.000000	124.000000	53.000000	5.000000	8.000000
0.750000	26.950000	84.370000	0.000000	0.000000	124.000000	53.000000	-8.000000	-12.000000
0.760000	26.790000	84.110000	0.000000	0.000000	125.000000	53.000000	-16.000000	-26.000000
0.770000	26.480000	83.480000	0.000000	0.000000	125.000000	53.000000	-31.000000	-63.000000
0.780000	26.170000	82.590000	0.000000	0.000000	125.000000	53.000000	-31.000000	-89.000000
0.790000	25.740000	81.530000	0.000000	0.000000	124.000000	53.000000	-43.000000	-106.000000
0.800000	25.230000	80.580000	0.000000	0.000000	124.000000	53.000000	-51.000000	-95.000000
0.810000	24.890000	79.730000	0.000000	0.000000	124.000000	53.000000	-34.000000	-85.000000
0.820000	24.690000	78.940000	0.000000	0.000000	123.000000	53.000000	-20.000000	-79.000000
0.830000	24.570000	78.370000	0.000000	0.000000	122.000000	54.000000	-12.000000	-57.000000
0.840000	24.570000	77.880000	0.000000	0.000000	121.000000	53.000000	0.000000	-49.000000
0.850000	24.570000	77.450000	0.000000	0.000000	119.000000	53.000000	0.000000	-43.000000
0.860000	24.570000	77.040000	0.000000	0.000000	118.000000	54.000000	0.000000	-41.000000
0.870000	24.570000	77.040000	379.000000	1.000000	117.000000	54.000000	0.000000	0.000000
0.880000	24.410000	76.510000	465.000000	0.000000	117.000000	54.000000	-16.000000	-53.000000
0.890000	24.230000	76.370000	652.000000	0.000000	115.000000	54.000000	-18.000000	-14.000000
0.900000	24.180000	76.370000	717.000000	0.000000	114.000000	53.000000	-5.000000	0.000000
0.910000	24.180000	76.370000	759.000000	0.000000	113.000000	54.000000	0.000000	0.000000
0.920000	24.230000	76.500000	803.000000	0.000000	114.000000	55.000000	5.000000	13.000000
0.930000	24.430000	77.090000	826.000000	0.000000	114.000000	55.000000	20.000000	59.000000
0.940000	24.760000	78.000000	842.000000	0.000000	114.000000	55.000000	33.000000	91.000000
0.950000	25.340000	79.480000	875.000000	0.000000	114.000000	55.000000	58.000000	148.000000
0.960000	25.950000	81.330000	908.000000	0.000000	115.000000	54.000000	61.000000	185.000000
0.970000	26.620000	83.440000	917.000000	0.000000	117.000000	54.000000	67.000000	211.000000
0.980000	26.960000	85.120000	933.000000	0.000000	118.000000	54.000000	34.000000	168.000000
0.990000	27.070000	85.890000	986.000000	0.000000	119.000000	53.000000	11.000000	77.000000
1.000000	26.920000	86.060000	991.000000	0.000000	119.000000	53.000000	-15.000000	17.000000
1.010000	26.740000	86.060000	991.000000	0.000000	120.000000	52.000000	-18.000000	0.000000
1.020000	26.540000	85.950000	981.000000	0.000000	120.000000	52.000000	-20.000000	-11.000000
1.030000	26.450000	85.100000	989.000000	0.000000	121.000000	52.000000	-9.000000	-85.000000
1.040000	26.310000	83.770000	985.000000	0.000000	120.000000	51.000000	-14.000000	-133.000000
1.050000	26.130000	82.650000	973.000000	0.000000	122.000000	51.000000	-18.000000	-112.000000
1.060000	26.130000	81.900000	968.000000	0.000000	122.000000	51.000000	0.000000	-75.000000
1.070000	26.440000	81.400000	968.000000	0.000000	122.000000	51.000000	31.000000	-50.000000
1.080000	26.950000	81.260000	977.000000	0.000000	122.000000	51.000000	51.000000	-14.000000
1.090000	27.390000	81.390000	982.000000	0.000000	123.000000	51.000000	44.000000	13.000000
1.100000	27.760000	81.710000	1018.000000	0.000000	123.000000	51.000000	37.000000	32.000000
1.110000	28.080000	82.520000	1023.000000	0.000000	123.000000	51.000000	32.000000	81.000000
1.120000	28.440000	83.540000	1023.000000	0.000000	122.000000	51.000000	36.000000	102.000000
1.130000	28.620000	84.710000	1023.000000	0.000000	122.000000	51.000000	18.000000	117.000000
1.140000	28.670000	85.600000	1023.000000	0.000000	122.000000	51.000000	5.000000	89.000000
1.150000	28.610000	85.870000	1023.000000	0.000000	122.000000	51.000000	-6.000000	27.000000
1.160000	28.470000	85.730000	1012.000000	0.000000	122.000000	51.000000	-14.000000	-14.000000
1.170000	28.270000	85.340000	988.000000	0.000000	123.000000	51.000000	-20.000000	-39.000000
1.180000	27.960000	84.340000	979.000000	0.000000	123.000000	51.000000	-31.000000	-100.000000
1.190000	27.690000	82.930000	968.000000	0.000000	123.000000	51.000000	-27.000000	-141.000000
1.200000	27.690000	81.940000	958.000000	0.000000	123.000000	51.000000	0.000000	-99.000000
1.210000	27.860000	81.200000	961.000000	0.000000	123.000000	51.000000	17.000000	-74.000000
1.220000	28.130000	80.640000	959.000000	0.000000	123.000000	51.000000	27.000000	-56.000000
1.230000	28.400000	80.190000	955.000000	0.000000	125.000000	51.000000	27.000000	-45.000000
1.240000	28.730000	80.050000	955.000000	0.000000	124.000000	50.000000	33.000000	-14.000000
1.250000	29.120000	80.120000	959.000000	0.000000	124.000000	50.000000	39.000000	7.000000
1.260000	29.450000	80.450000	971.000000	0.000000	125.000000	51.000000	33.000000	33.000000
1.270000	29.720000	81.040000	973.000000	0.000000	125.000000	51.000000	27.000000	59.000000
1.280000	30.030000	81.800000	973.000000	0.000000	125.000000	51.000000	31.000000	76.000000
1.290000	30.110000	82.350000	988.000000	0.000000	126.000000	51.000000	8.000000	55.000000
1.300000	30.040000	82.510000	987.000000	0.000000	126.000000	51.000000	-7.000000	16.000000
1.310000	29.880000	82.420000	988.000000	0.000000	126.000000	51.000000	-16.000000	-9.000000
1.320000	29.660000	82.080000	988.000000	0.000000	126.000000	51.000000	-22.000000	-34.000000
1.330000	29.400000	81.560000	984.000000	0.000000	126.000000	51.000000	-26.000000	-52.000000
1.340000	29.400000	80.920000	979.000000	0.000000	126.000000	51.000000	0.000000	-64.000000
1.350000	29.650000	80.340000	979.000000	0.000000	126.000000	51.000000	25.000000	-58.000000
1.360000	30.110000	79.920000	990.000000	0.000000	126.000000	51.000000	46.000000	-42.000000
1.370000	31.060000	79.620000	1017.000000	0.000000	127.000000	52.000000	95.000000	-30.000000
1.380000	32.150000	79.460000	1023.000000	0.000000	127.000000	52.000000	109.000000	-16.000000
1.390000	33.340000	79.570000	1023.000000	0.000000	127.000000	52.000000	119.000000	11.000000
1.400000	34.280000	79.860000	1023.000000	0.000000	129.000000	52.000000	94.000000	29.000000
1.410000	35.010000	80.240000	1018.000000	0.000000	129.000000	52.000000	73.000000	38.000000
1.420000	35.610000	80.610000	1018.000000	0.000000	130.000000	53.000000	60.000000	37.000000
1.430000	35.800000	80.940000	1023.000000	0.000000	130.000000	53.000000	19.000000	33.000000
1.440000	35.590000	81.100000	1023.000000	0.000000	133.000000	53.000000	-21.000000	16.000000
1.450000	35.110000	81.150000	1023.000000	0.000000	133.000000	53.000000	-48.000000	5.000000
1.460000	33.920000	81.080000	1023.000000	0.000000	134.000000	54.000000	-119.000000	-7.000000
1.470000	31.720000	80.560000	1023.000000	0.000000	135.000000	53.000000	-220.000000	-52.000000
1.480000	28.840000	79.740000	1023.000000	0.000000	135.000000	53.000000	-288.000000	-82.000000
1.490000	25.640000	78.500000	1023.000000	0.000000	134.000000	54.000000	-320.000000	-124.000000
1.500000	22.300000	77.210000	1023.000000	0.000000	133.000000	53.000000	-334.000000	-129.000000
1.510000	18.870000	75.830000	1023.000000	0.000000	131.000000	54.000000	-343.000000	-138.000000
1.520000	16.300000	74.420000	1023.000000	0.000000	131.000000	54.000000	-257.000000	-141.000000
1.530000	14.740000	73.510000	1023.000000	0.000000	130.000000	54.000000	-156.000000	-91.000000
1.540000	13.840000	72.970000	1023.000000	0.000000	128.000000	54.000000	-90.000000	-54.000000
1.550000	13.460000	72.690000	1023.000000	0.000000	128.000000	54.000000	-38.000000	-28.000000
1.560000	13.410000	72.690000	1023.000000	0.000000	125.000000	54.000000	-5.000000	0.000000
1.570000	13.580000	72.690000	988.000000	0.000000	125.000000	54.000000	17.000000	0.000000
1.580000	14.200000	72.780000	790.000000	0.000000	124.000000	53.000000	62.000000	9.000000
1.590000	15.510000	73.350000	289.000000	0.000000	124.000000	53.000000	131.000000	57.000000
1.600000	15.510000	73.350000	0.000000	1.000000	124.000000	53.000000	0.000000	0.000000
1.610000	19.150000	75.910000	0.000000	0.000000	123.000000	52.000000	364.000000	256.000000
1.620000	20.750000	77.300000	0.000000	0.000000	123.000000	52.000000	160.000000	139.000000
1.630000	22.170000	78.700000	0.000000	0.000000	123.000000	52.000000	142.000000	140.000000
1.640000	23.900000	80.110000	0.000000	0.000000	124.000000	53.000000	173.000000	141.000000
1.650000	24.820000	81.070000	0.000000	0.000000	124.000000	53.000000	92.000000	96.000000
1.660000	25.190000	81.730000	0.000000	0.000000	124.000000	53.000000	37.000000	66.000000
1.670000	25.190000	82.090000	0.000000	0.000000	124.000000	53.000000	0.000000	36.000000
1.680000	24.860000	82.210000	0.000000	0.000000	124.000000	53.000000	-33.000000	12.000000
1.690000	24.340000	82.210000	0.000000	0.000000	124.000000	53.000000	-52.000000	0.000000
1.700000	23.640000	82.130000	0.000000	0.000000	124.000000	53.000000	-70.000000	-8.000000
1.710000	23.320000	82.200000	0.000000	0.000000	124.000000	53.000000	-32.000000	7.000000
1.720000	23.260000	82.340000	0.000000	0.000000	124.000000	53.000000	-6.000000	14.000000
1.730000	23.350000	82.430000	0.000000	0.000000	124.000000	53.000000	9.000000	9.000000
1.740000	23.350000	82.430000	42.000000	1.000000	124.000000	53.000000	0.000000	0.000000
1.750000	24.060000	82.920000	53.000000	0.000000	125.000000	54.000000	71.000000	49.000000
1.760000	24.720000	83.210000	53.000000	0.000000	125.000000	54.000000	66.000000	29.000000
1.770000	24.720000	83.210000	0.000000	1.000000	125.000000	54.000000	0.000000	0.000000
1.780000	26.130000	83.870000	0.000000	0.000000	127.000000	53.000000	141.000000	66.000000
1.790000	26.870000	84.180000	0.000000	0.000000	127.000000	53.000000	74.000000	31.000000
1.800000	27.340000	84.480000	0.000000	0.000000	127.000000	53.000000	47.000000	30.000000
1.810000	27.630000	84.750000	0.000000	0.000000	127.000000	53.000000	29.000000	27.000000
1.820000	27.520000	84.750000	0.000000	0.000000	127.000000	53.000000	-11.000000	0.000000
1.830000	27.050000	84.640000	0.000000	0.000000	127.000000	53.000000	-47.000000	-11.000000
1.840000	27.050000	84.640000	214.000000	1.000000	127.000000	53.000000	0.000000	0.000000
1.850000	25.240000	83.890000	430.000000	0.000000	127.000000	53.000000	-181.000000	-75.000000
1.860000	24.500000	83.610000	684.000000	0.000000	127.000000	53.000000	-74.000000	-28.000000
1.870000	24.010000	83.560000	802.000000	0.000000	127.000000	53.000000	-49.000000	-5.000000
1.880000	24.010000	83.560000	906.000000	0.000000	127.000000	53.000000	0.000000	0.000000
1.890000	24.380000	83.610000	1006.000000	0.000000	128.000000	54.000000	37.000000	5.000000
1.900000	25.080000	83.760000	1023.000000	0.000000	128.000000	54.000000	70.000000	15.000000
1.910000	26.710000	84.220000	1023.000000	0.000000	128.000000	54.000000	163.000000	46.000000
1.920000	28.340000	84.900000	1023.000000	0.000000	129.000000	53.000000	163.000000	68.000000
1.930000	29.950000	85.500000	1023.000000	0.000000	129.000000	53.000000	161.000000	60.000000
1.940000	31.280000	86.080000	1023.000000	0.000000	131.000000	54.000000	133.000000	58.000000
1.950000	32.430000	86.600000	1023.000000	0.000000	133.000000	53.000000	115.000000	52.000000
1.960000	33.050000	86.870000	1023.000000	0.000000	133.000000	53.000000	62.000000	27.000000
1.970000	33.290000	86.980000	851.000000	0.000000	134.000000	52.000000	24.000000	11.000000
