t	x	y	pressure	penup	azimuth	inclination	v_x	v_y
0.000000	51.290000	60.110000	34.000000	1.000000	125.000000	50.000000	0.000000	0.000000
0.010000	51.290000	60.110000	71.000000	0.000000	125.000000	50.000000	0.000000	0.000000
0.020000	51.290000	60.110000	130.000000	0.000000	125.000000	50.000000	0.000000	0.000000
0.030000	51.290000	60.110000	180.000000	0.000000	124.000000	50.000000	0.000000	0.000000
0.040000	51.290000	60.110000	211.000000	0.000000	123.000000	49.000000	0.000000	0.000000
0.050000	51.290000	60.110000	260.000000	0.000000	123.000000	49.000000	0.000000	0.000000
0.060000	51.290000	59.850000	305.000000	0.000000	123.000000	49.000000	0.000000	-26.000000
0.070000	51.290000	59.850000	373.000000	0.000000	123.000000	49.000000	0.000000	0.000000
0.080000	51.350000	59.850000	435.000000	0.000000	123.000000	49.000000	6.000000	0.000000
0.090000	51.530000	59.920000	483.000000	0.000000	124.000000	50.000000	18.000000	7.000000
0.100000	51.770000	60.090000	538.000000	0.000000	124.000000	50.000000	24.000000	17.000000
0.110000	52.110000	60.330000	572.000000	0.000000	124.000000	50.000000	34.000000	24.000000
0.120000	52.540000	60.740000	605.000000	0.000000	124.000000	50.000000	43.000000	41.000000
0.130000	53.040000	61.300000	631.000000	0.000000	124.000000	50.000000	50.000000	56.000000
0.140000	53.590000	61.950000	636.000000	0.000000	126.000000	50.000000	55.000000	65.000000
0.150000	54.150000	62.680000	643.000000	0.000000	126.000000	50.000000	56.000000	73.000000
0.160000	54.720000	63.610000	643.000000	0.000000	126.000000	50.000000	57.000000	93.000000
0.170000	55.270000	64.680000	640.000000	0.000000	128.000000	50.000000	55.000000	107.000000
0.180000	55.770000	65.790000	641.000000	0.000000	128.000000	50.000000	50.000000	111.000000
0.190000	56.240000	66.840000	614.000000	0.000000	128.000000	50.000000	47.000000	105.000000
0.200000	56.520000	67.840000	614.000000	0.000000	128.000000	50.000000	28.000000	100.000000
0.210000	56.570000	68.530000	597.000000	0.000000	128.000000	50.000000	5.000000	69.000000
0.220000	56.470000	68.980000	594.000000	0.000000	130.000000	51.000000	-10.000000	45.000000
0.230000	56.240000	69.270000	595.000000	0.000000	130.000000	51.000000	-23.000000	29.000000
0.240000	56.010000	69.270000	595.000000	0.000000	132.000000	50.000000	-23.000000	0.000000
0.250000	55.720000	69.030000	585.000000	0.000000	132.000000	50.000000	-29.000000	-24.000000
0.260000	55.370000	68.610000	585.000000	0.000000	133.000000	50.000000	-35.000000	-42.000000
0.270000	55.140000	68.060000	586.000000	0.000000	133.000000	50.000000	-23.000000	-55.000000
0.280000	55.050000	67.470000	592.000000	0.000000	132.000000	49.000000	-9.000000	-59.000000
0.290000	55.050000	66.790000	602.000000	0.000000	132.000000	49.000000	0.000000	-68.000000
0.300000	55.050000	66.050000	617.000000	0.000000	132.000000	49.000000	0.000000	-74.000000
0.310000	55.120000	65.280000	613.000000	0.000000	130.000000	50.000000	7.000000	-77.000000
0.320000	55.050000	64.330000	636.000000	0.000000	130.000000	50.000000	-7.000000	-95.000000
0.330000	54.910000	63.270000	641.000000	0.000000	129.000000	50.000000	-14.000000	-106.000000
0.340000	54.910000	62.440000	647.000000	0.000000	129.000000	50.000000	0.000000	-83.000000
0.350000	54.910000	61.790000	649.000000	0.000000	129.000000	50.000000	0.000000	-65.000000
0.360000	55.080000	61.250000	649.000000	0.000000	129.000000	50.000000	17.000000	-54.000000
0.370000	55.350000	60.870000	646.000000	0.000000	129.000000	50.000000	27.000000	-38.000000
0.380000	55.620000	60.490000	646.000000	0.000000	129.000000	50.000000	27.000000	-38.000000
0.390000	55.910000	60.110000	641.000000	0.000000	129.000000	50.000000	29.000000	-38.000000
0.400000	56.220000	59.760000	636.000000	0.000000	129.000000	50.000000	31.000000	-35.000000
0.410000	56.500000	59.370000	636.000000	0.000000	129.000000	50.000000	28.000000	-39.000000
0.420000	56.680000	58.960000	641.000000	0.000000	130.000000	51.000000	18.000000	-41.000000
0.430000	56.770000	58.550000	638.000000	0.000000	130.000000	51.000000	9.000000	-41.000000
0.440000	56.720000	58.210000	652.000000	0.000000	129.000000	51.000000	-5.000000	-34.000000
0.450000	56.480000	57.920000	670.000000	0.000000	129.000000	51.000000	-24.000000	-29.000000
0.460000	56.110000	57.630000	684.000000	0.000000	129.000000	51.000000	-37.000000	-29.000000
0.470000	55.540000	57.430000	697.000000	0.000000	128.000000	52.000000	-57.000000	-20.000000
0.480000	54.630000	57.280000	697.000000	0.000000	127.000000	52.000000	-91.000000	-15.000000
0.490000	53.480000	57.030000	694.000000	0.000000	127.000000	52.000000	-115.000000	-25.000000
0.500000	52.040000	56.980000	716.000000	0.000000	124.000000	52.000000	-144.000000	-5.000000
0.510000	50.870000	57.060000	705.000000	0.000000	124.000000	52.000000	-117.000000	8.000000
0.520000	49.890000	57.580000	700.000000	0.000000	123.000000	51.000000	-98.000000	52.000000
0.530000	49.210000	58.460000	714.000000	0.000000	123.000000	51.000000	-68.000000	88.000000
0.540000	48.760000	59.570000	755.000000	0.000000	123.000000	51.000000	-45.000000	111.000000
0.550000	48.450000	60.670000	755.000000	0.000000	122.000000	50.000000	-31.000000	110.000000
0.560000	48.370000	61.630000	756.000000	0.000000	124.000000	50.000000	-8.000000	96.000000
0.570000	48.370000	62.490000	782.000000	0.000000	125.000000	50.000000	0.000000	86.000000
0.580000	48.430000	63.080000	794.000000	0.000000	125.000000	48.000000	6.000000	59.000000
0.590000	48.550000	63.630000	785.000000	0.000000	125.000000	48.000000	12.000000	55.000000
0.600000	48.680000	64.000000	790.000000	0.000000	126.000000	48.000000	13.000000	37.000000
0.610000	48.950000	64.260000	805.000000	0.000000	126.000000	48.000000	27.000000	26.000000
0.620000	49.640000	64.470000	815.000000	0.000000	127.000000	49.000000	69.000000	21.000000
0.630000	50.610000	64.690000	817.000000	0.000000	127.000000	49.000000	97.000000	22.000000
0.640000	52.340000	64.900000	830.000000	0.000000	127.000000	49.000000	173.000000	21.000000
0.650000	54.360000	65.250000	854.000000	0.000000	128.000000	49.000000	202.000000	35.000000
0.660000	56.570000	65.680000	879.000000	0.000000	128.000000	49.000000	221.000000	43.000000
0.670000	59.190000	66.140000	897.000000	0.000000	128.000000	49.000000	262.000000	46.000000
0.680000	61.980000	66.650000	929.000000	0.000000	129.000000	50.000000	279.000000	51.000000
0.690000	64.890000	67.200000	950.000000	0.000000	130.000000	51.000000	291.000000	55.000000
0.700000	67.660000	67.540000	950.000000	0.000000	132.000000	50.000000	277.000000	34.000000
0.710000	70.250000	67.880000	947.000000	0.000000	134.000000	50.000000	259.000000	34.000000
0.720000	72.720000	68.230000	941.000000	0.000000	135.000000	51.000000	247.000000	35.000000
0.730000	75.180000	68.550000	906.000000	0.000000	136.000000	50.000000	246.000000	32.000000
0.740000	77.380000	68.820000	817.000000	0.000000	138.000000	50.000000	220.000000	27.000000
0.750000	79.410000	69.060000	578.000000	0.000000	138.000000	50.000000	203.000000	24.000000
0.760000	79.410000	69.060000	0.000000	1.000000	140.000000	51.000000	0.000000	0.000000
0.770000	80.760000	68.750000	0.000000	0.000000	141.000000	50.000000	135.000000	-31.000000
0.780000	80.270000	68.300000	0.000000	0.000000	141.000000	51.000000	-49.000000	-45.000000
0.790000	78.540000	67.860000	0.000000	0.000000	141.000000	51.000000	-173.000000	-44.000000
0.800000	76.810000	67.420000	0.000000	0.000000	142.000000	52.000000	-173.000000	-44.000000
0.810000	75.080000	66.960000	0.000000	0.000000	142.000000	52.000000	-173.000000	-46.000000
0.820000	73.470000	66.860000	0.000000	0.000000	143.000000	51.000000	-161.000000	-10.000000
0.830000	72.210000	67.000000	0.000000	0.000000	143.000000	50.000000	-126.000000	14.000000
0.840000	71.500000	67.070000	0.000000	0.000000	144.000000	49.000000	-71.000000	7.000000
0.850000	71.030000	67.180000	0.000000	0.000000	145.000000	47.000000	-47.000000	11.000000
0.860000	70.860000	67.310000	0.000000	0.000000	144.000000	46.000000	-17.000000	13.000000
0.870000	70.760000	67.440000	0.000000	0.000000	144.000000	44.000000	-10.000000	13.000000
0.880000	70.710000	67.550000	0.000000	0.000000	144.000000	42.000000	-5.000000	11.000000
0.890000	70.520000	67.550000	0.000000	0.000000	145.000000	40.000000	-19.000000	0.000000
0.900000	70.180000	67.550000	0.000000	0.000000	144.000000	40.000000	-34.000000	0.000000
0.910000	69.750000	67.550000	0.000000	0.000000	144.000000	39.000000	-43.000000	0.000000
0.920000	68.980000	67.400000	0.000000	0.000000	143.000000	40.000000	-77.000000	-15.000000
0.930000	67.980000	67.180000	0.000000	0.000000	143.000000	40.000000	-100.000000	-22.000000
0.940000	66.830000	66.880000	0.000000	0.000000	143.000000	40.000000	-115.000000	-30.000000
0.950000	65.750000	66.490000	0.000000	0.000000	143.000000	41.000000	-108.000000	-39.000000
0.960000	64.710000	66.030000	0.000000	0.000000	142.000000	41.000000	-104.000000	-46.000000
0.970000	63.760000	65.550000	0.000000	0.000000	142.000000	42.000000	-95.000000	-48.000000
0.980000	63.010000	65.090000	0.000000	0.000000	142.000000	42.000000	-75.000000	-46.000000
0.990000	62.390000	64.710000	0.000000	0.000000	142.000000	43.000000	-62.000000	-38.000000
1.000000	61.860000	64.390000	0.000000	0.000000	141.000000	44.000000	-53.000000	-32.000000
1.010000	61.400000	63.600000	0.000000	0.000000	140.000000	45.000000	-46.000000	-79.000000
1.020000	61.040000	63.530000	0.000000	0.000000	139.000000	45.000000	-36.000000	-7.000000
1.030000	60.760000	63.950000	0.000000	0.000000	138.000000	46.000000	-28.000000	42.000000
1.040000	60.630000	63.950000	0.000000	0.000000	136.000000	46.000000	-13.000000	0.000000
1.050000	60.630000	63.900000	0.000000	0.000000	136.000000	46.000000	0.000000	-5.000000
1.060000	61.020000	63.850000	0.000000	0.000000	135.000000	45.000000	39.000000	-5.000000
1.070000	61.110000	63.850000	0.000000	0.000000	134.000000	46.000000	9.000000	0.000000
1.080000	60.980000	63.980000	0.000000	0.000000	134.000000	46.000000	-13.000000	13.000000
1.090000	61.150000	64.040000	0.000000	0.000000	134.000000	46.000000	17.000000	6.000000
1.100000	61.320000	64.120000	0.000000	0.000000	134.000000	46.000000	17.000000	8.000000
1.110000	61.510000	64.220000	0.000000	0.000000	135.000000	46.000000	19.000000	10.000000
1.120000	61.720000	64.280000	0.000000	0.000000	135.000000	46.000000	21.000000	6.000000
1.130000	61.950000	64.380000	0.000000	0.000000	135.000000	46.000000	23.000000	10.000000
1.140000	62.190000	64.480000	0.000000	0.000000	135.000000	46.000000	24.000000	10.000000
1.150000	62.390000	64.570000	0.000000	0.000000	135.000000	46.000000	20.000000	9.000000
1.160000	62.570000	64.640000	0.000000	0.000000	136.000000	47.000000	18.000000	7.000000
1.170000	62.720000	64.690000	0.000000	0.000000	136.000000	47.000000	15.000000	5.000000
1.180000	62.720000	64.740000	0.000000	0.000000	136.000000	47.000000	0.000000	5.000000
1.190000	62.610000	64.740000	0.000000	0.000000	136.000000	47.000000	-11.000000	0.000000
1.200000	62.560000	64.820000	0.000000	0.000000	137.000000	47.000000	-5.000000	8.000000
1.210000	62.500000	64.940000	0.000000	0.000000	136.000000	48.000000	-6.000000	12.000000
1.220000	62.440000	65.070000	0.000000	0.000000	136.000000	48.000000	-6.000000	13.000000
1.230000	62.440000	65.210000	0.000000	0.000000	136.000000	48.000000	0.000000	14.000000
1.240000	62.440000	65.330000	0.000000	0.000000	136.000000	48.000000	0.000000	12.000000
1.250000	62.440000	65.450000	0.000000	0.000000	136.000000	48.000000	0.000000	12.000000
1.260000	62.440000	65.550000	0.000000	0.000000	136.000000	48.000000	0.000000	10.000000
1.270000	62.440000	65.690000	0.000000	0.000000	136.000000	48.000000	0.000000	14.000000
1.280000	62.440000	65.850000	0.000000	0.000000	137.000000	48.000000	0.000000	16.000000
1.290000	62.560000	66.070000	0.000000	0.000000	137.000000	48.000000	12.000000	22.000000
1.300000	62.660000	66.300000	0.000000	0.000000	137.000000	48.000000	10.000000	23.000000
1.310000	62.770000	66.520000	0.000000	0.000000	137.000000	48.000000	11.000000	22.000000
1.320000	62.880000	66.760000	0.000000	0.000000	137.000000	48.000000	11.000000	24.000000
1.330000	62.970000	67.010000	0.000000	0.000000	137.000000	48.000000	9.000000	25.000000
1.340000	62.970000	67.160000	0.000000	0.000000	137.000000	48.000000	0.000000	15.000000
1.350000	62.970000	67.300000	0.000000	0.000000	137.000000	48.000000	0.000000	14.000000
1.360000	62.970000	67.420000	0.000000	0.000000	136.000000	49.000000	0.000000	12.000000
1.370000	62.970000	67.420000	0.000000	0.000000	136.000000	49.000000	0.000000	0.000000
1.380000	63.040000	67.740000	0.000000	0.000000	136.000000	49.000000	7.000000	32.000000
1.390000	63.110000	67.860000	0.000000	0.000000	136.000000	49.000000	7.000000	12.000000
1.400000	63.210000	67.960000	0.000000	0.000000	136.000000	49.000000	10.000000	10.000000
1.410000	63.340000	68.030000	0.000000	0.000000	136.000000	49.000000	13.000000	7.000000
1.420000	63.500000	68.030000	0.000000	0.000000	136.000000	49.000000	16.000000	0.000000
1.430000	63.660000	68.030000	0.000000	0.000000	135.000000	50.000000	16.000000	0.000000
1.440000	63.820000	67.830000	0.000000	0.000000	135.000000	50.000000	16.000000	-20.000000
1.450000	63.950000	67.670000	0.000000	0.000000	135.000000	50.000000	13.000000	-16.000000
1.460000	64.100000	67.490000	0.000000	0.000000	135.000000	50.000000	15.000000	-18.000000
1.470000	64.210000	67.290000	0.000000	0.000000	135.000000	50.000000	11.000000	-20.000000
1.480000	64.290000	67.070000	0.000000	0.000000	135.000000	50.000000	8.000000	-22.000000
1.490000	64.350000	66.840000	0.000000	0.000000	135.000000	50.000000	6.000000	-23.000000
1.500000	64.350000	66.550000	0.000000	0.000000	135.000000	50.000000	0.000000	-29.000000
1.510000	64.400000	66.240000	0.000000	0.000000	135.000000	50.000000	5.000000	-31.000000
1.520000	64.400000	65.910000	0.000000	0.000000	135.000000	50.000000	0.000000	-33.000000
1.530000	64.310000	65.590000	0.000000	0.000000	136.000000	49.000000	-9.000000	-32.000000
1.540000	64.240000	65.370000	0.000000	0.000000	136.000000	49.000000	-7.000000	-22.000000
1.550000	64.150000	65.220000	0.000000	0.000000	136.000000	49.000000	-9.000000	-15.000000
1.560000	64.060000	65.110000	0.000000	0.000000	135.000000	49.000000	-9.000000	-11.000000
1.570000	63.960000	64.990000	0.000000	0.000000	135.000000	49.000000	-10.000000	-12.000000
1.580000	63.820000	64.870000	0.000000	0.000000	135.000000	49.000000	-14.000000	-12.000000
1.590000	63.720000	64.870000	0.000000	0.000000	134.000000	49.000000	-10.000000	0.000000
1.600000	63.620000	64.780000	0.000000	0.000000	134.000000	49.000000	-10.000000	-9.000000
1.610000	63.550000	64.710000	0.000000	0.000000	134.000000	49.000000	-7.000000	-7.000000
1.620000	63.470000	64.650000	0.000000	0.000000	133.000000	48.000000	-8.000000	-6.000000
1.630000	63.410000	64.600000	0.000000	0.000000	132.000000	49.000000	-6.000000	-5.000000
1.640000	63.410000	64.550000	0.000000	0.000000	132.000000	49.000000	0.000000	-5.000000
1.650000	63.410000	64.550000	0.000000	0.000000	132.000000	49.000000	0.000000	0.000000
1.660000	63.410000	64.550000	0.000000	0.000000	132.000000	49.000000	0.000000	0.000000
1.670000	63.460000	64.610000	0.000000	0.000000	132.000000	49.000000	5.000000	6.000000
1.680000	63.460000	64.610000	0.000000	0.000000	132.000000	49.000000	0.000000	0.000000
1.690000	63.540000	64.610000	0.000000	0.000000	132.000000	49.000000	8.000000	0.000000
1.700000	63.540000	64.610000	0.000000	0.000000	132.000000	49.000000	0.000000	0.000000
1.710000	63.540000	64.610000	0.000000	0.000000	132.000000	49.000000	0.000000	0.000000
1.720000	63.540000	64.610000	0.000000	0.000000	132.000000	49.000000	0.000000	0.000000
1.730000	63.540000	64.610000	0.000000	0.000000	132.000000	49.000000	0.000000	0.000000
1.740000	63.540000	64.610000	0.000000	0.000000	132.000000	49.000000	0.000000	0.000000
1.750000	63.540000	64.610000	0.000000	0.000000	132.000000	49.000000	0.000000	0.000000
1.760000	63.540000	64.610000	0.000000	0.000000	132.000000	49.000000	0.000000	0.000000
1.770000	63.540000	64.610000	0.000000	0.000000	132.000000	49.000000	0.000000	0.000000
1.780000	63.540000	64.610000	0.000000	0.000000	132.000000	49.000000	0.000000	0.000000
1.790000	63.350000	64.320000	0.000000	0.000000	132.000000	49.000000	-19.000000	-29.000000
1.800000	63.350000	64.320000	0.000000	0.000000	131.000000	48.000000	0.000000	0.000000
1.810000	63.300000	64.230000	0.000000	0.000000	131.000000	48.000000	-5.000000	-9.000000
1.820000	63.300000	64.230000	0.000000	0.000000	131.000000	48.000000	0.000000	0.000000
1.830000	63.230000	64.140000	0.000000	0.000000	131.000000	48.000000	-7.000000	-9.000000
1.840000	63.230000	64.140000	0.000000	0.000000	131.000000	48.000000	0.000000	0.000000
1.850000	63.170000	64.080000	0.000000	0.000000	131.000000	48.000000	-6.000000	-6.000000
1.860000	63.170000	64.080000	0.000000	0.000000	131.000000	48.000000	0.000000	0.000000
1.870000	63.110000	64.000000	0.000000	0.000000	131.000000	48.000000	-6.000000	-8.000000
1.880000	63.110000	63.940000	0.000000	0.000000	131.000000	48.000000	0.000000	-6.000000
1.890000	63.110000	63.870000	0.000000	0.000000	131.000000	48.000000	0.000000	-7.000000
1.900000	63.110000	63.780000	0.000000	0.000000	131.000000	48.000000	0.000000	-9.000000
1.910000	63.110000	63.690000	0.000000	0.000000	131.000000	48.000000	0.000000	-9.000000
1.920000	63.110000	63.630000	0.000000	0.000000	131.000000	48.000000	0.000000	-6.000000
1.930000	63.110000	63.630000	0.000000	0.000000	131.000000	48.000000	0.000000	0.000000
1.940000	63.110000	63.540000	0.000000	0.000000	131.000000	48.000000	0.000000	-9.000000
1.950000	63.110000	63.470000	0.000000	0.000000	131.000000	48.000000	0.000000	-7.000000
1.960000	63.110000	63.380000	0.000000	0.000000	131.000000	48.000000	0.000000	-9.000000
1.970000	63.110000	63.270000	0.000000	0.000000	131.000000	48.000000	0.000000	-11.000000
1.980000	63.040000	63.170000	0.000000	0.000000	131.000000	48.000000	-7.000000	-10.000000
1.990000	63.040000	63.070000	0.000000	0.000000	131.000000	48.000000	0.000000	-10.000000
2.000000	62.960000	62.980000	0.000000	0.000000	131.000000	48.000000	-8.000000	-9.000000
2.010000	62.960000	62.890000	0.000000	0.000000	131.000000	48.000000	0.000000	-9.000000
2.020000	62.910000	62.840000	0.000000	0.000000	131.000000	48.000000	-5.000000	-5.000000
2.030000	62.910000	62.790000	0.000000	0.000000	131.000000	48.000000	0.000000	-5.000000
2.040000	62.910000	62.740000	0.000000	0.000000	131.000000	48.000000	0.000000	-5.000000
2.050000	62.850000	62.680000	0.000000	0.000000	131.000000	48.000000	-6.000000	-6.000000
2.060000	62.850000	62.620000	0.000000	0.000000	129.000000	49.000000	0.000000	-6.000000
2.070000	62.850000	62.510000	0.000000	0.000000	129.000000	49.000000	0.000000	-11.000000
2.080000	62.850000	62.400000	0.000000	0.000000	129.000000	49.000000	0.000000	-11.000000
2.090000	62.850000	62.300000	0.000000	0.000000	129.000000	49.000000	0.000000	-10.000000
2.100000	62.850000	62.220000	0.000000	0.000000	129.000000	49.000000	0.000000	-8.000000
2.110000	62.910000	62.120000	0.000000	0.000000	129.000000	49.000000	6.000000	-10.000000
2.120000	62.910000	62.120000	0.000000	0.000000	128.000000	49.000000	0.000000	0.000000
2.130000	62.990000	62.070000	0.000000	0.000000	128.000000	49.000000	8.000000	-5.000000
2.140000	63.040000	62.010000	0.000000	0.000000	128.000000	49.000000	5.000000	-6.000000
2.150000	63.090000	62.010000	0.000000	0.000000	128.000000	49.000000	5.000000	0.000000
2.160000	63.150000	61.960000	0.000000	0.000000	128.000000	49.000000	6.000000	-5.000000
2.170000	63.230000	61.960000	0.000000	0.000000	128.000000	49.000000	8.000000	0.000000
2.180000	63.310000	61.960000	0.000000	0.000000	129.000000	50.000000	8.000000	0.000000
2.190000	63.310000	61.900000	0.000000	0.000000	129.000000	50.000000	0.000000	-6.000000
2.200000	63.310000	61.900000	0.000000	0.000000	129.000000	50.000000	0.000000	0.000000
2.210000	63.310000	61.900000	0.000000	0.000000	129.000000	50.000000	0.000000	0.000000
2.220000	63.360000	61.900000	0.000000	0.000000	129.000000	50.000000	5.000000	0.000000
2.230000	63.360000	61.820000	0.000000	0.000000	129.000000	50.000000	0.000000	-8.000000
2.240000	63.360000	61.820000	0.000000	0.000000	129.000000	50.000000	0.000000	0.000000
