t	x	y	pressure	penup	azimuth	inclination	v_x	v_y
0.000000	48.550000	24.360000	182.000000	1.000000	127.000000	57.000000	0.000000	0.000000
0.010000	48.060000	23.900000	214.000000	0.000000	126.000000	58.000000	-49.000000	-46.000000
0.020000	47.900000	23.900000	232.000000	0.000000	124.000000	58.000000	-16.000000	0.000000
0.030000	47.760000	23.820000	245.000000	0.000000	124.000000	58.000000	-14.000000	-8.000000
0.040000	47.660000	23.720000	280.000000	0.000000	123.000000	59.000000	-10.000000	-10.000000
0.050000	47.560000	23.570000	310.000000	0.000000	123.000000	59.000000	-10.000000	-15.000000
0.060000	47.470000	23.410000	351.000000	0.000000	121.000000	59.000000	-9.000000	-16.000000
0.070000	47.420000	23.240000	407.000000	0.000000	121.000000	59.000000	-5.000000	-17.000000
0.080000	47.420000	23.070000	441.000000	0.000000	120.000000	58.000000	0.000000	-17.000000
0.090000	47.510000	23.000000	499.000000	0.000000	120.000000	58.000000	9.000000	-7.000000
0.100000	47.780000	23.000000	563.000000	0.000000	120.000000	58.000000	27.000000	0.000000
0.110000	48.170000	23.270000	619.000000	0.000000	120.000000	58.000000	39.000000	27.000000
0.120000	48.940000	23.870000	694.000000	0.000000	120.000000	58.000000	77.000000	60.000000
0.130000	49.670000	24.700000	740.000000	0.000000	120.000000	58.000000	73.000000	83.000000
0.140000	50.360000	25.800000	805.000000	0.000000	120.000000	58.000000	69.000000	110.000000
0.150000	51.290000	27.150000	812.000000	0.000000	120.000000	58.000000	93.000000	135.000000
0.160000	52.180000	28.660000	793.000000	0.000000	121.000000	59.000000	89.000000	151.000000
0.170000	53.040000	30.480000	788.000000	0.000000	123.000000	59.000000	86.000000	182.000000
0.180000	53.840000	32.300000	785.000000	0.000000	124.000000	58.000000	80.000000	182.000000
0.190000	54.420000	34.120000	794.000000	0.000000	127.000000	59.000000	58.000000	182.000000
0.200000	54.840000	35.390000	788.000000	0.000000	128.000000	58.000000	42.000000	127.000000
0.210000	55.070000	35.800000	788.000000	0.000000	130.000000	58.000000	23.000000	41.000000
0.220000	55.070000	35.640000	784.000000	0.000000	132.000000	58.000000	0.000000	-16.000000
0.230000	55.070000	35.500000	785.000000	0.000000	134.000000	57.000000	0.000000	-14.000000
0.240000	54.770000	34.530000	777.000000	0.000000	134.000000	57.000000	-30.000000	-97.000000
0.250000	54.170000	33.020000	750.000000	0.000000	135.000000	57.000000	-60.000000	-151.000000
0.260000	53.340000	30.510000	748.000000	0.000000	135.000000	57.000000	-83.000000	-251.000000
0.270000	52.740000	28.350000	759.000000	0.000000	134.000000	57.000000	-60.000000	-216.000000
0.280000	52.440000	26.430000	777.000000	0.000000	134.000000	57.000000	-30.000000	-192.000000
0.290000	52.340000	25.250000	787.000000	0.000000	132.000000	58.000000	-10.000000	-118.000000
0.300000	52.240000	24.480000	787.000000	0.000000	131.000000	58.000000	-10.000000	-77.000000
0.310000	52.240000	23.980000	796.000000	0.000000	129.000000	59.000000	0.000000	-50.000000
0.320000	52.290000	23.790000	800.000000	0.000000	128.000000	59.000000	5.000000	-19.000000
0.330000	52.290000	23.790000	806.000000	0.000000	126.000000	60.000000	0.000000	0.000000
0.340000	52.140000	23.790000	796.000000	0.000000	125.000000	60.000000	-15.000000	0.000000
0.350000	51.930000	24.290000	754.000000	0.000000	123.000000	61.000000	-21.000000	50.000000
0.360000	51.410000	25.000000	731.000000	0.000000	123.000000	61.000000	-52.000000	71.000000
0.370000	50.770000	25.860000	746.000000	0.000000	123.000000	61.000000	-64.000000	86.000000
0.380000	50.040000	26.840000	758.000000	0.000000	123.000000	61.000000	-73.000000	98.000000
0.390000	49.220000	27.590000	771.000000	0.000000	125.000000	60.000000	-82.000000	75.000000
0.400000	48.450000	28.180000	788.000000	0.000000	126.000000	60.000000	-77.000000	59.000000
0.410000	47.760000	28.260000	793.000000	0.000000	128.000000	59.000000	-69.000000	8.000000
0.420000	47.080000	28.190000	796.000000	0.000000	129.000000	59.000000	-68.000000	-7.000000
0.430000	46.690000	28.020000	783.000000	0.000000	132.000000	59.000000	-39.000000	-17.000000
0.440000	46.500000	28.020000	753.000000	0.000000	134.000000	58.000000	-19.000000	0.000000
0.450000	46.660000	27.960000	750.000000	0.000000	135.000000	58.000000	16.000000	-6.000000
0.460000	47.340000	27.960000	785.000000	0.000000	138.000000	58.000000	68.000000	0.000000
0.470000	48.370000	28.120000	797.000000	0.000000	138.000000	58.000000	103.000000	16.000000
0.480000	50.060000	28.470000	832.000000	0.000000	139.000000	57.000000	169.000000	35.000000
0.490000	52.370000	28.930000	846.000000	0.000000	139.000000	57.000000	231.000000	46.000000
0.500000	55.090000	29.460000	860.000000	0.000000	139.000000	57.000000	272.000000	53.000000
0.510000	58.070000	29.940000	869.000000	0.000000	139.000000	57.000000	298.000000	48.000000
0.520000	60.980000	30.340000	860.000000	0.000000	139.000000	57.000000	291.000000	40.000000
0.530000	63.850000	30.750000	831.000000	0.000000	140.000000	58.000000	287.000000	41.000000
0.540000	66.540000	31.060000	805.000000	0.000000	142.000000	57.000000	269.000000	31.000000
0.550000	68.880000	31.300000	794.000000	0.000000	142.000000	57.000000	234.000000	24.000000
0.560000	70.990000	31.440000	785.000000	0.000000	143.000000	57.000000	211.000000	14.000000
0.570000	72.410000	31.510000	770.000000	0.000000	146.000000	57.000000	142.000000	7.000000
0.580000	73.150000	31.430000	757.000000	0.000000	146.000000	57.000000	74.000000	-8.000000
0.590000	73.430000	31.290000	757.000000	0.000000	147.000000	58.000000	28.000000	-14.000000
0.600000	72.950000	31.090000	736.000000	0.000000	148.000000	57.000000	-48.000000	-20.000000
0.610000	71.480000	30.600000	697.000000	0.000000	148.000000	57.000000	-147.000000	-49.000000
0.620000	69.360000	29.920000	628.000000	0.000000	148.000000	57.000000	-212.000000	-68.000000
0.630000	66.220000	29.080000	565.000000	0.000000	148.000000	57.000000	-314.000000	-84.000000
0.640000	62.690000	28.210000	536.000000	0.000000	147.000000	58.000000	-353.000000	-87.000000
0.650000	58.900000	27.250000	588.000000	0.000000	147.000000	58.000000	-379.000000	-96.000000
0.660000	55.310000	26.250000	649.000000	0.000000	144.000000	58.000000	-359.000000	-100.000000
0.670000	52.460000	25.470000	670.000000	0.000000	142.000000	58.000000	-285.000000	-78.000000
0.680000	50.110000	24.820000	693.000000	0.000000	141.000000	59.000000	-235.000000	-65.000000
0.690000	48.780000	24.260000	705.000000	0.000000	136.000000	60.000000	-133.000000	-56.000000
0.700000	48.290000	23.870000	703.000000	0.000000	134.000000	60.000000	-49.000000	-39.000000
0.710000	48.350000	23.570000	733.000000	0.000000	134.000000	60.000000	6.000000	-30.000000
0.720000	49.090000	23.330000	762.000000	0.000000	132.000000	60.000000	74.000000	-24.000000
0.730000	50.840000	23.380000	797.000000	0.000000	131.000000	60.000000	175.000000	5.000000
0.740000	53.260000	23.730000	818.000000	0.000000	131.000000	60.000000	242.000000	35.000000
0.750000	56.390000	24.280000	857.000000	0.000000	131.000000	60.000000	313.000000	55.000000
0.760000	59.850000	24.990000	870.000000	0.000000	132.000000	60.000000	346.000000	71.000000
0.770000	63.520000	25.720000	896.000000	0.000000	132.000000	60.000000	367.000000	73.000000
0.780000	66.870000	26.460000	890.000000	0.000000	132.000000	60.000000	335.000000	74.000000
0.790000	69.810000	27.180000	891.000000	0.000000	134.000000	61.000000	294.000000	72.000000
0.800000	72.470000	27.760000	879.000000	0.000000	136.000000	61.000000	266.000000	58.000000
0.810000	74.400000	28.050000	869.000000	0.000000	139.000000	61.000000	193.000000	29.000000
0.820000	75.450000	28.190000	808.000000	0.000000	139.000000	61.000000	105.000000	14.000000
0.830000	75.900000	28.190000	751.000000	0.000000	142.000000	61.000000	45.000000	0.000000
0.840000	75.770000	28.060000	699.000000	0.000000	144.000000	60.000000	-13.000000	-13.000000
0.850000	74.940000	27.880000	543.000000	0.000000	146.000000	60.000000	-83.000000	-18.000000
0.860000	73.650000	27.230000	276.000000	0.000000	147.000000	59.000000	-129.000000	-65.000000
0.870000	71.660000	26.580000	71.000000	0.000000	147.000000	59.000000	-199.000000	-65.000000
0.880000	71.660000	26.580000	0.000000	1.000000	146.000000	60.000000	0.000000	0.000000
0.890000	67.470000	24.980000	0.000000	0.000000	145.000000	59.000000	-419.000000	-160.000000
0.900000	65.430000	24.160000	0.000000	0.000000	144.000000	60.000000	-204.000000	-82.000000
0.910000	63.430000	23.320000	0.000000	0.000000	141.000000	60.000000	-200.000000	-84.000000
0.920000	61.530000	22.480000	0.000000	0.000000	138.000000	60.000000	-190.000000	-84.000000
0.930000	59.690000	21.650000	0.000000	0.000000	138.000000	60.000000	-184.000000	-83.000000
0.940000	58.080000	20.940000	0.000000	0.000000	135.000000	60.000000	-161.000000	-71.000000
0.950000	58.080000	20.940000	325.000000	1.000000	135.000000	60.000000	0.000000	0.000000
0.960000	55.760000	20.130000	361.000000	0.000000	134.000000	60.000000	-232.000000	-81.000000
0.970000	55.380000	20.130000	333.000000	0.000000	134.000000	60.000000	-38.000000	0.000000
0.980000	55.380000	20.130000	341.000000	0.000000	132.000000	60.000000	0.000000	0.000000
0.990000	55.660000	20.310000	363.000000	0.000000	132.000000	60.000000	28.000000	18.000000
1.000000	56.270000	20.840000	417.000000	0.000000	131.000000	60.000000	61.000000	53.000000
1.010000	57.160000	21.620000	481.000000	0.000000	131.000000	61.000000	89.000000	78.000000
1.020000	58.240000	22.700000	557.000000	0.000000	131.000000	61.000000	108.000000	108.000000
1.030000	59.210000	23.960000	591.000000	0.000000	131.000000	61.000000	97.000000	126.000000
1.040000	60.200000	25.340000	570.000000	0.000000	131.000000	61.000000	99.000000	138.000000
1.050000	61.220000	27.080000	577.000000	0.000000	129.000000	60.000000	102.000000	174.000000
1.060000	62.310000	29.120000	496.000000	0.000000	129.000000	60.000000	109.000000	204.000000
1.070000	63.430000	31.360000	463.000000	0.000000	129.000000	60.000000	112.000000	224.000000
1.080000	64.520000	33.490000	442.000000	0.000000	129.000000	59.000000	109.000000	213.000000
1.090000	65.350000	35.530000	458.000000	0.000000	132.000000	59.000000	83.000000	204.000000
1.100000	66.050000	36.630000	486.000000	0.000000	134.000000	58.000000	70.000000	110.000000
1.110000	66.270000	37.140000	477.000000	0.000000	135.000000	58.000000	22.000000	51.000000
1.120000	66.270000	36.970000	481.000000	0.000000	139.000000	57.000000	0.000000	-17.000000
1.130000	66.120000	36.230000	483.000000	0.000000	140.000000	56.000000	-15.000000	-74.000000
1.140000	65.550000	35.110000	465.000000	0.000000	142.000000	57.000000	-57.000000	-112.000000
1.150000	64.520000	32.610000	440.000000	0.000000	143.000000	56.000000	-103.000000	-250.000000
1.160000	63.170000	30.010000	447.000000	0.000000	143.000000	56.000000	-135.000000	-260.000000
1.170000	62.270000	27.350000	466.000000	0.000000	140.000000	56.000000	-90.000000	-266.000000
1.180000	62.160000	26.080000	486.000000	0.000000	139.000000	57.000000	-11.000000	-127.000000
1.190000	62.570000	25.420000	513.000000	0.000000	136.000000	57.000000	41.000000	-66.000000
1.200000	63.140000	25.170000	567.000000	0.000000	134.000000	58.000000	57.000000	-25.000000
1.210000	63.890000	25.360000	605.000000	0.000000	132.000000	59.000000	75.000000	19.000000
1.220000	64.750000	26.130000	619.000000	0.000000	129.000000	59.000000	86.000000	77.000000
1.230000	65.740000	27.280000	624.000000	0.000000	128.000000	59.000000	99.000000	115.000000
1.240000	66.630000	28.970000	631.000000	0.000000	129.000000	60.000000	89.000000	169.000000
1.250000	67.460000	30.840000	614.000000	0.000000	129.000000	60.000000	83.000000	187.000000
1.260000	68.110000	32.840000	570.000000	0.000000	129.000000	60.000000	65.000000	200.000000
1.270000	68.870000	35.250000	545.000000	0.000000	132.000000	60.000000	76.000000	241.000000
1.280000	69.710000	37.090000	580.000000	0.000000	135.000000	59.000000	84.000000	184.000000
1.290000	70.200000	38.550000	597.000000	0.000000	138.000000	59.000000	49.000000	146.000000
1.300000	70.310000	38.550000	603.000000	0.000000	140.000000	58.000000	11.000000	0.000000
1.310000	70.160000	38.050000	628.000000	0.000000	144.000000	57.000000	-15.000000	-50.000000
1.320000	69.650000	37.190000	647.000000	0.000000	145.000000	56.000000	-51.000000	-86.000000
1.330000	68.620000	35.220000	591.000000	0.000000	145.000000	56.000000	-103.000000	-197.000000
1.340000	67.250000	32.650000	577.000000	0.000000	146.000000	55.000000	-137.000000	-257.000000
1.350000	66.220000	29.680000	602.000000	0.000000	145.000000	56.000000	-103.000000	-297.000000
1.360000	65.960000	28.300000	639.000000	0.000000	145.000000	56.000000	-26.000000	-138.000000
1.370000	66.220000	27.500000	667.000000	0.000000	144.000000	57.000000	26.000000	-80.000000
1.380000	66.560000	27.090000	721.000000	0.000000	142.000000	57.000000	34.000000	-41.000000
1.390000	66.910000	27.090000	754.000000	0.000000	140.000000	58.000000	35.000000	0.000000
1.400000	67.320000	27.520000	770.000000	0.000000	139.000000	58.000000	41.000000	43.000000
1.410000	67.790000	28.190000	760.000000	0.000000	138.000000	58.000000	47.000000	67.000000
1.420000	68.200000	29.350000	761.000000	0.000000	136.000000	58.000000	41.000000	116.000000
1.430000	68.540000	30.650000	745.000000	0.000000	136.000000	58.000000	34.000000	130.000000
1.440000	68.750000	32.040000	755.000000	0.000000	136.000000	58.000000	21.000000	139.000000
1.450000	68.860000	33.390000	774.000000	0.000000	139.000000	58.000000	11.000000	135.000000
1.460000	68.910000	33.920000	806.000000	0.000000	139.000000	58.000000	5.000000	53.000000
1.470000	68.810000	33.920000	805.000000	0.000000	139.000000	58.000000	-10.000000	0.000000
1.480000	68.600000	33.610000	811.000000	0.000000	140.000000	58.000000	-21.000000	-31.000000
1.490000	68.320000	33.250000	790.000000	0.000000	140.000000	58.000000	-28.000000	-36.000000
1.500000	67.990000	32.310000	763.000000	0.000000	142.000000	57.000000	-33.000000	-94.000000
1.510000	68.090000	31.010000	740.000000	0.000000	142.000000	57.000000	10.000000	-130.000000
1.520000	68.470000	30.210000	737.000000	0.000000	142.000000	57.000000	38.000000	-80.000000
1.530000	69.310000	29.620000	742.000000	0.000000	143.000000	56.000000	84.000000	-59.000000
1.540000	70.500000	29.170000	746.000000	0.000000	143.000000	56.000000	119.000000	-45.000000
1.550000	71.920000	28.950000	754.000000	0.000000	144.000000	57.000000	142.000000	-22.000000
1.560000	73.470000	28.950000	760.000000	0.000000	143.000000	57.000000	155.000000	0.000000
1.570000	74.760000	29.000000	777.000000	0.000000	143.000000	57.000000	129.000000	5.000000
1.580000	75.870000	28.920000	780.000000	0.000000	144.000000	58.000000	111.000000	-8.000000
1.590000	76.450000	28.820000	799.000000	0.000000	144.000000	58.000000	58.000000	-10.000000
1.600000	76.510000	28.670000	828.000000	0.000000	144.000000	58.000000	6.000000	-15.000000
1.610000	76.220000	28.450000	863.000000	0.000000	146.000000	58.000000	-29.000000	-22.000000
1.620000	75.030000	27.860000	890.000000	0.000000	146.000000	58.000000	-119.000000	-59.000000
1.630000	73.000000	27.040000	896.000000	0.000000	145.000000	59.000000	-203.000000	-82.000000
1.640000	70.410000	26.280000	878.000000	0.000000	145.000000	59.000000	-259.000000	-76.000000
1.650000	67.500000	25.230000	885.000000	0.000000	144.000000	60.000000	-291.000000	-105.000000
1.660000	64.510000	23.980000	882.000000	0.000000	141.000000	60.000000	-299.000000	-125.000000
1.670000	61.460000	22.970000	881.000000	0.000000	139.000000	61.000000	-305.000000	-101.000000
1.680000	59.100000	21.930000	899.000000	0.000000	136.000000	61.000000	-236.000000	-104.000000
1.690000	57.390000	21.240000	891.000000	0.000000	135.000000	60.000000	-171.000000	-69.000000
1.700000	56.100000	20.790000	888.000000	0.000000	134.000000	61.000000	-129.000000	-45.000000
1.710000	55.640000	20.550000	854.000000	0.000000	134.000000	61.000000	-46.000000	-24.000000
1.720000	55.560000	20.500000	825.000000	0.000000	132.000000	60.000000	-8.000000	-5.000000
1.730000	55.740000	20.570000	827.000000	0.000000	132.000000	60.000000	18.000000	7.000000
1.740000	56.360000	20.920000	815.000000	0.000000	132.000000	60.000000	62.000000	35.000000
1.750000	57.400000	21.540000	783.000000	0.000000	132.000000	60.000000	104.000000	62.000000
1.760000	58.720000	22.350000	785.000000	0.000000	132.000000	60.000000	132.000000	81.000000
1.770000	60.050000	23.460000	774.000000	0.000000	132.000000	60.000000	133.000000	111.000000
1.780000	61.230000	24.560000	785.000000	0.000000	131.000000	61.000000	118.000000	110.000000
1.790000	62.300000	25.620000	794.000000	0.000000	131.000000	61.000000	107.000000	106.000000
1.800000	63.080000	26.200000	787.000000	0.000000	131.000000	61.000000	78.000000	58.000000
1.810000	63.380000	26.460000	806.000000	0.000000	131.000000	61.000000	30.000000	26.000000
1.820000	63.380000	26.300000	826.000000	0.000000	131.000000	61.000000	0.000000	-16.000000
1.830000	63.200000	26.100000	817.000000	0.000000	131.000000	61.000000	-18.000000	-20.000000
1.840000	62.680000	25.440000	817.000000	0.000000	131.000000	61.000000	-52.000000	-66.000000
1.850000	61.920000	24.490000	821.000000	0.000000	131.000000	61.000000	-76.000000	-95.000000
1.860000	61.390000	23.630000	826.000000	0.000000	131.000000	61.000000	-53.000000	-86.000000
1.870000	61.140000	23.020000	814.000000	0.000000	131.000000	61.000000	-25.000000	-61.000000
1.880000	61.080000	22.570000	815.000000	0.000000	131.000000	61.000000	-6.000000	-45.000000
1.890000	61.230000	22.290000	815.000000	0.000000	131.000000	61.000000	15.000000	-28.000000
1.900000	61.550000	22.290000	814.000000	0.000000	129.000000	60.000000	32.000000	0.000000
1.910000	61.980000	22.360000	799.000000	0.000000	131.000000	60.000000	43.000000	7.000000
1.920000	62.720000	22.840000	783.000000	0.000000	131.000000	60.000000	74.000000	48.000000
1.930000	63.470000	23.560000	785.000000	0.000000	129.000000	60.000000	75.000000	72.000000
1.940000	64.230000	24.430000	791.000000	0.000000	129.000000	60.000000	76.000000	87.000000
1.950000	64.750000	25.410000	806.000000	0.000000	129.000000	60.000000	52.000000	98.000000
1.960000	65.110000	26.300000	825.000000	0.000000	129.000000	60.000000	36.000000	89.000000
1.970000	65.380000	27.120000	852.000000	0.000000	131.000000	61.000000	27.000000	82.000000
1.980000	65.440000	27.180000	860.000000	0.000000	131.000000	61.000000	6.000000	6.000000
1.990000	65.350000	26.950000	861.000000	0.000000	131.000000	61.000000	-9.000000	-23.000000
2.000000	65.230000	26.520000	863.000000	0.000000	134.000000	61.000000	-12.000000	-43.000000
2.010000	65.010000	25.620000	861.000000	0.000000	134.000000	61.000000	-22.000000	-90.000000
2.020000	64.720000	24.880000	864.000000	0.000000	134.000000	61.000000	-29.000000	-74.000000
2.030000	64.820000	24.240000	861.000000	0.000000	134.000000	61.000000	10.000000	-64.000000
2.040000	65.080000	23.770000	867.000000	0.000000	134.000000	61.000000	26.000000	-47.000000
2.050000	65.440000	23.540000	863.000000	0.000000	132.000000	61.000000	36.000000	-23.000000
2.060000	65.760000	23.480000	888.000000	0.000000	132.000000	61.000000	32.000000	-6.000000
2.070000	66.140000	23.650000	905.000000	0.000000	132.000000	61.000000	38.000000	17.000000
2.080000	66.500000	24.030000	896.000000	0.000000	132.000000	61.000000	36.000000	38.000000
2.090000	66.820000	24.560000	894.000000	0.000000	132.000000	61.000000	32.000000	53.000000
2.100000	67.080000	25.120000	900.000000	0.000000	132.000000	61.000000	26.000000	56.000000
2.110000	67.250000	25.380000	911.000000	0.000000	130.000000	62.000000	17.000000	26.000000
2.120000	67.350000	25.440000	924.000000	0.000000	130.000000	62.000000	10.000000	6.000000
2.130000	67.350000	25.240000	933.000000	0.000000	130.000000	62.000000	0.000000	-20.000000
2.140000	67.430000	25.000000	932.000000	0.000000	130.000000	62.000000	8.000000	-24.000000
2.150000	67.580000	24.700000	926.000000	0.000000	130.000000	62.000000	15.000000	-30.000000
2.160000	67.800000	24.370000	906.000000	0.000000	130.000000	62.000000	22.000000	-33.000000
2.170000	67.980000	24.180000	887.000000	0.000000	130.000000	62.000000	18.000000	-19.000000
