t	x	y	pressure	penup	azimuth	inclination	v_x	v_y
0.000000	91.920000	39.750000	309.000000	1.000000	109.000000	46.000000	0.000000	0.000000
0.010000	92.050000	39.160000	309.000000	0.000000	107.000000	48.000000	13.000000	-59.000000
0.020000	92.050000	39.160000	396.000000	0.000000	107.000000	49.000000	0.000000	0.000000
0.030000	92.200000	39.440000	467.000000	0.000000	106.000000	50.000000	15.000000	28.000000
0.040000	92.350000	39.940000	540.000000	0.000000	105.000000	51.000000	15.000000	50.000000
0.050000	92.710000	41.220000	605.000000	0.000000	106.000000	52.000000	36.000000	128.000000
0.060000	93.210000	43.230000	643.000000	0.000000	106.000000	52.000000	50.000000	201.000000
0.070000	93.820000	45.720000	697.000000	0.000000	106.000000	52.000000	61.000000	249.000000
0.080000	94.230000	47.750000	731.000000	0.000000	107.000000	52.000000	41.000000	203.000000
0.090000	94.500000	48.990000	762.000000	0.000000	107.000000	52.000000	27.000000	124.000000
0.100000	94.440000	49.700000	821.000000	0.000000	109.000000	52.000000	-6.000000	71.000000
0.110000	94.360000	49.700000	831.000000	0.000000	110.000000	52.000000	-8.000000	0.000000
0.120000	94.270000	49.420000	827.000000	0.000000	112.000000	52.000000	-9.000000	-28.000000
0.130000	94.210000	48.850000	836.000000	0.000000	112.000000	52.000000	-6.000000	-57.000000
0.140000	94.160000	47.290000	831.000000	0.000000	112.000000	52.000000	-5.000000	-156.000000
0.150000	94.160000	45.960000	831.000000	0.000000	113.000000	52.000000	0.000000	-133.000000
0.160000	94.230000	44.780000	830.000000	0.000000	113.000000	52.000000	7.000000	-118.000000
0.170000	94.550000	44.050000	791.000000	0.000000	113.000000	52.000000	32.000000	-73.000000
0.180000	95.000000	43.960000	791.000000	0.000000	113.000000	52.000000	45.000000	-9.000000
0.190000	95.750000	44.310000	805.000000	0.000000	113.000000	52.000000	75.000000	35.000000
0.200000	96.570000	45.450000	819.000000	0.000000	112.000000	51.000000	82.000000	114.000000
0.210000	97.440000	46.950000	834.000000	0.000000	112.000000	51.000000	87.000000	150.000000
0.220000	97.970000	48.690000	842.000000	0.000000	113.000000	52.000000	53.000000	174.000000
0.230000	98.170000	50.200000	851.000000	0.000000	113.000000	52.000000	20.000000	151.000000
0.240000	98.170000	50.810000	878.000000	0.000000	113.000000	52.000000	0.000000	61.000000
0.250000	98.010000	50.810000	882.000000	0.000000	114.000000	53.000000	-16.000000	0.000000
0.260000	97.810000	50.350000	879.000000	0.000000	114.000000	53.000000	-20.000000	-46.000000
0.270000	97.550000	49.270000	879.000000	0.000000	114.000000	53.000000	-26.000000	-108.000000
0.280000	97.450000	47.790000	879.000000	0.000000	114.000000	53.000000	-10.000000	-148.000000
0.290000	97.450000	46.860000	882.000000	0.000000	114.000000	53.000000	0.000000	-93.000000
0.300000	97.580000	46.130000	891.000000	0.000000	114.000000	53.000000	13.000000	-73.000000
0.310000	97.640000	45.530000	897.000000	0.000000	114.000000	53.000000	6.000000	-60.000000
0.320000	97.710000	45.180000	899.000000	0.000000	114.000000	53.000000	7.000000	-35.000000
0.330000	97.760000	44.960000	906.000000	0.000000	114.000000	53.000000	5.000000	-22.000000
0.340000	97.760000	44.830000	905.000000	0.000000	114.000000	53.000000	0.000000	-13.000000
0.350000	97.940000	44.830000	894.000000	0.000000	114.000000	53.000000	18.000000	0.000000
0.360000	98.270000	44.980000	896.000000	0.000000	114.000000	53.000000	33.000000	15.000000
0.370000	98.720000	45.300000	896.000000	0.000000	114.000000	53.000000	45.000000	32.000000
0.380000	98.940000	45.580000	909.000000	0.000000	114.000000	53.000000	22.000000	28.000000
0.390000	99.020000	45.720000	891.000000	0.000000	114.000000	53.000000	8.000000	14.000000
0.400000	99.020000	45.720000	832.000000	0.000000	114.000000	53.000000	0.000000	0.000000
0.410000	99.020000	45.720000	543.000000	0.000000	114.000000	53.000000	0.000000	0.000000
0.420000	99.020000	45.720000	0.000000	1.000000	114.000000	53.000000	0.000000	0.000000
0.430000	99.020000	45.720000	0.000000	0.000000	114.000000	53.000000	0.000000	0.000000
0.440000	99.020000	45.830000	0.000000	0.000000	113.000000	54.000000	0.000000	11.000000
0.450000	99.540000	46.070000	0.000000	0.000000	113.000000	54.000000	52.000000	24.000000
0.460000	100.320000	46.520000	0.000000	0.000000	113.000000	54.000000	78.000000	45.000000
0.470000	101.440000	46.800000	0.000000	0.000000	112.000000	53.000000	112.000000	28.000000
0.480000	102.420000	46.980000	0.000000	0.000000	111.000000	53.000000	98.000000	18.000000
0.490000	103.300000	46.980000	0.000000	0.000000	111.000000	53.000000	88.000000	0.000000
0.500000	103.710000	47.050000	0.000000	0.000000	110.000000	52.000000	41.000000	7.000000
0.510000	103.710000	47.050000	0.000000	0.000000	110.000000	52.000000	0.000000	0.000000
0.520000	103.440000	47.120000	0.000000	0.000000	110.000000	52.000000	-27.000000	7.000000
0.530000	103.210000	47.280000	0.000000	0.000000	110.000000	51.000000	-23.000000	16.000000
0.540000	103.000000	47.620000	0.000000	0.000000	110.000000	51.000000	-21.000000	34.000000
0.550000	102.880000	48.020000	0.000000	0.000000	110.000000	51.000000	-12.000000	40.000000
0.560000	102.880000	48.460000	0.000000	0.000000	112.000000	52.000000	0.000000	44.000000
0.570000	102.980000	48.870000	0.000000	0.000000	112.000000	52.000000	10.000000	41.000000
0.580000	103.200000	49.230000	0.000000	0.000000	112.000000	52.000000	22.000000	36.000000
0.590000	103.490000	49.540000	0.000000	0.000000	112.000000	52.000000	29.000000	31.000000
0.600000	103.490000	49.540000	158.000000	1.000000	112.000000	53.000000	0.000000	0.000000
0.610000	103.850000	50.240000	336.000000	0.000000	112.000000	53.000000	36.000000	70.000000
0.620000	103.950000	50.540000	540.000000	0.000000	112.000000	53.000000	10.000000	30.000000
0.630000	104.030000	50.770000	673.000000	0.000000	112.000000	53.000000	8.000000	23.000000
0.640000	104.030000	50.820000	748.000000	0.000000	112.000000	53.000000	0.000000	5.000000
0.650000	104.030000	50.760000	788.000000	0.000000	114.000000	53.000000	0.000000	-6.000000
0.660000	103.970000	50.480000	818.000000	0.000000	114.000000	53.000000	-6.000000	-28.000000
0.670000	103.690000	49.860000	839.000000	0.000000	114.000000	53.000000	-28.000000	-62.000000
0.680000	103.260000	49.020000	854.000000	0.000000	114.000000	53.000000	-43.000000	-84.000000
0.690000	102.780000	48.090000	863.000000	0.000000	114.000000	53.000000	-48.000000	-93.000000
0.700000	102.310000	47.150000	890.000000	0.000000	114.000000	53.000000	-47.000000	-94.000000
0.710000	102.060000	46.580000	888.000000	0.000000	114.000000	53.000000	-25.000000	-57.000000
0.720000	101.960000	46.260000	879.000000	0.000000	115.000000	52.000000	-10.000000	-32.000000
0.730000	102.140000	46.170000	878.000000	0.000000	115.000000	52.000000	18.000000	-9.000000
0.740000	102.670000	46.320000	890.000000	0.000000	116.000000	52.000000	53.000000	15.000000
0.750000	103.420000	46.620000	903.000000	0.000000	116.000000	52.000000	75.000000	30.000000
0.760000	104.720000	47.130000	894.000000	0.000000	118.000000	53.000000	130.000000	51.000000
0.770000	106.040000	47.590000	893.000000	0.000000	118.000000	53.000000	132.000000	46.000000
0.780000	107.370000	47.790000	892.000000	0.000000	120.000000	52.000000	133.000000	20.000000
0.790000	108.430000	47.840000	905.000000	0.000000	121.000000	53.000000	106.000000	5.000000
0.800000	109.320000	47.740000	891.000000	0.000000	121.000000	53.000000	89.000000	-10.000000
0.810000	110.000000	47.440000	876.000000	0.000000	121.000000	53.000000	68.000000	-30.000000
0.820000	110.230000	47.000000	887.000000	0.000000	121.000000	53.000000	23.000000	-44.000000
0.830000	110.160000	46.360000	906.000000	0.000000	121.000000	53.000000	-7.000000	-64.000000
0.840000	109.340000	45.480000	924.000000	0.000000	121.000000	53.000000	-82.000000	-88.000000
0.850000	107.680000	44.450000	930.000000	0.000000	120.000000	54.000000	-166.000000	-103.000000
0.860000	105.450000	43.240000	948.000000	0.000000	120.000000	54.000000	-223.000000	-121.000000
0.870000	102.700000	42.020000	950.000000	0.000000	120.000000	54.000000	-275.000000	-122.000000
0.880000	100.470000	41.120000	937.000000	0.000000	121.000000	55.000000	-223.000000	-90.000000
0.890000	98.580000	40.440000	947.000000	0.000000	120.000000	55.000000	-189.000000	-68.000000
0.900000	97.110000	39.790000	944.000000	0.000000	120.000000	55.000000	-147.000000	-65.000000
0.910000	96.180000	39.120000	942.000000	0.000000	121.000000	56.000000	-93.000000	-67.000000
0.920000	95.600000	38.410000	923.000000	0.000000	121.000000	56.000000	-58.000000	-71.000000
0.930000	95.180000	37.890000	887.000000	0.000000	121.000000	56.000000	-42.000000	-52.000000
0.940000	95.090000	37.510000	815.000000	0.000000	121.000000	56.000000	-9.000000	-38.000000
0.950000	95.220000	37.510000	832.000000	0.000000	121.000000	56.000000	13.000000	0.000000
0.960000	95.980000	37.870000	857.000000	0.000000	121.000000	56.000000	76.000000	36.000000
0.970000	97.520000	38.540000	906.000000	0.000000	121.000000	56.000000	154.000000	67.000000
0.980000	99.590000	39.300000	944.000000	0.000000	121.000000	56.000000	207.000000	76.000000
0.990000	101.820000	40.010000	941.000000	0.000000	121.000000	56.000000	223.000000	71.000000
1.000000	104.170000	40.460000	938.000000	0.000000	121.000000	56.000000	235.000000	45.000000
1.010000	106.600000	40.740000	933.000000	0.000000	119.000000	56.000000	243.000000	28.000000
1.020000	108.250000	41.060000	905.000000	0.000000	120.000000	57.000000	165.000000	32.000000
1.030000	109.140000	41.350000	902.000000	0.000000	120.000000	57.000000	89.000000	29.000000
1.040000	109.530000	41.450000	912.000000	0.000000	120.000000	57.000000	39.000000	10.000000
1.050000	109.530000	41.450000	939.000000	0.000000	120.000000	58.000000	0.000000	0.000000
1.060000	109.270000	41.350000	950.000000	0.000000	120.000000	58.000000	-26.000000	-10.000000
1.070000	108.910000	41.230000	930.000000	0.000000	120.000000	58.000000	-36.000000	-12.000000
1.080000	108.340000	41.010000	906.000000	0.000000	121.000000	59.000000	-57.000000	-22.000000
1.090000	107.790000	40.730000	818.000000	0.000000	121.000000	59.000000	-55.000000	-28.000000
1.100000	107.710000	40.650000	389.000000	0.000000	121.000000	59.000000	-8.000000	-8.000000
1.110000	107.710000	40.650000	0.000000	1.000000	121.000000	59.000000	0.000000	0.000000
1.120000	108.340000	40.610000	0.000000	0.000000	121.000000	59.000000	63.000000	-4.000000
1.130000	108.640000	40.800000	0.000000	0.000000	124.000000	60.000000	30.000000	19.000000
1.140000	108.880000	40.970000	0.000000	0.000000	124.000000	60.000000	24.000000	17.000000
1.150000	109.130000	41.170000	0.000000	0.000000	124.000000	60.000000	25.000000	20.000000
1.160000	109.520000	41.380000	0.000000	0.000000	124.000000	60.000000	39.000000	21.000000
1.170000	109.520000	41.380000	0.000000	0.000000	123.000000	59.000000	0.000000	0.000000
1.180000	109.520000	41.380000	0.000000	0.000000	123.000000	59.000000	0.000000	0.000000
1.190000	109.240000	41.380000	0.000000	0.000000	123.000000	59.000000	-28.000000	0.000000
1.200000	109.060000	41.210000	0.000000	0.000000	123.000000	59.000000	-18.000000	-17.000000
1.210000	108.930000	40.980000	0.000000	0.000000	123.000000	59.000000	-13.000000	-23.000000
1.220000	108.800000	40.750000	0.000000	0.000000	121.000000	58.000000	-13.000000	-23.000000
1.230000	108.720000	40.540000	0.000000	0.000000	120.000000	58.000000	-8.000000	-21.000000
1.240000	108.660000	40.390000	0.000000	0.000000	120.000000	58.000000	-6.000000	-15.000000
1.250000	108.660000	40.280000	0.000000	0.000000	120.000000	58.000000	0.000000	-11.000000
1.260000	108.500000	40.210000	0.000000	0.000000	120.000000	58.000000	-16.000000	-7.000000
1.270000	108.310000	40.210000	0.000000	0.000000	120.000000	58.000000	-19.000000	0.000000
1.280000	108.370000	40.260000	0.000000	0.000000	120.000000	58.000000	6.000000	5.000000
1.290000	108.560000	40.380000	0.000000	0.000000	120.000000	58.000000	19.000000	12.000000
1.300000	108.830000	40.520000	0.000000	0.000000	120.000000	58.000000	27.000000	14.000000
1.310000	109.030000	40.690000	0.000000	0.000000	120.000000	58.000000	20.000000	17.000000
1.320000	109.130000	40.890000	0.000000	0.000000	120.000000	58.000000	10.000000	20.000000
1.330000	109.130000	40.990000	0.000000	0.000000	120.000000	58.000000	0.000000	10.000000
1.340000	109.130000	40.990000	170.000000	1.000000	120.000000	58.000000	0.000000	0.000000
1.350000	109.130000	40.990000	387.000000	0.000000	120.000000	58.000000	0.000000	0.000000
1.360000	109.130000	40.990000	445.000000	0.000000	120.000000	58.000000	0.000000	0.000000
1.370000	109.130000	40.990000	540.000000	0.000000	119.000000	58.000000	0.000000	0.000000
1.380000	108.870000	40.630000	563.000000	0.000000	119.000000	58.000000	-26.000000	-36.000000
1.390000	108.810000	40.210000	591.000000	0.000000	117.000000	58.000000	-6.000000	-42.000000
1.400000	108.710000	39.650000	613.000000	0.000000	117.000000	58.000000	-10.000000	-56.000000
1.410000	108.560000	39.160000	652.000000	0.000000	117.000000	58.000000	-15.000000	-49.000000
1.420000	108.450000	38.860000	707.000000	0.000000	116.000000	58.000000	-11.000000	-30.000000
1.430000	108.370000	38.700000	737.000000	0.000000	115.000000	58.000000	-8.000000	-16.000000
1.440000	108.370000	38.760000	751.000000	0.000000	115.000000	58.000000	0.000000	6.000000
1.450000	108.370000	39.040000	784.000000	0.000000	115.000000	58.000000	0.000000	28.000000
1.460000	108.510000	39.460000	782.000000	0.000000	115.000000	58.000000	14.000000	42.000000
1.470000	108.620000	40.200000	777.000000	0.000000	115.000000	58.000000	11.000000	74.000000
1.480000	108.720000	40.900000	771.000000	0.000000	115.000000	58.000000	10.000000	70.000000
1.490000	108.720000	41.280000	771.000000	0.000000	115.000000	58.000000	0.000000	38.000000
1.500000	108.720000	41.460000	771.000000	0.000000	115.000000	58.000000	0.000000	18.000000
1.510000	108.720000	41.380000	768.000000	0.000000	115.000000	58.000000	0.000000	-8.000000
1.520000	108.780000	41.290000	767.000000	0.000000	115.000000	58.000000	6.000000	-9.000000
1.530000	108.950000	41.200000	768.000000	0.000000	114.000000	57.000000	17.000000	-9.000000
1.540000	109.180000	41.200000	782.000000	0.000000	114.000000	57.000000	23.000000	0.000000
1.550000	109.260000	41.130000	812.000000	0.000000	116.000000	56.000000	8.000000	-7.000000
1.560000	109.320000	41.130000	837.000000	0.000000	116.000000	56.000000	6.000000	0.000000
1.570000	109.320000	41.060000	855.000000	0.000000	116.000000	56.000000	0.000000	-7.000000
1.580000	109.390000	41.060000	866.000000	0.000000	116.000000	56.000000	7.000000	0.000000
1.590000	109.440000	41.060000	853.000000	0.000000	116.000000	56.000000	5.000000	0.000000
1.600000	109.580000	41.130000	860.000000	0.000000	116.000000	56.000000	14.000000	7.000000
1.610000	109.860000	41.440000	842.000000	0.000000	116.000000	56.000000	28.000000	31.000000
1.620000	110.220000	41.710000	842.000000	0.000000	116.000000	56.000000	36.000000	27.000000
1.630000	110.370000	41.900000	837.000000	0.000000	116.000000	56.000000	15.000000	19.000000
1.640000	110.470000	41.900000	833.000000	0.000000	115.000000	55.000000	10.000000	0.000000
1.650000	110.530000	41.810000	836.000000	0.000000	115.000000	55.000000	6.000000	-9.000000
1.660000	110.530000	41.540000	834.000000	0.000000	115.000000	55.000000	0.000000	-27.000000
1.670000	110.530000	41.090000	825.000000	0.000000	113.000000	56.000000	0.000000	-45.000000
1.680000	110.430000	40.520000	793.000000	0.000000	112.000000	55.000000	-10.000000	-57.000000
1.690000	110.430000	40.090000	696.000000	0.000000	112.000000	55.000000	0.000000	-43.000000
1.700000	110.530000	39.800000	449.000000	0.000000	112.000000	55.000000	10.000000	-29.000000
1.710000	110.670000	39.600000	10.000000	1.000000	112.000000	55.000000	0.000000	0.000000
1.720000	110.670000	39.600000	0.000000	0.000000	112.000000	55.000000	0.000000	0.000000
1.730000	111.370000	40.190000	0.000000	0.000000	112.000000	55.000000	70.000000	59.000000
1.740000	111.550000	40.720000	0.000000	0.000000	112.000000	55.000000	18.000000	53.000000
1.750000	111.730000	41.220000	0.000000	0.000000	112.000000	54.000000	18.000000	50.000000
1.760000	111.730000	41.220000	191.000000	1.000000	112.000000	55.000000	0.000000	0.000000
1.770000	111.730000	41.220000	337.000000	0.000000	114.000000	55.000000	0.000000	0.000000
1.780000	111.730000	41.220000	455.000000	0.000000	114.000000	55.000000	0.000000	0.000000
1.790000	111.730000	41.220000	512.000000	0.000000	114.000000	55.000000	0.000000	0.000000
1.800000	111.730000	41.220000	527.000000	0.000000	114.000000	55.000000	0.000000	0.000000
1.810000	111.730000	41.220000	492.000000	0.000000	114.000000	55.000000	0.000000	0.000000
1.820000	111.730000	41.220000	212.000000	0.000000	114.000000	55.000000	0.000000	0.000000
1.830000	111.730000	41.220000	0.000000	1.000000	114.000000	55.000000	0.000000	0.000000
1.840000	111.610000	41.750000	0.000000	0.000000	114.000000	55.000000	-12.000000	53.000000
1.850000	111.730000	42.210000	0.000000	0.000000	114.000000	55.000000	12.000000	46.000000
1.860000	111.810000	42.720000	0.000000	0.000000	114.000000	55.000000	8.000000	51.000000
1.870000	112.030000	43.110000	0.000000	0.000000	115.000000	55.000000	22.000000	39.000000
1.880000	112.350000	43.300000	0.000000	0.000000	115.000000	55.000000	32.000000	19.000000
1.890000	112.470000	43.350000	0.000000	0.000000	115.000000	55.000000	12.000000	5.000000
1.900000	112.530000	43.350000	0.000000	0.000000	115.000000	55.000000	6.000000	0.000000
1.910000	112.530000	43.350000	273.000000	1.000000	115.000000	55.000000	0.000000	0.000000
1.920000	112.330000	42.930000	497.000000	0.000000	115.000000	55.000000	-20.000000	-42.000000
1.930000	112.280000	42.710000	572.000000	0.000000	115.000000	55.000000	-5.000000	-22.000000
1.940000	112.330000	42.430000	619.000000	0.000000	115.000000	55.000000	5.000000	-28.000000
1.950000	112.540000	42.070000	647.000000	0.000000	113.000000	56.000000	21.000000	-36.000000
1.960000	112.800000	41.740000	644.000000	0.000000	113.000000	56.000000	26.000000	-33.000000
1.970000	113.110000	41.640000	666.000000	0.000000	112.000000	55.000000	31.000000	-10.000000
1.980000	113.420000	41.640000	721.000000	0.000000	112.000000	55.000000	31.000000	0.000000
1.990000	113.630000	41.820000	782.000000	0.000000	112.000000	55.000000	21.000000	18.000000
2.000000	113.790000	42.140000	826.000000	0.000000	112.000000	55.000000	16.000000	32.000000
2.010000	113.890000	42.570000	818.000000	0.000000	113.000000	56.000000	10.000000	43.000000
2.020000	113.890000	43.080000	802.000000	0.000000	113.000000	56.000000	0.000000	51.000000
2.030000	113.830000	43.580000	717.000000	0.000000	113.000000	56.000000	-6.000000	50.000000
2.040000	113.900000	44.070000	413.000000	0.000000	113.000000	56.000000	7.000000	49.000000
2.050000	113.900000	44.070000	0.000000	1.000000	113.000000	56.000000	0.000000	0.000000
2.060000	114.280000	44.420000	0.000000	0.000000	113.000000	56.000000	38.000000	35.000000
2.070000	114.630000	44.470000	0.000000	0.000000	115.000000	55.000000	35.000000	5.000000
2.080000	114.870000	44.370000	0.000000	0.000000	115.000000	55.000000	24.000000	-10.000000
2.090000	115.200000	44.170000	0.000000	0.000000	115.000000	55.000000	33.000000	-20.000000
2.100000	115.200000	44.170000	76.000000	1.000000	112.000000	55.000000	0.000000	0.000000
2.110000	115.580000	43.670000	396.000000	0.000000	112.000000	55.000000	38.000000	-50.000000
2.120000	115.480000	43.440000	509.000000	0.000000	112.000000	55.000000	-10.000000	-23.000000
2.130000	115.380000	43.360000	611.000000	0.000000	112.000000	55.000000	-10.000000	-8.000000
2.140000	115.380000	43.360000	656.000000	0.000000	112.000000	55.000000	0.000000	0.000000
2.150000	115.430000	43.360000	662.000000	0.000000	112.000000	55.000000	5.000000	0.000000
2.160000	115.490000	43.420000	630.000000	0.000000	113.000000	56.000000	6.000000	6.000000
2.170000	115.570000	43.490000	486.000000	0.000000	113.000000	56.000000	8.000000	7.000000
2.180000	115.570000	43.490000	0.000000	1.000000	113.000000	56.000000	0.000000	0.000000
2.190000	115.930000	43.860000	0.000000	0.000000	113.000000	56.000000	36.000000	37.000000
2.200000	116.260000	44.210000	0.000000	0.000000	113.000000	56.000000	33.000000	35.000000
