t	x	y	pressure	penup	azimuth	inclination	v_x	v_y
0.000000	50.180000	77.760000	12.000000	1.000000	134.000000	58.000000	0.000000	0.000000
0.010000	50.180000	77.760000	94.000000	1.000000	134.000000	58.000000	0.000000	0.000000
0.020000	50.180000	77.760000	172.000000	0.000000	134.000000	58.000000	0.000000	0.000000
0.030000	50.180000	77.760000	241.000000	0.000000	134.000000	58.000000	0.000000	0.000000
0.040000	50.180000	77.760000	324.000000	0.000000	134.000000	58.000000	0.000000	0.000000
0.050000	50.180000	77.760000	394.000000	0.000000	134.000000	58.000000	0.000000	0.000000
0.060000	50.180000	77.760000	464.000000	0.000000	134.000000	58.000000	0.000000	0.000000
0.070000	50.180000	77.760000	529.000000	0.000000	134.000000	58.000000	0.000000	0.000000
0.080000	50.180000	77.760000	578.000000	0.000000	134.000000	58.000000	0.000000	0.000000
0.090000	50.180000	77.760000	619.000000	0.000000	134.000000	58.000000	0.000000	0.000000
0.100000	50.180000	77.760000	662.000000	0.000000	134.000000	58.000000	0.000000	0.000000
0.110000	50.530000	78.330000	685.000000	0.000000	134.000000	58.000000	35.000000	57.000000
0.120000	50.930000	78.870000	721.000000	0.000000	134.000000	58.000000	40.000000	54.000000
0.130000	51.330000	79.540000	740.000000	0.000000	134.000000	58.000000	40.000000	67.000000
0.140000	51.760000	80.250000	748.000000	0.000000	135.000000	58.000000	43.000000	71.000000
0.150000	52.210000	80.970000	745.000000	0.000000	134.000000	57.000000	45.000000	72.000000
0.160000	52.680000	81.710000	748.000000	0.000000	134.000000	57.000000	47.000000	74.000000
0.170000	53.070000	82.410000	742.000000	0.000000	134.000000	57.000000	39.000000	70.000000
0.180000	53.400000	83.090000	736.000000	0.000000	132.000000	57.000000	33.000000	68.000000
0.190000	53.700000	83.720000	733.000000	0.000000	134.000000	56.000000	30.000000	63.000000
0.200000	53.980000	84.310000	722.000000	0.000000	134.000000	56.000000	28.000000	59.000000
0.210000	54.240000	84.880000	731.000000	0.000000	134.000000	56.000000	26.000000	57.000000
0.220000	54.510000	85.420000	719.000000	0.000000	134.000000	56.000000	27.000000	54.000000
0.230000	54.780000	85.870000	716.000000	0.000000	134.000000	56.000000	27.000000	45.000000
0.240000	54.940000	86.110000	711.000000	0.000000	134.000000	56.000000	16.000000	24.000000
0.250000	55.030000	86.210000	716.000000	0.000000	134.000000	56.000000	9.000000	10.000000
0.260000	55.030000	86.210000	717.000000	0.000000	134.000000	56.000000	0.000000	0.000000
0.270000	54.900000	86.100000	716.000000	0.000000	132.000000	57.000000	-13.000000	-11.000000
0.280000	54.740000	85.770000	719.000000	0.000000	132.000000	57.000000	-16.000000	-33.000000
0.290000	54.500000	85.270000	717.000000	0.000000	132.000000	57.000000	-24.000000	-50.000000
0.300000	54.310000	84.540000	722.000000	0.000000	132.000000	57.000000	-19.000000	-73.000000
0.310000	54.210000	83.970000	716.000000	0.000000	132.000000	57.000000	-10.000000	-57.000000
0.320000	54.210000	83.510000	711.000000	0.000000	134.000000	56.000000	0.000000	-46.000000
0.330000	54.210000	83.150000	699.000000	0.000000	134.000000	56.000000	0.000000	-36.000000
0.340000	54.350000	82.880000	690.000000	0.000000	134.000000	56.000000	14.000000	-27.000000
0.350000	54.350000	82.880000	682.000000	0.000000	135.000000	55.000000	0.000000	0.000000
0.360000	54.690000	82.580000	675.000000	0.000000	135.000000	55.000000	34.000000	-30.000000
0.370000	54.860000	82.580000	669.000000	0.000000	135.000000	55.000000	17.000000	0.000000
0.380000	55.040000	82.650000	673.000000	0.000000	135.000000	55.000000	18.000000	7.000000
0.390000	55.220000	82.880000	675.000000	0.000000	135.000000	55.000000	18.000000	23.000000
0.400000	55.450000	83.210000	672.000000	0.000000	135.000000	55.000000	23.000000	33.000000
0.410000	55.700000	83.600000	670.000000	0.000000	135.000000	55.000000	25.000000	39.000000
0.420000	55.920000	84.000000	673.000000	0.000000	135.000000	55.000000	22.000000	40.000000
0.430000	56.120000	84.180000	667.000000	0.000000	135.000000	55.000000	20.000000	18.000000
0.440000	56.120000	84.180000	667.000000	0.000000	135.000000	55.000000	0.000000	0.000000
0.450000	56.120000	84.180000	666.000000	0.000000	135.000000	55.000000	0.000000	0.000000
0.460000	56.120000	84.100000	667.000000	0.000000	135.000000	55.000000	0.000000	-8.000000
0.470000	56.050000	83.860000	669.000000	0.000000	135.000000	55.000000	-7.000000	-24.000000
0.480000	56.050000	83.520000	672.000000	0.000000	135.000000	55.000000	0.000000	-34.000000
0.490000	56.050000	83.230000	667.000000	0.000000	135.000000	55.000000	0.000000	-29.000000
0.500000	56.110000	82.950000	667.000000	0.000000	135.000000	55.000000	6.000000	-28.000000
0.510000	56.220000	82.720000	673.000000	0.000000	135.000000	55.000000	11.000000	-23.000000
0.520000	56.400000	82.650000	671.000000	0.000000	135.000000	55.000000	18.000000	-7.000000
0.530000	56.580000	82.650000	670.000000	0.000000	135.000000	55.000000	18.000000	0.000000
0.540000	56.780000	82.790000	676.000000	0.000000	135.000000	55.000000	20.000000	14.000000
0.550000	57.030000	83.070000	682.000000	0.000000	136.000000	56.000000	25.000000	28.000000
0.560000	57.290000	83.460000	682.000000	0.000000	136.000000	56.000000	26.000000	39.000000
0.570000	57.540000	83.800000	682.000000	0.000000	136.000000	56.000000	25.000000	34.000000
0.580000	57.810000	84.120000	685.000000	0.000000	136.000000	56.000000	27.000000	32.000000
0.590000	58.120000	84.410000	688.000000	0.000000	136.000000	56.000000	31.000000	29.000000
0.600000	58.470000	84.720000	687.000000	0.000000	136.000000	56.000000	35.000000	31.000000
0.610000	58.760000	85.020000	685.000000	0.000000	135.000000	57.000000	29.000000	30.000000
0.620000	59.010000	85.330000	682.000000	0.000000	135.000000	57.000000	25.000000	31.000000
0.630000	59.210000	85.640000	678.000000	0.000000	135.000000	57.000000	20.000000	31.000000
0.640000	59.420000	85.980000	666.000000	0.000000	135.000000	57.000000	21.000000	34.000000
0.650000	59.540000	86.350000	673.000000	0.000000	134.000000	57.000000	12.000000	37.000000
0.660000	59.600000	86.650000	671.000000	0.000000	134.000000	57.000000	6.000000	30.000000
0.670000	59.600000	86.770000	666.000000	0.000000	135.000000	58.000000	0.000000	12.000000
0.680000	59.600000	86.770000	663.000000	0.000000	135.000000	58.000000	0.000000	0.000000
0.690000	59.550000	86.680000	663.000000	0.000000	135.000000	59.000000	-5.000000	-9.000000
0.700000	59.550000	86.550000	670.000000	0.000000	136.000000	60.000000	0.000000	-13.000000
0.710000	59.550000	86.350000	667.000000	0.000000	136.000000	60.000000	0.000000	-20.000000
0.720000	59.480000	85.980000	669.000000	0.000000	136.000000	60.000000	-7.000000	-37.000000
0.730000	59.360000	85.500000	672.000000	0.000000	136.000000	60.000000	-12.000000	-48.000000
0.740000	59.250000	85.030000	675.000000	0.000000	136.000000	58.000000	-11.000000	-47.000000
0.750000	59.190000	84.580000	685.000000	0.000000	136.000000	58.000000	-6.000000	-45.000000
0.760000	59.190000	84.160000	688.000000	0.000000	135.000000	58.000000	0.000000	-42.000000
0.770000	59.130000	83.750000	690.000000	0.000000	134.000000	57.000000	-6.000000	-41.000000
0.780000	59.190000	83.510000	699.000000	0.000000	135.000000	57.000000	6.000000	-24.000000
0.790000	59.260000	83.370000	702.000000	0.000000	135.000000	57.000000	7.000000	-14.000000
0.800000	59.260000	83.370000	700.000000	0.000000	134.000000	56.000000	0.000000	0.000000
0.810000	59.260000	83.370000	694.000000	0.000000	135.000000	55.000000	0.000000	0.000000
0.820000	59.260000	83.370000	688.000000	0.000000	135.000000	55.000000	0.000000	0.000000
0.830000	59.260000	83.370000	662.000000	0.000000	134.000000	55.000000	0.000000	0.000000
0.840000	59.260000	83.370000	535.000000	0.000000	135.000000	55.000000	0.000000	0.000000
0.850000	59.260000	83.370000	80.000000	0.000000	135.000000	55.000000	0.000000	0.000000
0.860000	59.260000	83.370000	0.000000	1.000000	136.000000	56.000000	0.000000	0.000000
0.870000	59.780000	83.600000	0.000000	0.000000	138.000000	57.000000	52.000000	23.000000
0.880000	60.120000	84.420000	0.000000	0.000000	138.000000	57.000000	34.000000	82.000000
0.890000	60.660000	84.990000	0.000000	0.000000	139.000000	57.000000	54.000000	57.000000
0.900000	61.530000	85.530000	0.000000	0.000000	139.000000	57.000000	87.000000	54.000000
0.910000	62.610000	86.010000	0.000000	0.000000	139.000000	57.000000	108.000000	48.000000
0.920000	63.940000	86.360000	0.000000	0.000000	139.000000	57.000000	133.000000	35.000000
0.930000	64.870000	86.650000	0.000000	0.000000	139.000000	57.000000	93.000000	29.000000
0.940000	65.730000	86.900000	0.000000	0.000000	142.000000	57.000000	86.000000	25.000000
0.950000	66.670000	87.140000	0.000000	0.000000	142.000000	57.000000	94.000000	24.000000
0.960000	67.220000	87.380000	0.000000	0.000000	142.000000	57.000000	55.000000	24.000000
0.970000	67.370000	87.650000	0.000000	0.000000	144.000000	57.000000	15.000000	27.000000
0.980000	67.260000	87.700000	0.000000	0.000000	146.000000	57.000000	-11.000000	5.000000
0.990000	66.900000	87.630000	0.000000	0.000000	147.000000	58.000000	-36.000000	-7.000000
1.000000	66.480000	87.480000	0.000000	0.000000	147.000000	58.000000	-42.000000	-15.000000
1.010000	66.010000	87.330000	0.000000	0.000000	147.000000	58.000000	-47.000000	-15.000000
1.020000	65.650000	87.210000	0.000000	0.000000	146.000000	58.000000	-36.000000	-12.000000
1.030000	65.440000	87.100000	0.000000	0.000000	146.000000	58.000000	-21.000000	-11.000000
1.040000	65.340000	87.100000	0.000000	0.000000	144.000000	58.000000	-10.000000	0.000000
1.050000	65.340000	87.170000	0.000000	0.000000	142.000000	58.000000	0.000000	7.000000
1.060000	65.340000	87.170000	0.000000	0.000000	142.000000	58.000000	0.000000	0.000000
1.070000	65.560000	87.500000	0.000000	0.000000	141.000000	59.000000	22.000000	33.000000
1.080000	65.710000	87.650000	0.000000	0.000000	139.000000	58.000000	15.000000	15.000000
1.090000	65.790000	87.760000	0.000000	0.000000	139.000000	58.000000	8.000000	11.000000
1.100000	65.790000	87.820000	0.000000	0.000000	138.000000	59.000000	0.000000	6.000000
1.110000	65.790000	87.870000	0.000000	0.000000	138.000000	59.000000	0.000000	5.000000
1.120000	65.730000	87.930000	0.000000	0.000000	138.000000	59.000000	-6.000000	6.000000
1.130000	65.680000	88.040000	0.000000	0.000000	138.000000	59.000000	-5.000000	11.000000
1.140000	65.680000	88.190000	0.000000	0.000000	138.000000	59.000000	0.000000	15.000000
1.150000	65.680000	88.280000	0.000000	0.000000	138.000000	59.000000	0.000000	9.000000
1.160000	65.750000	88.370000	0.000000	0.000000	138.000000	59.000000	7.000000	9.000000
1.170000	65.820000	88.430000	0.000000	0.000000	138.000000	59.000000	7.000000	6.000000
1.180000	65.920000	88.500000	0.000000	0.000000	138.000000	59.000000	10.000000	7.000000
1.190000	66.000000	88.580000	0.000000	0.000000	138.000000	59.000000	8.000000	8.000000
1.200000	66.070000	88.680000	0.000000	0.000000	138.000000	59.000000	7.000000	10.000000
1.210000	66.070000	88.680000	20.000000	1.000000	138.000000	59.000000	0.000000	0.000000
1.220000	66.070000	88.680000	96.000000	0.000000	139.000000	58.000000	0.000000	0.000000
1.230000	66.070000	88.680000	179.000000	0.000000	139.000000	58.000000	0.000000	0.000000
1.240000	66.070000	88.680000	240.000000	0.000000	139.000000	58.000000	0.000000	0.000000
1.250000	66.070000	88.680000	281.000000	0.000000	139.000000	58.000000	0.000000	0.000000
1.260000	66.070000	88.680000	319.000000	0.000000	139.000000	58.000000	0.000000	0.000000
1.270000	66.070000	88.680000	334.000000	0.000000	139.000000	58.000000	0.000000	0.000000
1.280000	66.070000	88.680000	371.000000	0.000000	139.000000	58.000000	0.000000	0.000000
1.290000	66.070000	88.680000	413.000000	0.000000	140.000000	58.000000	0.000000	0.000000
1.300000	66.080000	88.410000	433.000000	0.000000	139.000000	58.000000	1.000000	-27.000000
1.310000	66.080000	88.010000	445.000000	0.000000	139.000000	58.000000	0.000000	-40.000000
1.320000	66.030000	87.500000	466.000000	0.000000	139.000000	58.000000	-5.000000	-51.000000
1.330000	65.960000	86.980000	474.000000	0.000000	139.000000	58.000000	-7.000000	-52.000000
1.340000	65.860000	86.400000	467.000000	0.000000	139.000000	58.000000	-10.000000	-58.000000
1.350000	65.790000	85.780000	470.000000	0.000000	139.000000	58.000000	-7.000000	-62.000000
1.360000	65.790000	85.190000	472.000000	0.000000	138.000000	58.000000	0.000000	-59.000000
1.370000	65.790000	84.790000	464.000000	0.000000	138.000000	58.000000	0.000000	-40.000000
1.380000	65.840000	84.520000	466.000000	0.000000	138.000000	58.000000	5.000000	-27.000000
1.390000	65.930000	84.390000	465.000000	0.000000	138.000000	58.000000	9.000000	-13.000000
1.400000	66.060000	84.330000	448.000000	0.000000	138.000000	58.000000	13.000000	-6.000000
1.410000	66.200000	84.330000	440.000000	0.000000	138.000000	58.000000	14.000000	0.000000
1.420000	66.330000	84.420000	449.000000	0.000000	138.000000	58.000000	13.000000	9.000000
1.430000	66.420000	84.520000	449.000000	0.000000	138.000000	58.000000	9.000000	10.000000
1.440000	66.530000	84.720000	440.000000	0.000000	138.000000	58.000000	11.000000	20.000000
1.450000	66.610000	84.980000	445.000000	0.000000	139.000000	57.000000	8.000000	26.000000
1.460000	66.680000	85.200000	450.000000	0.000000	138.000000	58.000000	7.000000	22.000000
1.470000	66.740000	85.390000	469.000000	0.000000	138.000000	58.000000	6.000000	19.000000
1.480000	66.820000	85.490000	477.000000	0.000000	138.000000	58.000000	8.000000	10.000000
1.490000	66.920000	85.490000	486.000000	0.000000	138.000000	58.000000	10.000000	0.000000
1.500000	66.970000	85.490000	496.000000	0.000000	139.000000	58.000000	5.000000	0.000000
1.510000	66.970000	85.300000	496.000000	0.000000	139.000000	58.000000	0.000000	-19.000000
1.520000	67.080000	85.080000	501.000000	0.000000	139.000000	58.000000	11.000000	-22.000000
1.530000	67.220000	84.870000	501.000000	0.000000	139.000000	58.000000	14.000000	-21.000000
1.540000	67.410000	84.670000	502.000000	0.000000	139.000000	58.000000	19.000000	-20.000000
1.550000	67.650000	84.590000	510.000000	0.000000	139.000000	58.000000	24.000000	-8.000000
1.560000	67.930000	84.590000	501.000000	0.000000	139.000000	58.000000	28.000000	0.000000
1.570000	68.250000	84.690000	499.000000	0.000000	141.000000	59.000000	32.000000	10.000000
1.580000	68.550000	84.880000	502.000000	0.000000	141.000000	59.000000	30.000000	19.000000
1.590000	68.790000	85.110000	501.000000	0.000000	141.000000	59.000000	24.000000	23.000000
1.600000	69.020000	85.360000	502.000000	0.000000	142.000000	59.000000	23.000000	25.000000
1.610000	69.140000	85.450000	510.000000	0.000000	144.000000	60.000000	12.000000	9.000000
1.620000	69.220000	85.530000	519.000000	0.000000	144.000000	60.000000	8.000000	8.000000
1.630000	69.220000	85.530000	512.000000	0.000000	145.000000	60.000000	0.000000	0.000000
1.640000	69.360000	85.530000	516.000000	0.000000	145.000000	60.000000	14.000000	0.000000
1.650000	69.510000	85.610000	516.000000	0.000000	147.000000	61.000000	15.000000	8.000000
1.660000	69.720000	85.690000	516.000000	0.000000	147.000000	61.000000	21.000000	8.000000
1.670000	69.940000	85.760000	512.000000	0.000000	148.000000	61.000000	22.000000	7.000000
1.680000	70.150000	85.840000	520.000000	0.000000	148.000000	61.000000	21.000000	8.000000
1.690000	70.320000	85.900000	520.000000	0.000000	148.000000	61.000000	17.000000	6.000000
1.700000	70.420000	85.900000	515.000000	0.000000	147.000000	62.000000	10.000000	0.000000
1.710000	70.470000	85.900000	515.000000	0.000000	149.000000	63.000000	5.000000	0.000000
1.720000	70.470000	85.900000	515.000000	0.000000	149.000000	63.000000	0.000000	0.000000
1.730000	70.550000	85.900000	510.000000	0.000000	149.000000	63.000000	8.000000	0.000000
1.740000	70.670000	85.900000	509.000000	0.000000	149.000000	63.000000	12.000000	0.000000
1.750000	70.880000	86.000000	505.000000	0.000000	149.000000	63.000000	21.000000	10.000000
1.760000	71.210000	86.100000	494.000000	0.000000	147.000000	62.000000	33.000000	10.000000
1.770000	71.690000	86.220000	492.000000	0.000000	147.000000	62.000000	48.000000	12.000000
1.780000	72.270000	86.320000	492.000000	0.000000	147.000000	62.000000	58.000000	10.000000
1.790000	72.840000	86.410000	492.000000	0.000000	147.000000	62.000000	57.000000	9.000000
1.800000	73.410000	86.480000	496.000000	0.000000	147.000000	62.000000	57.000000	7.000000
1.810000	73.960000	86.540000	494.000000	0.000000	146.000000	62.000000	55.000000	6.000000
1.820000	74.350000	86.540000	499.000000	0.000000	146.000000	62.000000	39.000000	0.000000
1.830000	74.650000	86.540000	501.000000	0.000000	146.000000	62.000000	30.000000	0.000000
1.840000	74.870000	86.540000	504.000000	0.000000	146.000000	62.000000	22.000000	0.000000
1.850000	75.110000	86.480000	507.000000	0.000000	144.000000	61.000000	24.000000	-6.000000
1.860000	75.350000	86.480000	505.000000	0.000000	144.000000	61.000000	24.000000	0.000000
1.870000	75.610000	86.400000	502.000000	0.000000	144.000000	61.000000	26.000000	-8.000000
1.880000	75.880000	86.340000	499.000000	0.000000	142.000000	61.000000	27.000000	-6.000000
1.890000	76.150000	86.250000	489.000000	0.000000	142.000000	61.000000	27.000000	-9.000000
1.900000	76.310000	86.140000	493.000000	0.000000	142.000000	61.000000	16.000000	-11.000000
1.910000	76.390000	86.020000	493.000000	0.000000	142.000000	61.000000	8.000000	-12.000000
1.920000	76.390000	85.900000	491.000000	0.000000	142.000000	61.000000	0.000000	-12.000000
1.930000	76.270000	85.790000	492.000000	0.000000	142.000000	61.000000	-12.000000	-11.000000
1.940000	76.150000	85.670000	509.000000	0.000000	141.000000	60.000000	-12.000000	-12.000000
1.950000	76.060000	85.580000	519.000000	0.000000	141.000000	60.000000	-9.000000	-9.000000
1.960000	75.970000	85.520000	512.000000	0.000000	141.000000	60.000000	-9.000000	-6.000000
1.970000	75.790000	85.460000	512.000000	0.000000	141.000000	60.000000	-18.000000	-6.000000
1.980000	75.530000	85.330000	518.000000	0.000000	141.000000	60.000000	-26.000000	-13.000000
1.990000	75.220000	85.170000	518.000000	0.000000	141.000000	60.000000	-31.000000	-16.000000
2.000000	74.840000	84.940000	524.000000	0.000000	141.000000	60.000000	-38.000000	-23.000000
2.010000	74.400000	84.670000	524.000000	0.000000	144.000000	60.000000	-44.000000	-27.000000
2.020000	73.930000	84.390000	519.000000	0.000000	144.000000	60.000000	-47.000000	-28.000000
2.030000	73.400000	84.090000	522.000000	0.000000	144.000000	60.000000	-53.000000	-30.000000
2.040000	72.830000	83.830000	532.000000	0.000000	144.000000	60.000000	-57.000000	-26.000000
2.050000	72.210000	83.600000	540.000000	0.000000	145.000000	60.000000	-62.000000	-23.000000
2.060000	71.520000	83.430000	539.000000	0.000000	146.000000	60.000000	-69.000000	-17.000000
2.070000	70.770000	83.270000	550.000000	0.000000	146.000000	60.000000	-75.000000	-16.000000
2.080000	69.900000	83.110000	559.000000	0.000000	148.000000	60.000000	-87.000000	-16.000000
2.090000	69.000000	82.800000	554.000000	0.000000	148.000000	60.000000	-90.000000	-31.000000
2.100000	68.090000	82.480000	535.000000	0.000000	149.000000	59.000000	-91.000000	-32.000000
2.110000	67.150000	82.160000	546.000000	0.000000	149.000000	59.000000	-94.000000	-32.000000
2.120000	66.220000	81.820000	545.000000	0.000000	149.000000	59.000000	-93.000000	-34.000000
2.130000	65.270000	81.470000	537.000000	0.000000	149.000000	59.000000	-95.000000	-35.000000
2.140000	64.300000	81.110000	543.000000	0.000000	147.000000	59.000000	-97.000000	-36.000000
2.150000	63.190000	80.810000	551.000000	0.000000	146.000000	60.000000	-111.000000	-30.000000
2.160000	61.920000	80.550000	542.000000	0.000000	146.000000	60.000000	-127.000000	-26.000000
2.170000	60.550000	80.320000	540.000000	0.000000	145.000000	59.000000	-137.000000	-23.000000
2.180000	58.930000	80.040000	557.000000	0.000000	145.000000	59.000000	-162.000000	-28.000000
2.190000	57.200000	79.740000	605.000000	0.000000	145.000000	59.000000	-173.000000	-30.000000
2.200000	55.400000	79.280000	644.000000	0.000000	143.000000	59.000000	-180.000000	-46.000000
2.210000	54.080000	78.730000	655.000000	0.000000	143.000000	59.000000	-132.000000	-55.000000
