t	x	y	pressure	penup	azimuth	inclination	v_x	v_y
0.000000	50.580000	25.880000	67.000000	1.000000	103.000000	58.000000	0.000000	0.000000
0.010000	50.580000	25.880000	105.000000	0.000000	103.000000	58.000000	0.000000	0.000000
0.020000	50.580000	25.880000	182.000000	0.000000	103.000000	58.000000	0.000000	0.000000
0.030000	50.410000	25.620000	244.000000	0.000000	103.000000	58.000000	-17.000000	-26.000000
0.040000	50.410000	25.620000	324.000000	0.000000	103.000000	58.000000	0.000000	0.000000
0.050000	50.350000	25.560000	371.000000	0.000000	103.000000	58.000000	-6.000000	-6.000000
0.060000	50.350000	25.560000	427.000000	0.000000	103.000000	58.000000	0.000000	0.000000
0.070000	50.430000	25.640000	473.000000	0.000000	103.000000	58.000000	8.000000	8.000000
0.080000	50.550000	25.810000	520.000000	0.000000	103.000000	58.000000	12.000000	17.000000
0.090000	50.840000	26.210000	543.000000	0.000000	103.000000	58.000000	29.000000	40.000000
0.100000	51.230000	26.890000	581.000000	0.000000	103.000000	58.000000	39.000000	68.000000
0.110000	51.730000	27.760000	605.000000	0.000000	103.000000	58.000000	50.000000	87.000000
0.120000	52.340000	28.630000	620.000000	0.000000	105.000000	58.000000	61.000000	87.000000
0.130000	53.010000	29.600000	627.000000	0.000000	106.000000	58.000000	67.000000	97.000000
0.140000	53.590000	30.630000	619.000000	0.000000	108.000000	58.000000	58.000000	103.000000
0.150000	54.100000	31.740000	631.000000	0.000000	110.000000	58.000000	51.000000	111.000000
0.160000	54.570000	32.850000	627.000000	0.000000	113.000000	58.000000	47.000000	111.000000
0.170000	54.950000	33.710000	622.000000	0.000000	115.000000	58.000000	38.000000	86.000000
0.180000	55.220000	34.410000	622.000000	0.000000	115.000000	58.000000	27.000000	70.000000
0.190000	55.420000	34.780000	622.000000	0.000000	117.000000	58.000000	20.000000	37.000000
0.200000	55.620000	34.960000	622.000000	0.000000	117.000000	58.000000	20.000000	18.000000
0.210000	55.690000	35.010000	620.000000	0.000000	117.000000	58.000000	7.000000	5.000000
0.220000	55.690000	34.950000	622.000000	0.000000	116.000000	58.000000	0.000000	-6.000000
0.230000	55.690000	34.830000	631.000000	0.000000	116.000000	58.000000	0.000000	-12.000000
0.240000	55.570000	34.300000	649.000000	0.000000	116.000000	58.000000	-12.000000	-53.000000
0.250000	55.460000	33.530000	659.000000	0.000000	116.000000	58.000000	-11.000000	-77.000000
0.260000	55.180000	32.510000	665.000000	0.000000	116.000000	58.000000	-28.000000	-102.000000
0.270000	54.900000	31.630000	666.000000	0.000000	116.000000	58.000000	-28.000000	-88.000000
0.280000	54.620000	30.850000	673.000000	0.000000	117.000000	58.000000	-28.000000	-78.000000
0.290000	54.490000	30.300000	665.000000	0.000000	117.000000	58.000000	-13.000000	-55.000000
0.300000	54.490000	29.980000	640.000000	0.000000	117.000000	58.000000	0.000000	-32.000000
0.310000	54.610000	29.820000	622.000000	0.000000	117.000000	58.000000	12.000000	-16.000000
0.320000	54.780000	29.820000	628.000000	0.000000	119.000000	58.000000	17.000000	0.000000
0.330000	54.990000	30.040000	625.000000	0.000000	118.000000	57.000000	21.000000	22.000000
0.340000	55.290000	30.420000	627.000000	0.000000	118.000000	57.000000	30.000000	38.000000
0.350000	55.610000	30.900000	625.000000	0.000000	118.000000	57.000000	32.000000	48.000000
0.360000	55.870000	31.370000	624.000000	0.000000	118.000000	57.000000	26.000000	47.000000
0.370000	56.100000	31.680000	622.000000	0.000000	119.000000	58.000000	23.000000	31.000000
0.380000	56.250000	31.890000	627.000000	0.000000	119.000000	58.000000	15.000000	21.000000
0.390000	56.330000	31.890000	620.000000	0.000000	119.000000	58.000000	8.000000	0.000000
0.400000	56.330000	31.890000	624.000000	0.000000	119.000000	58.000000	0.000000	0.000000
0.410000	56.330000	31.740000	628.000000	0.000000	119.000000	58.000000	0.000000	-15.000000
0.420000	56.330000	31.460000	627.000000	0.000000	119.000000	58.000000	0.000000	-28.000000
0.430000	56.330000	31.090000	627.000000	0.000000	119.000000	58.000000	0.000000	-37.000000
0.440000	56.230000	30.780000	622.000000	0.000000	119.000000	58.000000	-10.000000	-31.000000
0.450000	56.230000	30.560000	619.000000	0.000000	119.000000	58.000000	0.000000	-22.000000
0.460000	56.230000	30.410000	592.000000	0.000000	119.000000	58.000000	0.000000	-15.000000
0.470000	56.230000	30.410000	561.000000	0.000000	119.000000	58.000000	0.000000	0.000000
0.480000	56.230000	30.410000	568.000000	0.000000	119.000000	58.000000	0.000000	0.000000
0.490000	56.350000	30.490000	560.000000	0.000000	119.000000	58.000000	12.000000	8.000000
0.500000	56.480000	30.620000	570.000000	0.000000	119.000000	58.000000	13.000000	13.000000
0.510000	56.660000	30.850000	561.000000	0.000000	119.000000	58.000000	18.000000	23.000000
0.520000	56.860000	31.160000	564.000000	0.000000	119.000000	58.000000	20.000000	31.000000
0.530000	57.060000	31.530000	567.000000	0.000000	119.000000	58.000000	20.000000	37.000000
0.540000	57.320000	31.930000	578.000000	0.000000	119.000000	58.000000	26.000000	40.000000
0.550000	57.580000	32.300000	577.000000	0.000000	119.000000	58.000000	26.000000	37.000000
0.560000	57.810000	32.630000	580.000000	0.000000	119.000000	58.000000	23.000000	33.000000
0.570000	57.810000	32.630000	578.000000	0.000000	119.000000	58.000000	0.000000	0.000000
0.580000	58.110000	32.910000	578.000000	0.000000	119.000000	58.000000	30.000000	28.000000
0.590000	58.200000	32.910000	581.000000	0.000000	117.000000	58.000000	9.000000	0.000000
0.600000	58.300000	32.970000	580.000000	0.000000	116.000000	57.000000	10.000000	6.000000
0.610000	58.420000	33.030000	575.000000	0.000000	116.000000	57.000000	12.000000	6.000000
0.620000	58.540000	33.120000	577.000000	0.000000	116.000000	57.000000	12.000000	9.000000
0.630000	58.770000	33.330000	577.000000	0.000000	116.000000	56.000000	23.000000	21.000000
0.640000	59.070000	33.660000	575.000000	0.000000	116.000000	56.000000	30.000000	33.000000
0.650000	59.370000	34.070000	574.000000	0.000000	116.000000	57.000000	30.000000	41.000000
0.660000	59.690000	34.530000	575.000000	0.000000	115.000000	58.000000	32.000000	46.000000
0.670000	60.010000	35.040000	577.000000	0.000000	115.000000	58.000000	32.000000	51.000000
0.680000	60.320000	35.580000	575.000000	0.000000	115.000000	58.000000	31.000000	54.000000
0.690000	60.530000	36.080000	581.000000	0.000000	115.000000	58.000000	21.000000	50.000000
0.700000	60.690000	36.390000	586.000000	0.000000	115.000000	58.000000	16.000000	31.000000
0.710000	60.750000	36.580000	605.000000	0.000000	115.000000	58.000000	6.000000	19.000000
0.720000	60.750000	36.660000	620.000000	0.000000	116.000000	57.000000	0.000000	8.000000
0.730000	60.750000	36.730000	630.000000	0.000000	116.000000	57.000000	0.000000	7.000000
0.740000	60.750000	36.730000	631.000000	0.000000	117.000000	58.000000	0.000000	0.000000
0.750000	60.750000	36.730000	636.000000	0.000000	117.000000	58.000000	0.000000	0.000000
0.760000	60.750000	36.670000	638.000000	0.000000	119.000000	58.000000	0.000000	-6.000000
0.770000	60.670000	36.510000	642.000000	0.000000	119.000000	58.000000	-8.000000	-16.000000
0.780000	60.520000	35.910000	661.000000	0.000000	119.000000	58.000000	-15.000000	-60.000000
0.790000	60.320000	35.020000	702.000000	0.000000	119.000000	58.000000	-20.000000	-89.000000
0.800000	60.190000	34.160000	719.000000	0.000000	119.000000	58.000000	-13.000000	-86.000000
0.810000	60.080000	33.140000	752.000000	0.000000	117.000000	58.000000	-11.000000	-102.000000
0.820000	60.030000	32.020000	760.000000	0.000000	117.000000	58.000000	-5.000000	-112.000000
0.830000	60.030000	31.210000	771.000000	0.000000	116.000000	57.000000	0.000000	-81.000000
0.840000	60.150000	30.700000	782.000000	0.000000	116.000000	57.000000	12.000000	-51.000000
0.850000	60.250000	30.400000	796.000000	0.000000	116.000000	57.000000	10.000000	-30.000000
0.860000	60.320000	30.350000	799.000000	0.000000	116.000000	57.000000	7.000000	-5.000000
0.870000	60.320000	30.350000	799.000000	0.000000	116.000000	57.000000	0.000000	0.000000
0.880000	60.320000	30.350000	777.000000	0.000000	116.000000	57.000000	0.000000	0.000000
0.890000	60.210000	30.520000	652.000000	0.000000	116.000000	57.000000	-11.000000	17.000000
0.900000	60.130000	30.810000	90.000000	0.000000	116.000000	57.000000	-8.000000	29.000000
0.910000	60.130000	30.810000	0.000000	1.000000	116.000000	57.000000	0.000000	0.000000
0.920000	60.130000	31.680000	0.000000	0.000000	118.000000	57.000000	0.000000	87.000000
0.930000	60.230000	32.070000	0.000000	0.000000	118.000000	57.000000	10.000000	39.000000
0.940000	60.580000	32.410000	0.000000	0.000000	118.000000	57.000000	35.000000	34.000000
0.950000	61.100000	32.780000	0.000000	0.000000	118.000000	57.000000	52.000000	37.000000
0.960000	62.030000	33.140000	0.000000	0.000000	119.000000	56.000000	93.000000	36.000000
0.970000	63.260000	33.470000	0.000000	0.000000	121.000000	56.000000	123.000000	33.000000
0.980000	64.680000	33.900000	0.000000	0.000000	121.000000	56.000000	142.000000	43.000000
0.990000	66.170000	34.390000	0.000000	0.000000	122.000000	56.000000	149.000000	49.000000
1.000000	67.670000	34.930000	0.000000	0.000000	126.000000	56.000000	150.000000	54.000000
1.010000	69.160000	35.480000	0.000000	0.000000	129.000000	56.000000	149.000000	55.000000
1.020000	70.300000	36.040000	0.000000	0.000000	130.000000	55.000000	114.000000	56.000000
1.030000	71.250000	36.500000	0.000000	0.000000	132.000000	55.000000	95.000000	46.000000
1.040000	71.800000	36.730000	0.000000	0.000000	134.000000	55.000000	55.000000	23.000000
1.050000	71.850000	36.800000	0.000000	0.000000	135.000000	54.000000	5.000000	7.000000
1.060000	71.560000	36.620000	0.000000	0.000000	135.000000	54.000000	-29.000000	-18.000000
1.070000	70.990000	36.330000	0.000000	0.000000	135.000000	54.000000	-57.000000	-29.000000
1.080000	70.350000	35.980000	0.000000	0.000000	135.000000	54.000000	-64.000000	-35.000000
1.090000	69.660000	35.750000	0.000000	0.000000	134.000000	55.000000	-69.000000	-23.000000
1.100000	69.210000	35.620000	0.000000	0.000000	132.000000	55.000000	-45.000000	-13.000000
1.110000	68.930000	35.570000	0.000000	0.000000	132.000000	57.000000	-28.000000	-5.000000
1.120000	68.750000	35.620000	0.000000	0.000000	132.000000	57.000000	-18.000000	5.000000
1.130000	68.750000	35.710000	0.000000	0.000000	132.000000	58.000000	0.000000	9.000000
1.140000	68.750000	35.710000	0.000000	0.000000	131.000000	58.000000	0.000000	0.000000
1.150000	69.030000	35.930000	0.000000	0.000000	132.000000	59.000000	28.000000	22.000000
1.160000	69.210000	36.060000	0.000000	0.000000	132.000000	59.000000	18.000000	13.000000
1.170000	69.390000	36.200000	0.000000	0.000000	132.000000	59.000000	18.000000	14.000000
1.180000	69.460000	36.300000	0.000000	0.000000	132.000000	59.000000	7.000000	10.000000
1.190000	69.460000	36.380000	0.000000	0.000000	132.000000	59.000000	0.000000	8.000000
1.200000	69.380000	36.380000	0.000000	0.000000	132.000000	60.000000	-8.000000	0.000000
1.210000	69.210000	36.380000	0.000000	0.000000	132.000000	60.000000	-17.000000	0.000000
1.220000	68.990000	36.380000	0.000000	0.000000	132.000000	60.000000	-22.000000	0.000000
1.230000	68.810000	36.380000	0.000000	0.000000	132.000000	60.000000	-18.000000	0.000000
1.240000	68.650000	36.320000	0.000000	0.000000	131.000000	61.000000	-16.000000	-6.000000
1.250000	68.550000	36.320000	0.000000	0.000000	131.000000	61.000000	-10.000000	0.000000
1.260000	68.480000	36.320000	0.000000	0.000000	131.000000	61.000000	-7.000000	0.000000
1.270000	68.430000	36.320000	0.000000	0.000000	131.000000	61.000000	-5.000000	0.000000
1.280000	68.430000	36.320000	0.000000	0.000000	131.000000	61.000000	0.000000	0.000000
1.290000	68.350000	36.410000	0.000000	0.000000	131.000000	61.000000	-8.000000	9.000000
1.300000	68.270000	36.460000	0.000000	0.000000	131.000000	61.000000	-8.000000	5.000000
1.310000	68.180000	36.460000	0.000000	0.000000	131.000000	61.000000	-9.000000	0.000000
1.320000	68.080000	36.530000	0.000000	0.000000	131.000000	61.000000	-10.000000	7.000000
1.330000	67.980000	36.530000	0.000000	0.000000	129.000000	60.000000	-10.000000	0.000000
1.340000	67.910000	36.620000	0.000000	0.000000	129.000000	60.000000	-7.000000	9.000000
1.350000	67.850000	36.690000	0.000000	0.000000	129.000000	60.000000	-6.000000	7.000000
1.360000	67.780000	36.740000	0.000000	0.000000	129.000000	60.000000	-7.000000	5.000000
1.370000	67.730000	36.740000	0.000000	0.000000	129.000000	60.000000	-5.000000	0.000000
1.380000	67.730000	36.740000	0.000000	0.000000	129.000000	60.000000	0.000000	0.000000
1.390000	67.640000	36.740000	0.000000	0.000000	129.000000	60.000000	-9.000000	0.000000
1.400000	67.640000	36.740000	163.000000	1.000000	129.000000	60.000000	0.000000	0.000000
1.410000	67.640000	36.740000	220.000000	0.000000	129.000000	60.000000	0.000000	0.000000
1.420000	67.300000	36.660000	279.000000	0.000000	129.000000	60.000000	-34.000000	-8.000000
1.430000	67.300000	36.660000	341.000000	0.000000	128.000000	59.000000	0.000000	0.000000
1.440000	67.300000	36.660000	398.000000	0.000000	128.000000	59.000000	0.000000	0.000000
1.450000	67.230000	36.660000	413.000000	0.000000	128.000000	59.000000	-7.000000	0.000000
1.460000	67.340000	36.660000	420.000000	0.000000	128.000000	59.000000	11.000000	0.000000
1.470000	67.490000	36.660000	428.000000	0.000000	128.000000	59.000000	15.000000	0.000000
1.480000	67.720000	36.660000	438.000000	0.000000	128.000000	59.000000	23.000000	0.000000
1.490000	68.030000	36.800000	441.000000	0.000000	127.000000	59.000000	31.000000	14.000000
1.500000	68.430000	36.970000	449.000000	0.000000	127.000000	59.000000	40.000000	17.000000
1.510000	68.880000	37.150000	442.000000	0.000000	127.000000	59.000000	45.000000	18.000000
1.520000	69.160000	37.310000	448.000000	0.000000	128.000000	58.000000	28.000000	16.000000
1.530000	69.330000	37.430000	466.000000	0.000000	128.000000	58.000000	17.000000	12.000000
1.540000	69.420000	37.430000	491.000000	0.000000	128.000000	58.000000	9.000000	0.000000
1.550000	69.420000	37.430000	518.000000	0.000000	128.000000	58.000000	0.000000	0.000000
1.560000	69.420000	37.300000	543.000000	0.000000	127.000000	57.000000	0.000000	-13.000000
1.570000	69.270000	36.910000	589.000000	0.000000	127.000000	57.000000	-15.000000	-39.000000
1.580000	69.090000	36.340000	605.000000	0.000000	127.000000	57.000000	-18.000000	-57.000000
1.590000	68.930000	35.690000	611.000000	0.000000	127.000000	57.000000	-16.000000	-65.000000
1.600000	68.730000	35.000000	619.000000	0.000000	126.000000	58.000000	-20.000000	-69.000000
1.610000	68.510000	34.260000	619.000000	0.000000	126.000000	58.000000	-22.000000	-74.000000
1.620000	68.240000	33.610000	619.000000	0.000000	126.000000	58.000000	-27.000000	-65.000000
1.630000	68.010000	33.020000	619.000000	0.000000	124.000000	58.000000	-23.000000	-59.000000
1.640000	67.850000	32.580000	616.000000	0.000000	125.000000	59.000000	-16.000000	-44.000000
1.650000	67.730000	32.300000	613.000000	0.000000	124.000000	60.000000	-12.000000	-28.000000
1.660000	67.730000	32.300000	613.000000	0.000000	124.000000	60.000000	0.000000	0.000000
1.670000	67.550000	31.960000	614.000000	0.000000	124.000000	60.000000	-18.000000	-34.000000
1.680000	67.550000	31.840000	616.000000	0.000000	125.000000	60.000000	0.000000	-12.000000
1.690000	67.500000	31.750000	620.000000	0.000000	126.000000	60.000000	-5.000000	-9.000000
1.700000	67.500000	31.750000	617.000000	0.000000	126.000000	60.000000	0.000000	0.000000
1.710000	67.560000	31.750000	613.000000	0.000000	126.000000	60.000000	6.000000	0.000000
1.720000	67.620000	31.750000	617.000000	0.000000	126.000000	60.000000	6.000000	0.000000
1.730000	67.860000	31.890000	619.000000	0.000000	126.000000	60.000000	24.000000	14.000000
1.740000	68.220000	32.180000	610.000000	0.000000	126.000000	60.000000	36.000000	29.000000
1.750000	68.670000	32.460000	617.000000	0.000000	126.000000	60.000000	45.000000	28.000000
1.760000	69.120000	32.740000	613.000000	0.000000	126.000000	60.000000	45.000000	28.000000
1.770000	69.590000	33.010000	613.000000	0.000000	126.000000	60.000000	47.000000	27.000000
1.780000	70.080000	33.180000	606.000000	0.000000	126.000000	60.000000	49.000000	17.000000
1.790000	70.610000	33.330000	613.000000	0.000000	125.000000	59.000000	53.000000	15.000000
1.800000	71.220000	33.480000	613.000000	0.000000	125.000000	59.000000	61.000000	15.000000
1.810000	71.900000	33.580000	614.000000	0.000000	125.000000	59.000000	68.000000	10.000000
1.820000	72.610000	33.700000	611.000000	0.000000	125.000000	59.000000	71.000000	12.000000
1.830000	73.320000	33.820000	609.000000	0.000000	126.000000	60.000000	71.000000	12.000000
1.840000	74.010000	33.910000	599.000000	0.000000	126.000000	60.000000	69.000000	9.000000
1.850000	74.510000	33.990000	597.000000	0.000000	126.000000	60.000000	50.000000	8.000000
1.860000	74.920000	34.090000	603.000000	0.000000	128.000000	61.000000	41.000000	10.000000
1.870000	75.230000	34.150000	609.000000	0.000000	128.000000	61.000000	31.000000	6.000000
1.880000	75.360000	34.150000	625.000000	0.000000	128.000000	61.000000	13.000000	0.000000
1.890000	75.360000	34.150000	647.000000	0.000000	129.000000	61.000000	0.000000	0.000000
1.900000	75.360000	34.150000	664.000000	0.000000	129.000000	61.000000	0.000000	0.000000
1.910000	75.230000	34.150000	676.000000	0.000000	131.000000	61.000000	-13.000000	0.000000
1.920000	75.070000	34.020000	672.000000	0.000000	131.000000	61.000000	-16.000000	-13.000000
1.930000	74.730000	33.840000	675.000000	0.000000	131.000000	61.000000	-34.000000	-18.000000
1.940000	74.170000	33.570000	673.000000	0.000000	131.000000	61.000000	-56.000000	-27.000000
1.950000	73.450000	33.230000	638.000000	0.000000	131.000000	61.000000	-72.000000	-34.000000
1.960000	72.340000	32.800000	630.000000	0.000000	131.000000	61.000000	-111.000000	-43.000000
1.970000	70.860000	32.290000	627.000000	0.000000	131.000000	61.000000	-148.000000	-51.000000
1.980000	69.120000	31.630000	636.000000	0.000000	131.000000	61.000000	-174.000000	-66.000000
1.990000	66.970000	30.870000	681.000000	0.000000	129.000000	60.000000	-215.000000	-76.000000
2.000000	64.820000	30.100000	708.000000	0.000000	129.000000	60.000000	-215.000000	-77.000000
2.010000	62.540000	29.160000	731.000000	0.000000	129.000000	60.000000	-228.000000	-94.000000
2.020000	60.170000	28.120000	753.000000	0.000000	128.000000	61.000000	-237.000000	-104.000000
2.030000	57.970000	27.000000	791.000000	0.000000	126.000000	60.000000	-220.000000	-112.000000
2.040000	55.790000	25.980000	797.000000	0.000000	125.000000	60.000000	-218.000000	-102.000000
2.050000	53.950000	25.170000	808.000000	0.000000	123.000000	61.000000	-184.000000	-81.000000
2.060000	52.320000	24.480000	809.000000	0.000000	120.000000	60.000000	-163.000000	-69.000000
2.070000	51.010000	24.010000	812.000000	0.000000	119.000000	61.000000	-131.000000	-47.000000
2.080000	50.180000	23.760000	817.000000	0.000000	117.000000	61.000000	-83.000000	-25.000000
2.090000	49.660000	23.650000	818.000000	0.000000	115.000000	62.000000	-52.000000	-11.000000
2.100000	49.660000	23.650000	800.000000	0.000000	113.000000	61.000000	0.000000	0.000000
2.110000	49.660000	23.710000	790.000000	0.000000	113.000000	61.000000	0.000000	6.000000
2.120000	49.930000	23.710000	767.000000	0.000000	113.000000	61.000000	27.000000	0.000000
2.130000	50.290000	23.710000	762.000000	0.000000	113.000000	61.000000	36.000000	0.000000
2.140000	50.980000	23.810000	762.000000	0.000000	113.000000	61.000000	69.000000	10.000000
2.150000	51.960000	23.950000	759.000000	0.000000	113.000000	61.000000	98.000000	14.000000
2.160000	53.140000	24.190000	754.000000	0.000000	113.000000	61.000000	118.000000	24.000000
2.170000	54.350000	24.510000	753.000000	0.000000	113.000000	61.000000	121.000000	32.000000
2.180000	55.560000	24.850000	753.000000	0.000000	114.000000	62.000000	121.000000	34.000000
2.190000	56.710000	25.170000	751.000000	0.000000	114.000000	62.000000	115.000000	32.000000
2.200000	57.820000	25.460000	751.000000	0.000000	114.000000	62.000000	111.000000	29.000000
2.210000	58.600000	25.610000	751.000000	0.000000	114.000000	62.000000	78.000000	15.000000
