t	x	y	pressure	penup	azimuth	inclination	v_x	v_y
0.000000	47.170000	27.790000	67.000000	1.000000	118.000000	42.000000	0.000000	0.000000
0.010000	46.830000	27.460000	50.000000	0.000000	118.000000	44.000000	-34.000000	-33.000000
0.020000	46.700000	27.260000	70.000000	0.000000	117.000000	45.000000	-13.000000	-20.000000
0.030000	46.570000	27.050000	143.000000	0.000000	118.000000	45.000000	-13.000000	-21.000000
0.040000	46.440000	26.840000	181.000000	0.000000	118.000000	46.000000	-13.000000	-21.000000
0.050000	46.380000	26.710000	206.000000	0.000000	118.000000	46.000000	-6.000000	-13.000000
0.060000	46.380000	26.630000	249.000000	0.000000	118.000000	48.000000	0.000000	-8.000000
0.070000	46.330000	26.540000	287.000000	0.000000	118.000000	48.000000	-5.000000	-9.000000
0.080000	46.330000	26.540000	294.000000	0.000000	118.000000	48.000000	0.000000	0.000000
0.090000	46.330000	26.540000	327.000000	0.000000	119.000000	47.000000	0.000000	0.000000
0.100000	46.430000	26.540000	366.000000	0.000000	119.000000	47.000000	10.000000	0.000000
0.110000	46.500000	26.790000	399.000000	0.000000	119.000000	47.000000	7.000000	25.000000
0.120000	46.820000	27.160000	417.000000	0.000000	119.000000	46.000000	32.000000	37.000000
0.130000	47.300000	28.020000	445.000000	0.000000	119.000000	46.000000	48.000000	86.000000
0.140000	47.940000	29.100000	495.000000	0.000000	119.000000	46.000000	64.000000	108.000000
0.150000	48.570000	30.340000	518.000000	0.000000	119.000000	46.000000	63.000000	124.000000
0.160000	49.210000	31.430000	542.000000	0.000000	119.000000	46.000000	64.000000	109.000000
0.170000	49.770000	32.510000	554.000000	0.000000	119.000000	46.000000	56.000000	108.000000
0.180000	50.280000	33.560000	570.000000	0.000000	118.000000	45.000000	51.000000	105.000000
0.190000	50.790000	34.540000	561.000000	0.000000	119.000000	45.000000	51.000000	98.000000
0.200000	51.230000	35.210000	569.000000	0.000000	118.000000	44.000000	44.000000	67.000000
0.210000	51.610000	35.680000	574.000000	0.000000	118.000000	44.000000	38.000000	47.000000
0.220000	51.740000	35.840000	585.000000	0.000000	120.000000	44.000000	13.000000	16.000000
0.230000	51.740000	35.840000	614.000000	0.000000	119.000000	43.000000	0.000000	0.000000
0.240000	51.740000	35.840000	608.000000	0.000000	120.000000	44.000000	0.000000	0.000000
0.250000	51.650000	35.750000	605.000000	0.000000	121.000000	44.000000	-9.000000	-9.000000
0.260000	51.460000	35.360000	609.000000	0.000000	121.000000	44.000000	-19.000000	-39.000000
0.270000	51.180000	34.760000	613.000000	0.000000	121.000000	44.000000	-28.000000	-60.000000
0.280000	50.690000	33.640000	613.000000	0.000000	121.000000	44.000000	-49.000000	-112.000000
0.290000	50.230000	32.320000	616.000000	0.000000	121.000000	44.000000	-46.000000	-132.000000
0.300000	49.840000	30.870000	614.000000	0.000000	120.000000	44.000000	-39.000000	-145.000000
0.310000	49.520000	29.720000	616.000000	0.000000	120.000000	44.000000	-32.000000	-115.000000
0.320000	49.280000	28.780000	609.000000	0.000000	120.000000	44.000000	-24.000000	-94.000000
0.330000	49.180000	27.980000	602.000000	0.000000	118.000000	44.000000	-10.000000	-80.000000
0.340000	49.180000	27.630000	589.000000	0.000000	118.000000	44.000000	0.000000	-35.000000
0.350000	49.230000	27.450000	577.000000	0.000000	117.000000	44.000000	5.000000	-18.000000
0.360000	49.300000	27.390000	567.000000	0.000000	116.000000	44.000000	7.000000	-6.000000
0.370000	49.410000	27.470000	581.000000	0.000000	116.000000	44.000000	11.000000	8.000000
0.380000	49.700000	27.820000	589.000000	0.000000	114.000000	44.000000	29.000000	35.000000
0.390000	50.110000	28.350000	585.000000	0.000000	115.000000	45.000000	41.000000	53.000000
0.400000	50.650000	29.130000	588.000000	0.000000	115.000000	45.000000	54.000000	78.000000
0.410000	51.090000	29.730000	588.000000	0.000000	115.000000	45.000000	44.000000	60.000000
0.420000	51.460000	30.210000	588.000000	0.000000	115.000000	45.000000	37.000000	48.000000
0.430000	51.800000	30.470000	589.000000	0.000000	116.000000	45.000000	34.000000	26.000000
0.440000	52.040000	30.710000	588.000000	0.000000	116.000000	45.000000	24.000000	24.000000
0.450000	52.220000	30.890000	574.000000	0.000000	118.000000	45.000000	18.000000	18.000000
0.460000	52.280000	30.890000	570.000000	0.000000	118.000000	45.000000	6.000000	0.000000
0.470000	52.280000	30.890000	575.000000	0.000000	118.000000	45.000000	0.000000	0.000000
0.480000	52.180000	30.790000	580.000000	0.000000	119.000000	45.000000	-10.000000	-10.000000
0.490000	52.060000	30.450000	584.000000	0.000000	119.000000	45.000000	-12.000000	-34.000000
0.500000	51.810000	29.960000	588.000000	0.000000	119.000000	45.000000	-25.000000	-49.000000
0.510000	51.460000	29.380000	586.000000	0.000000	119.000000	45.000000	-35.000000	-58.000000
0.520000	51.230000	28.850000	560.000000	0.000000	119.000000	45.000000	-23.000000	-53.000000
0.530000	51.230000	28.600000	518.000000	0.000000	118.000000	45.000000	0.000000	-25.000000
0.540000	51.280000	28.520000	514.000000	0.000000	118.000000	45.000000	5.000000	-8.000000
0.550000	51.490000	28.520000	486.000000	0.000000	118.000000	45.000000	21.000000	0.000000
0.560000	51.760000	28.680000	495.000000	0.000000	118.000000	45.000000	27.000000	16.000000
0.570000	52.150000	29.030000	491.000000	0.000000	118.000000	45.000000	39.000000	35.000000
0.580000	52.580000	29.520000	505.000000	0.000000	118.000000	45.000000	43.000000	49.000000
0.590000	53.030000	30.040000	515.000000	0.000000	119.000000	46.000000	45.000000	52.000000
0.600000	53.360000	30.590000	502.000000	0.000000	119.000000	46.000000	33.000000	55.000000
0.610000	53.620000	30.790000	485.000000	0.000000	119.000000	46.000000	26.000000	20.000000
0.620000	53.690000	30.700000	496.000000	0.000000	119.000000	46.000000	7.000000	-9.000000
0.630000	53.690000	30.430000	501.000000	0.000000	120.000000	46.000000	0.000000	-27.000000
0.640000	53.530000	29.780000	510.000000	0.000000	120.000000	46.000000	-16.000000	-65.000000
0.650000	53.330000	29.130000	520.000000	0.000000	120.000000	46.000000	-20.000000	-65.000000
0.660000	53.180000	28.530000	519.000000	0.000000	121.000000	46.000000	-15.000000	-60.000000
0.670000	53.180000	28.320000	501.000000	0.000000	121.000000	46.000000	0.000000	-21.000000
0.680000	53.180000	28.320000	501.000000	0.000000	121.000000	46.000000	0.000000	0.000000
0.690000	53.180000	28.320000	519.000000	0.000000	121.000000	46.000000	0.000000	0.000000
0.700000	53.240000	28.500000	518.000000	0.000000	121.000000	46.000000	6.000000	18.000000
0.710000	53.410000	28.790000	538.000000	0.000000	120.000000	46.000000	17.000000	29.000000
0.720000	53.800000	29.560000	536.000000	0.000000	120.000000	46.000000	39.000000	77.000000
0.730000	54.330000	30.650000	539.000000	0.000000	120.000000	46.000000	53.000000	109.000000
0.740000	55.050000	31.960000	567.000000	0.000000	121.000000	47.000000	72.000000	131.000000
0.750000	55.780000	33.400000	563.000000	0.000000	121.000000	47.000000	73.000000	144.000000
0.760000	56.540000	34.820000	574.000000	0.000000	122.000000	46.000000	76.000000	142.000000
0.770000	57.300000	36.060000	586.000000	0.000000	122.000000	46.000000	76.000000	124.000000
0.780000	57.910000	37.200000	595.000000	0.000000	122.000000	46.000000	61.000000	114.000000
0.790000	58.430000	38.280000	609.000000	0.000000	122.000000	46.000000	52.000000	108.000000
0.800000	58.580000	38.830000	650.000000	0.000000	123.000000	46.000000	15.000000	55.000000
0.810000	58.580000	39.020000	673.000000	0.000000	123.000000	46.000000	0.000000	19.000000
0.820000	58.470000	38.960000	667.000000	0.000000	123.000000	46.000000	-11.000000	-6.000000
0.830000	58.040000	38.280000	666.000000	0.000000	124.000000	46.000000	-43.000000	-68.000000
0.840000	57.220000	37.190000	682.000000	0.000000	124.000000	46.000000	-82.000000	-109.000000
0.850000	56.150000	35.910000	702.000000	0.000000	124.000000	46.000000	-107.000000	-128.000000
0.860000	55.370000	34.580000	702.000000	0.000000	124.000000	46.000000	-78.000000	-133.000000
0.870000	54.780000	33.140000	707.000000	0.000000	124.000000	46.000000	-59.000000	-144.000000
0.880000	54.320000	31.540000	700.000000	0.000000	124.000000	46.000000	-46.000000	-160.000000
0.890000	53.950000	29.830000	697.000000	0.000000	124.000000	46.000000	-37.000000	-171.000000
0.900000	53.950000	28.980000	663.000000	0.000000	124.000000	46.000000	0.000000	-85.000000
0.910000	54.300000	28.530000	652.000000	0.000000	124.000000	46.000000	35.000000	-45.000000
0.920000	54.720000	28.350000	668.000000	0.000000	124.000000	46.000000	42.000000	-18.000000
0.930000	55.140000	28.240000	659.000000	0.000000	123.000000	46.000000	42.000000	-11.000000
0.940000	55.690000	28.480000	673.000000	0.000000	123.000000	46.000000	55.000000	24.000000
0.950000	56.330000	28.960000	668.000000	0.000000	123.000000	46.000000	64.000000	48.000000
0.960000	57.010000	29.740000	661.000000	0.000000	123.000000	46.000000	68.000000	78.000000
0.970000	57.710000	30.680000	664.000000	0.000000	123.000000	46.000000	70.000000	94.000000
0.980000	58.410000	31.720000	665.000000	0.000000	123.000000	46.000000	70.000000	104.000000
0.990000	58.760000	32.200000	659.000000	0.000000	123.000000	46.000000	35.000000	48.000000
1.000000	58.860000	32.330000	670.000000	0.000000	123.000000	46.000000	10.000000	13.000000
1.010000	58.800000	32.220000	673.000000	0.000000	124.000000	46.000000	-6.000000	-11.000000
1.020000	58.730000	32.120000	667.000000	0.000000	124.000000	46.000000	-7.000000	-10.000000
1.030000	58.560000	31.960000	631.000000	0.000000	124.000000	46.000000	-17.000000	-16.000000
1.040000	58.320000	31.520000	574.000000	0.000000	124.000000	46.000000	-24.000000	-44.000000
1.050000	57.900000	30.910000	468.000000	0.000000	124.000000	46.000000	-42.000000	-61.000000
1.060000	57.530000	30.370000	226.000000	0.000000	124.000000	46.000000	-37.000000	-54.000000
1.070000	57.530000	30.370000	0.000000	1.000000	124.000000	46.000000	0.000000	0.000000
1.080000	57.330000	29.900000	0.000000	0.000000	124.000000	46.000000	-20.000000	-47.000000
1.090000	57.650000	30.200000	0.000000	0.000000	124.000000	46.000000	32.000000	30.000000
1.100000	57.980000	30.540000	0.000000	0.000000	124.000000	46.000000	33.000000	34.000000
1.110000	58.460000	30.900000	0.000000	0.000000	124.000000	46.000000	48.000000	36.000000
1.120000	59.050000	31.350000	0.000000	0.000000	125.000000	45.000000	59.000000	45.000000
1.130000	59.890000	31.840000	0.000000	0.000000	125.000000	45.000000	84.000000	49.000000
1.140000	60.770000	32.350000	0.000000	0.000000	125.000000	45.000000	88.000000	51.000000
1.150000	61.730000	32.900000	0.000000	0.000000	127.000000	45.000000	96.000000	55.000000
1.160000	62.720000	33.550000	0.000000	0.000000	127.000000	45.000000	99.000000	65.000000
1.170000	63.610000	34.280000	0.000000	0.000000	127.000000	45.000000	89.000000	73.000000
1.180000	64.440000	34.570000	0.000000	0.000000	128.000000	44.000000	83.000000	29.000000
1.190000	65.160000	35.050000	0.000000	0.000000	128.000000	44.000000	72.000000	48.000000
1.200000	65.910000	35.650000	0.000000	0.000000	128.000000	44.000000	75.000000	60.000000
1.210000	66.450000	35.890000	0.000000	0.000000	129.000000	44.000000	54.000000	24.000000
1.220000	66.840000	35.890000	0.000000	0.000000	130.000000	45.000000	39.000000	0.000000
1.230000	66.840000	35.830000	0.000000	0.000000	130.000000	46.000000	0.000000	-6.000000
1.240000	66.670000	35.580000	0.000000	0.000000	130.000000	46.000000	-17.000000	-25.000000
1.250000	66.380000	35.340000	0.000000	0.000000	131.000000	46.000000	-29.000000	-24.000000
1.260000	66.060000	35.110000	0.000000	0.000000	130.000000	47.000000	-32.000000	-23.000000
1.270000	65.740000	34.900000	0.000000	0.000000	130.000000	47.000000	-32.000000	-21.000000
1.280000	65.430000	34.690000	0.000000	0.000000	130.000000	47.000000	-31.000000	-21.000000
1.290000	65.190000	34.520000	0.000000	0.000000	130.000000	47.000000	-24.000000	-17.000000
1.300000	64.970000	34.370000	0.000000	0.000000	130.000000	47.000000	-22.000000	-15.000000
1.310000	64.800000	34.240000	0.000000	0.000000	129.000000	46.000000	-17.000000	-13.000000
1.320000	64.680000	34.130000	0.000000	0.000000	129.000000	46.000000	-12.000000	-11.000000
1.330000	64.560000	34.060000	0.000000	0.000000	129.000000	46.000000	-12.000000	-7.000000
1.340000	64.480000	34.060000	0.000000	0.000000	128.000000	45.000000	-8.000000	0.000000
1.350000	64.480000	33.990000	0.000000	0.000000	128.000000	45.000000	0.000000	-7.000000
1.360000	64.540000	33.990000	0.000000	0.000000	128.000000	45.000000	6.000000	0.000000
1.370000	64.540000	34.070000	0.000000	0.000000	128.000000	45.000000	0.000000	8.000000
1.380000	64.540000	34.070000	0.000000	0.000000	127.000000	45.000000	0.000000	0.000000
1.390000	64.540000	34.070000	0.000000	0.000000	127.000000	45.000000	0.000000	0.000000
1.400000	64.720000	34.410000	0.000000	0.000000	127.000000	45.000000	18.000000	34.000000
1.410000	64.720000	34.550000	0.000000	0.000000	127.000000	45.000000	0.000000	14.000000
1.420000	64.630000	34.650000	0.000000	0.000000	127.000000	45.000000	-9.000000	10.000000
1.430000	64.500000	34.650000	0.000000	0.000000	127.000000	45.000000	-13.000000	0.000000
1.440000	64.340000	34.560000	0.000000	0.000000	127.000000	45.000000	-16.000000	-9.000000
1.450000	64.080000	34.330000	0.000000	0.000000	127.000000	45.000000	-26.000000	-23.000000
1.460000	63.820000	34.020000	0.000000	0.000000	128.000000	44.000000	-26.000000	-31.000000
1.470000	63.560000	33.660000	0.000000	0.000000	128.000000	44.000000	-26.000000	-36.000000
1.480000	63.300000	33.310000	0.000000	0.000000	128.000000	44.000000	-26.000000	-35.000000
1.490000	63.070000	33.050000	0.000000	0.000000	128.000000	43.000000	-23.000000	-26.000000
1.500000	62.900000	32.840000	0.000000	0.000000	128.000000	43.000000	-17.000000	-21.000000
1.510000	62.800000	32.840000	0.000000	0.000000	127.000000	44.000000	-10.000000	0.000000
1.520000	62.800000	32.980000	0.000000	0.000000	127.000000	44.000000	0.000000	14.000000
1.530000	62.850000	33.230000	0.000000	0.000000	127.000000	44.000000	5.000000	25.000000
1.540000	63.010000	33.550000	0.000000	0.000000	127.000000	44.000000	16.000000	32.000000
1.550000	63.300000	33.860000	0.000000	0.000000	127.000000	44.000000	29.000000	31.000000
1.560000	63.670000	34.150000	0.000000	0.000000	128.000000	43.000000	37.000000	29.000000
1.570000	64.000000	34.400000	0.000000	0.000000	128.000000	43.000000	33.000000	25.000000
1.580000	64.260000	34.570000	0.000000	0.000000	128.000000	43.000000	26.000000	17.000000
1.590000	64.470000	34.660000	0.000000	0.000000	128.000000	43.000000	21.000000	9.000000
1.600000	64.470000	34.660000	0.000000	0.000000	128.000000	43.000000	0.000000	0.000000
1.610000	64.410000	34.660000	0.000000	0.000000	129.000000	43.000000	-6.000000	0.000000
1.620000	64.260000	34.550000	0.000000	0.000000	129.000000	43.000000	-15.000000	-11.000000
1.630000	64.060000	34.380000	0.000000	0.000000	129.000000	43.000000	-20.000000	-17.000000
1.640000	63.770000	34.140000	0.000000	0.000000	129.000000	43.000000	-29.000000	-24.000000
1.650000	63.420000	33.890000	0.000000	0.000000	129.000000	43.000000	-35.000000	-25.000000
1.660000	63.050000	33.640000	0.000000	0.000000	129.000000	43.000000	-37.000000	-25.000000
1.670000	62.680000	33.480000	0.000000	0.000000	129.000000	43.000000	-37.000000	-16.000000
1.680000	62.310000	33.370000	0.000000	0.000000	128.000000	42.000000	-37.000000	-11.000000
1.690000	61.960000	33.230000	0.000000	0.000000	128.000000	42.000000	-35.000000	-14.000000
1.700000	61.700000	33.110000	0.000000	0.000000	127.000000	42.000000	-26.000000	-12.000000
1.710000	61.700000	33.110000	0.000000	0.000000	127.000000	42.000000	0.000000	0.000000
1.720000	61.780000	33.260000	0.000000	0.000000	127.000000	42.000000	8.000000	15.000000
1.730000	61.960000	33.400000	0.000000	0.000000	126.000000	41.000000	18.000000	14.000000
1.740000	62.190000	33.670000	0.000000	0.000000	126.000000	41.000000	23.000000	27.000000
1.750000	62.490000	34.030000	0.000000	0.000000	126.000000	41.000000	30.000000	36.000000
1.760000	62.780000	34.290000	0.000000	0.000000	126.000000	41.000000	29.000000	26.000000
1.770000	62.970000	34.520000	0.000000	0.000000	127.000000	42.000000	19.000000	23.000000
1.780000	63.100000	34.580000	0.000000	0.000000	127.000000	42.000000	13.000000	6.000000
1.790000	63.160000	34.580000	0.000000	0.000000	127.000000	42.000000	6.000000	0.000000
1.800000	63.160000	34.490000	0.000000	0.000000	127.000000	42.000000	0.000000	-9.000000
1.810000	63.160000	34.420000	0.000000	0.000000	128.000000	42.000000	0.000000	-7.000000
1.820000	63.160000	34.320000	0.000000	0.000000	127.000000	43.000000	0.000000	-10.000000
1.830000	63.090000	34.240000	0.000000	0.000000	127.000000	43.000000	-7.000000	-8.000000
1.840000	62.930000	34.180000	0.000000	0.000000	127.000000	43.000000	-16.000000	-6.000000
1.850000	62.770000	34.090000	0.000000	0.000000	127.000000	44.000000	-16.000000	-9.000000
1.860000	62.580000	33.990000	0.000000	0.000000	127.000000	44.000000	-19.000000	-10.000000
1.870000	62.360000	33.890000	0.000000	0.000000	127.000000	44.000000	-22.000000	-10.000000
1.880000	62.250000	33.820000	0.000000	0.000000	127.000000	44.000000	-11.000000	-7.000000
1.890000	62.130000	33.750000	0.000000	0.000000	126.000000	44.000000	-12.000000	-7.000000
1.900000	62.000000	33.750000	0.000000	0.000000	126.000000	44.000000	-13.000000	0.000000
1.910000	61.940000	33.830000	0.000000	0.000000	127.000000	45.000000	-6.000000	8.000000
1.920000	61.940000	33.970000	0.000000	0.000000	127.000000	45.000000	0.000000	14.000000
1.930000	61.940000	34.170000	0.000000	0.000000	125.000000	45.000000	0.000000	20.000000
1.940000	62.000000	34.410000	0.000000	0.000000	125.000000	45.000000	6.000000	24.000000
1.950000	62.150000	34.690000	0.000000	0.000000	125.000000	45.000000	15.000000	28.000000
1.960000	62.150000	34.690000	220.000000	1.000000	124.000000	46.000000	0.000000	0.000000
1.970000	62.680000	35.240000	281.000000	0.000000	125.000000	46.000000	53.000000	55.000000
1.980000	62.790000	35.960000	301.000000	0.000000	125.000000	46.000000	11.000000	72.000000
1.990000	62.790000	36.440000	314.000000	0.000000	125.000000	46.000000	0.000000	48.000000
2.000000	63.020000	36.760000	366.000000	0.000000	125.000000	46.000000	23.000000	32.000000
2.010000	63.260000	37.200000	423.000000	0.000000	126.000000	47.000000	24.000000	44.000000
2.020000	63.420000	37.480000	448.000000	0.000000	127.000000	46.000000	16.000000	28.000000
2.030000	63.520000	37.660000	447.000000	0.000000	127.000000	46.000000	10.000000	18.000000
2.040000	63.520000	37.660000	442.000000	0.000000	129.000000	46.000000	0.000000	0.000000
2.050000	63.520000	37.600000	472.000000	0.000000	129.000000	46.000000	0.000000	-6.000000
2.060000	63.520000	37.150000	533.000000	0.000000	130.000000	46.000000	0.000000	-45.000000
2.070000	63.230000	36.440000	574.000000	0.000000	130.000000	46.000000	-29.000000	-71.000000
2.080000	62.850000	35.290000	597.000000	0.000000	130.000000	46.000000	-38.000000	-115.000000
2.090000	62.390000	34.190000	647.000000	0.000000	130.000000	46.000000	-46.000000	-110.000000
2.100000	61.990000	33.120000	652.000000	0.000000	129.000000	46.000000	-40.000000	-107.000000
2.110000	61.630000	32.240000	656.000000	0.000000	129.000000	46.000000	-36.000000	-88.000000
2.120000	61.430000	31.580000	658.000000	0.000000	129.000000	46.000000	-20.000000	-66.000000
2.130000	61.320000	31.060000	659.000000	0.000000	127.000000	46.000000	-11.000000	-52.000000
2.140000	61.240000	30.550000	644.000000	0.000000	127.000000	46.000000	-8.000000	-51.000000
2.150000	61.240000	30.330000	625.000000	0.000000	127.000000	46.000000	0.000000	-22.000000
2.160000	61.290000	30.330000	599.000000	0.000000	126.000000	46.000000	5.000000	0.000000
2.170000	61.450000	30.330000	595.000000	0.000000	126.000000	46.000000	16.000000	0.000000
2.180000	61.860000	30.690000	599.000000	0.000000	126.000000	46.000000	41.000000	36.000000
2.190000	62.420000	31.200000	595.000000	0.000000	127.000000	46.000000	56.000000	51.000000
2.200000	63.250000	31.910000	600.000000	0.000000	127.000000	46.000000	83.000000	71.000000
2.210000	64.040000	32.590000	602.000000	0.000000	127.000000	46.000000	79.000000	68.000000
