t	x	y	pressure	penup	azimuth	inclination	v_x	v_y
0.000000	90.530000	76.370000	253.000000	1.000000	113.000000	56.000000	0.000000	0.000000
0.010000	90.580000	75.320000	306.000000	0.000000	113.000000	56.000000	5.000000	-105.000000
0.020000	90.680000	75.060000	394.000000	0.000000	113.000000	56.000000	10.000000	-26.000000
0.030000	90.780000	74.770000	488.000000	0.000000	114.000000	55.000000	10.000000	-29.000000
0.040000	90.880000	74.690000	597.000000	0.000000	114.000000	55.000000	10.000000	-8.000000
0.050000	90.970000	74.740000	687.000000	0.000000	113.000000	54.000000	9.000000	5.000000
0.060000	91.130000	75.150000	745.000000	0.000000	112.000000	53.000000	16.000000	41.000000
0.070000	91.480000	76.220000	774.000000	0.000000	112.000000	52.000000	35.000000	107.000000
0.080000	91.950000	77.740000	790.000000	0.000000	113.000000	52.000000	47.000000	152.000000
0.090000	92.340000	79.520000	812.000000	0.000000	113.000000	52.000000	39.000000	178.000000
0.100000	92.650000	81.250000	826.000000	0.000000	114.000000	51.000000	31.000000	173.000000
0.110000	92.910000	82.950000	817.000000	0.000000	115.000000	52.000000	26.000000	170.000000
0.120000	93.050000	83.670000	854.000000	0.000000	116.000000	52.000000	14.000000	72.000000
0.130000	93.050000	84.060000	864.000000	0.000000	116.000000	52.000000	0.000000	39.000000
0.140000	92.920000	84.220000	870.000000	0.000000	118.000000	53.000000	-13.000000	16.000000
0.150000	92.780000	83.940000	878.000000	0.000000	120.000000	52.000000	-14.000000	-28.000000
0.160000	92.660000	83.260000	882.000000	0.000000	120.000000	52.000000	-12.000000	-68.000000
0.170000	92.570000	82.320000	906.000000	0.000000	120.000000	52.000000	-9.000000	-94.000000
0.180000	92.500000	81.190000	908.000000	0.000000	121.000000	52.000000	-7.000000	-113.000000
0.190000	92.440000	80.220000	906.000000	0.000000	121.000000	52.000000	-6.000000	-97.000000
0.200000	92.390000	79.350000	890.000000	0.000000	120.000000	52.000000	-5.000000	-87.000000
0.210000	92.560000	78.950000	860.000000	0.000000	120.000000	52.000000	17.000000	-40.000000
0.220000	92.770000	78.950000	863.000000	0.000000	120.000000	52.000000	21.000000	0.000000
0.230000	93.260000	79.140000	870.000000	0.000000	119.000000	51.000000	49.000000	19.000000
0.240000	93.920000	80.010000	870.000000	0.000000	119.000000	51.000000	66.000000	87.000000
0.250000	94.420000	81.040000	873.000000	0.000000	119.000000	51.000000	50.000000	103.000000
0.260000	94.710000	82.180000	870.000000	0.000000	120.000000	52.000000	29.000000	114.000000
0.270000	94.850000	83.160000	869.000000	0.000000	120.000000	52.000000	14.000000	98.000000
0.280000	94.850000	83.730000	870.000000	0.000000	120.000000	52.000000	0.000000	57.000000
0.290000	94.770000	84.020000	881.000000	0.000000	121.000000	53.000000	-8.000000	29.000000
0.300000	94.660000	83.960000	890.000000	0.000000	121.000000	53.000000	-11.000000	-6.000000
0.310000	94.610000	83.360000	892.000000	0.000000	121.000000	53.000000	-5.000000	-60.000000
0.320000	94.470000	82.390000	912.000000	0.000000	121.000000	53.000000	-14.000000	-97.000000
0.330000	94.280000	81.150000	917.000000	0.000000	121.000000	53.000000	-19.000000	-124.000000
0.340000	94.400000	80.060000	921.000000	0.000000	121.000000	53.000000	12.000000	-109.000000
0.350000	94.740000	79.470000	929.000000	0.000000	119.000000	53.000000	34.000000	-59.000000
0.360000	95.220000	79.160000	943.000000	0.000000	119.000000	53.000000	48.000000	-31.000000
0.370000	95.660000	79.160000	985.000000	0.000000	119.000000	53.000000	44.000000	0.000000
0.380000	95.930000	79.410000	1015.000000	0.000000	118.000000	54.000000	27.000000	25.000000
0.390000	96.080000	79.870000	1023.000000	0.000000	118.000000	54.000000	15.000000	46.000000
0.400000	96.210000	80.450000	1023.000000	0.000000	118.000000	54.000000	13.000000	58.000000
0.410000	96.210000	80.830000	977.000000	0.000000	119.000000	54.000000	0.000000	38.000000
0.420000	96.210000	81.090000	791.000000	0.000000	119.000000	54.000000	0.000000	26.000000
0.430000	96.160000	81.090000	151.000000	0.000000	119.000000	54.000000	-5.000000	0.000000
0.440000	96.160000	81.090000	0.000000	1.000000	119.000000	54.000000	0.000000	0.000000
0.450000	96.620000	81.150000	0.000000	0.000000	119.000000	54.000000	46.000000	6.000000
0.460000	97.110000	81.200000	0.000000	0.000000	120.000000	54.000000	49.000000	5.000000
0.470000	98.060000	81.260000	0.000000	0.000000	119.000000	54.000000	95.000000	6.000000
0.480000	99.310000	81.260000	0.000000	0.000000	119.000000	54.000000	125.000000	0.000000
0.490000	100.340000	81.260000	0.000000	0.000000	119.000000	54.000000	103.000000	0.000000
0.500000	101.120000	81.260000	0.000000	0.000000	117.000000	55.000000	78.000000	0.000000
0.510000	101.730000	81.260000	0.000000	0.000000	115.000000	54.000000	61.000000	0.000000
0.520000	101.940000	81.390000	0.000000	0.000000	115.000000	54.000000	21.000000	13.000000
0.530000	101.850000	81.310000	0.000000	0.000000	114.000000	55.000000	-9.000000	-8.000000
0.540000	101.550000	81.100000	0.000000	0.000000	113.000000	54.000000	-30.000000	-21.000000
0.550000	101.290000	80.900000	0.000000	0.000000	112.000000	54.000000	-26.000000	-20.000000
0.560000	101.040000	80.720000	0.000000	0.000000	112.000000	54.000000	-25.000000	-18.000000
0.570000	100.830000	80.560000	0.000000	0.000000	112.000000	55.000000	-21.000000	-16.000000
0.580000	100.760000	80.560000	0.000000	0.000000	112.000000	55.000000	-7.000000	0.000000
0.590000	100.760000	80.560000	0.000000	0.000000	113.000000	56.000000	0.000000	0.000000
0.600000	100.760000	80.560000	0.000000	0.000000	113.000000	56.000000	0.000000	0.000000
0.610000	100.860000	80.690000	0.000000	0.000000	116.000000	56.000000	10.000000	13.000000
0.620000	101.030000	80.910000	0.000000	0.000000	116.000000	56.000000	17.000000	22.000000
0.630000	101.250000	81.230000	0.000000	0.000000	116.000000	56.000000	22.000000	32.000000
0.640000	101.360000	81.560000	0.000000	0.000000	116.000000	56.000000	11.000000	33.000000
0.650000	101.410000	81.800000	0.000000	0.000000	116.000000	56.000000	5.000000	24.000000
0.660000	101.410000	81.970000	0.000000	0.000000	116.000000	56.000000	0.000000	17.000000
0.670000	101.290000	81.900000	0.000000	0.000000	116.000000	55.000000	-12.000000	-7.000000
0.680000	101.140000	81.770000	0.000000	0.000000	116.000000	55.000000	-15.000000	-13.000000
0.690000	100.980000	81.650000	0.000000	0.000000	117.000000	56.000000	-16.000000	-12.000000
0.700000	100.910000	81.560000	0.000000	0.000000	117.000000	56.000000	-7.000000	-9.000000
0.710000	100.850000	81.440000	0.000000	0.000000	118.000000	56.000000	-6.000000	-12.000000
0.720000	100.800000	81.290000	0.000000	0.000000	119.000000	56.000000	-5.000000	-15.000000
0.730000	100.720000	81.090000	0.000000	0.000000	119.000000	56.000000	-8.000000	-20.000000
0.740000	100.620000	80.880000	0.000000	0.000000	119.000000	56.000000	-10.000000	-21.000000
0.750000	100.540000	80.680000	0.000000	0.000000	119.000000	56.000000	-8.000000	-20.000000
0.760000	100.540000	80.600000	0.000000	0.000000	118.000000	57.000000	0.000000	-8.000000
0.770000	100.600000	80.730000	0.000000	0.000000	118.000000	57.000000	6.000000	13.000000
0.780000	100.800000	80.990000	0.000000	0.000000	118.000000	57.000000	20.000000	26.000000
0.790000	100.940000	81.360000	0.000000	0.000000	118.000000	57.000000	14.000000	37.000000
0.800000	101.030000	81.730000	0.000000	0.000000	118.000000	57.000000	9.000000	37.000000
0.810000	101.130000	82.070000	0.000000	0.000000	118.000000	57.000000	10.000000	34.000000
0.820000	101.180000	82.360000	0.000000	0.000000	118.000000	57.000000	5.000000	29.000000
0.830000	101.180000	82.580000	0.000000	0.000000	118.000000	57.000000	0.000000	22.000000
0.840000	101.180000	82.770000	0.000000	0.000000	118.000000	57.000000	0.000000	19.000000
0.850000	101.130000	82.900000	0.000000	0.000000	117.000000	56.000000	-5.000000	13.000000
0.860000	101.030000	82.900000	0.000000	0.000000	118.000000	56.000000	-10.000000	0.000000
0.870000	100.820000	82.900000	0.000000	0.000000	118.000000	56.000000	-21.000000	0.000000
0.880000	100.610000	82.700000	0.000000	0.000000	118.000000	56.000000	-21.000000	-20.000000
0.890000	100.410000	82.540000	0.000000	0.000000	118.000000	56.000000	-20.000000	-16.000000
0.900000	100.220000	82.400000	0.000000	0.000000	118.000000	56.000000	-19.000000	-14.000000
0.910000	100.060000	82.180000	0.000000	0.000000	120.000000	55.000000	-16.000000	-22.000000
0.920000	99.920000	82.000000	0.000000	0.000000	120.000000	55.000000	-14.000000	-18.000000
0.930000	99.830000	81.920000	0.000000	0.000000	120.000000	55.000000	-9.000000	-8.000000
0.940000	99.780000	81.920000	0.000000	0.000000	120.000000	55.000000	-5.000000	0.000000
0.950000	99.780000	81.990000	0.000000	0.000000	120.000000	55.000000	0.000000	7.000000
0.960000	99.730000	82.180000	0.000000	0.000000	120.000000	55.000000	-5.000000	19.000000
0.970000	99.730000	82.440000	0.000000	0.000000	120.000000	55.000000	0.000000	26.000000
0.980000	99.730000	82.640000	0.000000	0.000000	119.000000	54.000000	0.000000	20.000000
0.990000	99.730000	82.720000	0.000000	0.000000	119.000000	54.000000	0.000000	8.000000
1.000000	99.730000	82.720000	0.000000	0.000000	119.000000	54.000000	0.000000	0.000000
1.010000	99.780000	82.770000	0.000000	0.000000	119.000000	54.000000	5.000000	5.000000
1.020000	99.920000	82.840000	0.000000	0.000000	120.000000	55.000000	14.000000	7.000000
1.030000	100.030000	82.910000	0.000000	0.000000	120.000000	55.000000	11.000000	7.000000
1.040000	100.030000	82.910000	0.000000	0.000000	120.000000	55.000000	0.000000	0.000000
1.050000	100.030000	82.960000	0.000000	0.000000	120.000000	55.000000	0.000000	5.000000
1.060000	100.030000	82.960000	0.000000	0.000000	120.000000	55.000000	0.000000	0.000000
1.070000	99.980000	82.960000	0.000000	0.000000	120.000000	55.000000	-5.000000	0.000000
1.080000	99.930000	82.910000	0.000000	0.000000	120.000000	55.000000	-5.000000	-5.000000
1.090000	99.820000	82.810000	0.000000	0.000000	120.000000	55.000000	-11.000000	-10.000000
1.100000	99.700000	82.620000	0.000000	0.000000	120.000000	55.000000	-12.000000	-19.000000
1.110000	99.570000	82.360000	0.000000	0.000000	120.000000	55.000000	-13.000000	-26.000000
1.120000	99.520000	82.070000	0.000000	0.000000	120.000000	55.000000	-5.000000	-29.000000
1.130000	99.520000	81.780000	0.000000	0.000000	119.000000	54.000000	0.000000	-29.000000
1.140000	99.520000	81.590000	0.000000	0.000000	119.000000	54.000000	0.000000	-19.000000
1.150000	99.600000	81.450000	0.000000	0.000000	117.000000	55.000000	8.000000	-14.000000
1.160000	99.680000	81.400000	0.000000	0.000000	117.000000	54.000000	8.000000	-5.000000
1.170000	99.770000	81.450000	0.000000	0.000000	117.000000	54.000000	9.000000	5.000000
1.180000	99.860000	81.570000	0.000000	0.000000	117.000000	55.000000	9.000000	12.000000
1.190000	99.960000	81.650000	0.000000	0.000000	117.000000	55.000000	10.000000	8.000000
1.200000	99.960000	81.700000	0.000000	0.000000	117.000000	55.000000	0.000000	5.000000
1.210000	99.960000	81.700000	0.000000	0.000000	117.000000	55.000000	0.000000	0.000000
1.220000	99.890000	81.620000	0.000000	0.000000	117.000000	55.000000	-7.000000	-8.000000
1.230000	99.890000	81.620000	0.000000	0.000000	117.000000	55.000000	0.000000	0.000000
1.240000	99.890000	81.740000	0.000000	0.000000	117.000000	54.000000	0.000000	12.000000
1.250000	99.970000	81.840000	0.000000	0.000000	117.000000	54.000000	8.000000	10.000000
1.260000	100.050000	81.940000	0.000000	0.000000	116.000000	53.000000	8.000000	10.000000
1.270000	100.050000	82.010000	0.000000	0.000000	116.000000	53.000000	0.000000	7.000000
1.280000	100.050000	82.010000	0.000000	0.000000	115.000000	52.000000	0.000000	0.000000
1.290000	100.050000	82.010000	0.000000	0.000000	114.000000	51.000000	0.000000	0.000000
1.300000	99.990000	81.930000	0.000000	0.000000	114.000000	51.000000	-6.000000	-8.000000
1.310000	99.990000	81.930000	0.000000	0.000000	114.000000	51.000000	0.000000	0.000000
1.320000	99.990000	81.930000	0.000000	0.000000	114.000000	51.000000	0.000000	0.000000
1.330000	99.990000	82.000000	0.000000	0.000000	115.000000	52.000000	0.000000	7.000000
1.340000	100.040000	82.000000	0.000000	0.000000	115.000000	52.000000	5.000000	0.000000
1.350000	100.100000	82.070000	0.000000	0.000000	116.000000	53.000000	6.000000	7.000000
1.360000	100.100000	82.070000	0.000000	0.000000	117.000000	54.000000	0.000000	0.000000
1.370000	100.190000	82.130000	0.000000	0.000000	117.000000	55.000000	9.000000	6.000000
1.380000	100.190000	82.130000	0.000000	0.000000	118.000000	56.000000	0.000000	0.000000
1.390000	100.130000	82.080000	0.000000	0.000000	118.000000	56.000000	-6.000000	-5.000000
1.400000	100.130000	82.080000	0.000000	0.000000	118.000000	56.000000	0.000000	0.000000
1.410000	100.130000	82.080000	0.000000	0.000000	118.000000	56.000000	0.000000	0.000000
1.420000	100.130000	82.080000	0.000000	0.000000	118.000000	56.000000	0.000000	0.000000
1.430000	100.180000	82.130000	0.000000	0.000000	119.000000	56.000000	5.000000	5.000000
1.440000	100.290000	82.210000	0.000000	0.000000	119.000000	56.000000	11.000000	8.000000
1.450000	100.290000	82.210000	0.000000	0.000000	119.000000	56.000000	0.000000	0.000000
1.460000	100.290000	82.210000	0.000000	0.000000	119.000000	56.000000	0.000000	0.000000
1.470000	100.290000	82.210000	0.000000	0.000000	119.000000	56.000000	0.000000	0.000000
1.480000	100.290000	82.210000	0.000000	0.000000	119.000000	56.000000	0.000000	0.000000
1.490000	100.290000	82.210000	0.000000	0.000000	119.000000	56.000000	0.000000	0.000000
1.500000	100.290000	82.210000	0.000000	0.000000	119.000000	56.000000	0.000000	0.000000
1.510000	100.290000	82.210000	0.000000	0.000000	119.000000	56.000000	0.000000	0.000000
1.520000	100.290000	82.210000	0.000000	0.000000	119.000000	56.000000	0.000000	0.000000
1.530000	100.290000	82.210000	0.000000	0.000000	119.000000	56.000000	0.000000	0.000000
1.540000	100.290000	82.210000	0.000000	0.000000	119.000000	56.000000	0.000000	0.000000
1.550000	100.290000	82.210000	0.000000	0.000000	119.000000	56.000000	0.000000	0.000000
1.560000	100.290000	82.210000	0.000000	0.000000	119.000000	56.000000	0.000000	0.000000
1.570000	100.290000	82.210000	0.000000	0.000000	119.000000	56.000000	0.000000	0.000000
1.580000	100.290000	82.210000	0.000000	0.000000	119.000000	56.000000	0.000000	0.000000
1.590000	100.290000	82.210000	0.000000	0.000000	119.000000	56.000000	0.000000	0.000000
1.600000	100.290000	82.210000	0.000000	0.000000	118.000000	56.000000	0.000000	0.000000
1.610000	100.290000	82.210000	0.000000	0.000000	118.000000	56.000000	0.000000	0.000000
1.620000	100.290000	82.210000	0.000000	0.000000	117.000000	55.000000	0.000000	0.000000
1.630000	100.290000	82.210000	0.000000	0.000000	117.000000	55.000000	0.000000	0.000000
1.640000	100.290000	82.210000	0.000000	0.000000	119.000000	54.000000	0.000000	0.000000
1.650000	100.350000	82.480000	0.000000	0.000000	119.000000	54.000000	6.000000	27.000000
1.660000	100.350000	82.550000	0.000000	0.000000	119.000000	54.000000	0.000000	7.000000
1.670000	100.270000	82.610000	0.000000	0.000000	119.000000	54.000000	-8.000000	6.000000
1.680000	100.180000	82.610000	0.000000	0.000000	119.000000	54.000000	-9.000000	0.000000
1.690000	100.100000	82.660000	0.000000	0.000000	118.000000	54.000000	-8.000000	5.000000
1.700000	100.040000	82.660000	0.000000	0.000000	117.000000	53.000000	-6.000000	0.000000
1.710000	99.980000	82.610000	0.000000	0.000000	116.000000	52.000000	-6.000000	-5.000000
1.720000	99.980000	82.530000	0.000000	0.000000	115.000000	51.000000	0.000000	-8.000000
1.730000	99.930000	82.440000	0.000000	0.000000	115.000000	50.000000	-5.000000	-9.000000
1.740000	99.930000	82.440000	0.000000	0.000000	115.000000	50.000000	0.000000	0.000000
1.750000	99.930000	82.440000	0.000000	0.000000	114.000000	50.000000	0.000000	0.000000
1.760000	99.880000	82.440000	0.000000	0.000000	114.000000	50.000000	-5.000000	0.000000
1.770000	99.880000	82.680000	0.000000	0.000000	114.000000	50.000000	0.000000	24.000000
1.780000	99.950000	82.980000	0.000000	0.000000	114.000000	50.000000	7.000000	30.000000
1.790000	100.020000	83.360000	0.000000	0.000000	114.000000	50.000000	7.000000	38.000000
1.800000	100.120000	83.830000	0.000000	0.000000	114.000000	50.000000	10.000000	47.000000
1.810000	100.120000	83.830000	99.000000	1.000000	115.000000	50.000000	0.000000	0.000000
1.820000	100.370000	84.750000	216.000000	0.000000	115.000000	50.000000	25.000000	92.000000
1.830000	100.440000	85.100000	371.000000	0.000000	115.000000	50.000000	7.000000	35.000000
1.840000	100.440000	85.250000	502.000000	0.000000	116.000000	50.000000	0.000000	15.000000
1.850000	100.440000	85.300000	574.000000	0.000000	116.000000	50.000000	0.000000	5.000000
1.860000	100.380000	85.130000	644.000000	0.000000	117.000000	50.000000	-6.000000	-17.000000
1.870000	100.270000	84.420000	694.000000	0.000000	117.000000	50.000000	-11.000000	-71.000000
1.880000	100.030000	83.340000	728.000000	0.000000	117.000000	50.000000	-24.000000	-108.000000
1.890000	99.750000	82.230000	755.000000	0.000000	118.000000	49.000000	-28.000000	-111.000000
1.900000	99.430000	81.350000	754.000000	0.000000	119.000000	50.000000	-32.000000	-88.000000
1.910000	99.290000	80.620000	760.000000	0.000000	119.000000	50.000000	-14.000000	-73.000000
1.920000	99.170000	80.190000	751.000000	0.000000	118.000000	51.000000	-12.000000	-43.000000
1.930000	99.270000	80.020000	750.000000	0.000000	119.000000	51.000000	10.000000	-17.000000
1.940000	99.510000	80.020000	768.000000	0.000000	119.000000	51.000000	24.000000	0.000000
1.950000	100.180000	80.420000	787.000000	0.000000	119.000000	51.000000	67.000000	40.000000
1.960000	100.890000	81.030000	797.000000	0.000000	117.000000	52.000000	71.000000	61.000000
1.970000	101.670000	81.780000	819.000000	0.000000	118.000000	53.000000	78.000000	75.000000
1.980000	102.450000	82.130000	836.000000	0.000000	118.000000	53.000000	78.000000	35.000000
1.990000	103.140000	82.290000	840.000000	0.000000	118.000000	53.000000	69.000000	16.000000
2.000000	103.760000	82.290000	837.000000	0.000000	118.000000	53.000000	62.000000	0.000000
2.010000	104.240000	82.170000	834.000000	0.000000	119.000000	53.000000	48.000000	-12.000000
2.020000	104.730000	81.870000	817.000000	0.000000	119.000000	53.000000	49.000000	-30.000000
2.030000	104.910000	81.460000	826.000000	0.000000	119.000000	53.000000	18.000000	-41.000000
2.040000	104.910000	80.940000	825.000000	0.000000	122.000000	54.000000	0.000000	-52.000000
2.050000	104.170000	80.200000	836.000000	0.000000	122.000000	54.000000	-74.000000	-74.000000
2.060000	102.770000	79.310000	863.000000	0.000000	122.000000	54.000000	-140.000000	-89.000000
2.070000	100.920000	78.200000	869.000000	0.000000	122.000000	54.000000	-185.000000	-111.000000
2.080000	98.600000	77.050000	869.000000	0.000000	122.000000	54.000000	-232.000000	-115.000000
2.090000	96.230000	75.750000	878.000000	0.000000	122.000000	54.000000	-237.000000	-130.000000
2.100000	93.820000	74.370000	881.000000	0.000000	124.000000	54.000000	-241.000000	-138.000000
2.110000	92.240000	73.430000	897.000000	0.000000	124.000000	54.000000	-158.000000	-94.000000
2.120000	91.500000	72.990000	894.000000	0.000000	124.000000	54.000000	-74.000000	-44.000000
2.130000	91.330000	72.880000	896.000000	0.000000	124.000000	54.000000	-17.000000	-11.000000
2.140000	91.410000	72.880000	887.000000	0.000000	124.000000	54.000000	8.000000	0.000000
2.150000	91.810000	73.010000	897.000000	0.000000	124.000000	55.000000	40.000000	13.000000
2.160000	92.430000	73.170000	914.000000	0.000000	124.000000	55.000000	62.000000	16.000000
2.170000	93.980000	73.360000	968.000000	0.000000	124.000000	55.000000	155.000000	19.000000
2.180000	96.000000	73.650000	977.000000	0.000000	124.000000	55.000000	202.000000	29.000000
2.190000	98.320000	74.000000	990.000000	0.000000	122.000000	56.000000	232.000000	35.000000
2.200000	100.580000	74.440000	987.000000	0.000000	122.000000	56.000000	226.000000	44.000000
2.210000	102.070000	74.860000	991.000000	0.000000	122.000000	56.000000	149.000000	42.000000
2.220000	103.040000	75.260000	986.000000	0.000000	122.000000	56.000000	97.000000	40.000000
