t	x	y	pressure	penup	azimuth	inclination	v_x	v_y
0.000000	11.400000	77.560000	10.000000	1.000000	123.000000	47.000000	0.000000	0.000000
0.010000	11.400000	77.560000	65.000000	1.000000	123.000000	47.000000	0.000000	0.000000
0.020000	11.400000	77.560000	98.000000	0.000000	123.000000	47.000000	0.000000	0.000000
0.030000	11.400000	77.560000	132.000000	0.000000	123.000000	47.000000	0.000000	0.000000
0.040000	11.580000	77.810000	158.000000	0.000000	123.000000	47.000000	18.000000	25.000000
0.050000	11.650000	77.890000	191.000000	0.000000	123.000000	47.000000	7.000000	8.000000
0.060000	11.760000	78.020000	220.000000	0.000000	123.000000	47.000000	11.000000	13.000000
0.070000	11.760000	78.020000	244.000000	0.000000	123.000000	47.000000	0.000000	0.000000
0.080000	12.000000	78.340000	274.000000	0.000000	124.000000	47.000000	24.000000	32.000000
0.090000	12.130000	78.500000	299.000000	0.000000	124.000000	47.000000	13.000000	16.000000
0.100000	12.270000	78.690000	309.000000	0.000000	124.000000	47.000000	14.000000	19.000000
0.110000	12.420000	78.910000	338.000000	0.000000	124.000000	47.000000	15.000000	22.000000
0.120000	12.580000	79.180000	361.000000	0.000000	125.000000	46.000000	16.000000	27.000000
0.130000	12.750000	79.520000	396.000000	0.000000	125.000000	46.000000	17.000000	34.000000
0.140000	12.950000	79.900000	420.000000	0.000000	125.000000	46.000000	20.000000	38.000000
0.150000	13.160000	80.320000	449.000000	0.000000	126.000000	47.000000	21.000000	42.000000
0.160000	13.390000	80.720000	450.000000	0.000000	126.000000	47.000000	23.000000	40.000000
0.170000	13.540000	81.050000	467.000000	0.000000	126.000000	47.000000	15.000000	33.000000
0.180000	13.640000	81.320000	475.000000	0.000000	126.000000	47.000000	10.000000	27.000000
0.190000	13.710000	81.530000	495.000000	0.000000	126.000000	47.000000	7.000000	21.000000
0.200000	13.790000	81.700000	491.000000	0.000000	126.000000	47.000000	8.000000	17.000000
0.210000	13.850000	81.840000	492.000000	0.000000	126.000000	47.000000	6.000000	14.000000
0.220000	13.900000	82.010000	494.000000	0.000000	126.000000	47.000000	5.000000	17.000000
0.230000	14.020000	82.230000	496.000000	0.000000	126.000000	47.000000	12.000000	22.000000
0.240000	14.140000	82.470000	496.000000	0.000000	126.000000	47.000000	12.000000	24.000000
0.250000	14.250000	82.660000	496.000000	0.000000	127.000000	48.000000	11.000000	19.000000
0.260000	14.340000	82.850000	496.000000	0.000000	128.000000	47.000000	9.000000	19.000000
0.270000	14.440000	83.040000	494.000000	0.000000	128.000000	47.000000	10.000000	19.000000
0.280000	14.510000	83.200000	496.000000	0.000000	128.000000	47.000000	7.000000	16.000000
0.290000	14.510000	83.330000	496.000000	0.000000	130.000000	48.000000	0.000000	13.000000
0.300000	14.610000	83.510000	489.000000	0.000000	130.000000	48.000000	10.000000	18.000000
0.310000	14.610000	83.730000	491.000000	0.000000	130.000000	48.000000	0.000000	22.000000
0.320000	14.670000	83.820000	491.000000	0.000000	130.000000	48.000000	6.000000	9.000000
0.330000	14.720000	84.000000	488.000000	0.000000	130.000000	48.000000	5.000000	18.000000
0.340000	14.800000	84.240000	485.000000	0.000000	131.000000	48.000000	8.000000	24.000000
0.350000	14.900000	84.490000	473.000000	0.000000	131.000000	48.000000	10.000000	25.000000
0.360000	14.990000	84.700000	464.000000	0.000000	131.000000	48.000000	9.000000	21.000000
0.370000	15.080000	84.890000	473.000000	0.000000	131.000000	48.000000	9.000000	19.000000
0.380000	15.170000	85.100000	466.000000	0.000000	131.000000	48.000000	9.000000	21.000000
0.390000	15.230000	85.290000	442.000000	0.000000	131.000000	48.000000	6.000000	19.000000
0.400000	15.290000	85.520000	446.000000	0.000000	129.000000	49.000000	6.000000	23.000000
0.410000	15.370000	85.780000	441.000000	0.000000	129.000000	49.000000	8.000000	26.000000
0.420000	15.420000	85.960000	441.000000	0.000000	129.000000	49.000000	5.000000	18.000000
0.430000	15.420000	86.110000	436.000000	0.000000	129.000000	49.000000	0.000000	15.000000
0.440000	15.420000	86.190000	420.000000	0.000000	130.000000	50.000000	0.000000	8.000000
0.450000	15.480000	86.260000	397.000000	0.000000	130.000000	50.000000	6.000000	7.000000
0.460000	15.480000	86.310000	362.000000	0.000000	129.000000	50.000000	0.000000	5.000000
0.470000	15.480000	86.310000	339.000000	0.000000	129.000000	50.000000	0.000000	0.000000
0.480000	15.480000	86.310000	345.000000	0.000000	129.000000	50.000000	0.000000	0.000000
0.490000	15.480000	86.310000	337.000000	0.000000	129.000000	50.000000	0.000000	0.000000
0.500000	15.480000	86.250000	334.000000	0.000000	129.000000	50.000000	0.000000	-6.000000
0.510000	15.480000	86.200000	334.000000	0.000000	129.000000	50.000000	0.000000	-5.000000
0.520000	15.480000	86.150000	334.000000	0.000000	129.000000	50.000000	0.000000	-5.000000
0.530000	15.480000	86.070000	332.000000	0.000000	129.000000	50.000000	0.000000	-8.000000
0.540000	15.480000	85.960000	332.000000	0.000000	129.000000	50.000000	0.000000	-11.000000
0.550000	15.480000	85.870000	337.000000	0.000000	129.000000	50.000000	0.000000	-9.000000
0.560000	15.480000	85.720000	337.000000	0.000000	129.000000	50.000000	0.000000	-15.000000
0.570000	15.480000	85.510000	337.000000	0.000000	130.000000	50.000000	0.000000	-21.000000
0.580000	15.480000	85.360000	339.000000	0.000000	130.000000	50.000000	0.000000	-15.000000
0.590000	15.480000	85.180000	344.000000	0.000000	130.000000	50.000000	0.000000	-18.000000
0.600000	15.400000	84.920000	341.000000	0.000000	130.000000	50.000000	-8.000000	-26.000000
0.610000	15.350000	84.620000	354.000000	0.000000	130.000000	50.000000	-5.000000	-30.000000
0.620000	15.260000	84.350000	363.000000	0.000000	130.000000	50.000000	-9.000000	-27.000000
0.630000	15.190000	84.090000	369.000000	0.000000	132.000000	49.000000	-7.000000	-26.000000
0.640000	15.130000	83.840000	373.000000	0.000000	132.000000	49.000000	-6.000000	-25.000000
0.650000	15.080000	83.590000	373.000000	0.000000	131.000000	48.000000	-5.000000	-25.000000
0.660000	15.080000	83.380000	361.000000	0.000000	132.000000	48.000000	0.000000	-21.000000
0.670000	15.080000	83.190000	362.000000	0.000000	132.000000	48.000000	0.000000	-19.000000
0.680000	15.080000	82.970000	373.000000	0.000000	132.000000	48.000000	0.000000	-22.000000
0.690000	15.080000	82.780000	358.000000	0.000000	132.000000	48.000000	0.000000	-19.000000
0.700000	15.080000	82.610000	330.000000	0.000000	132.000000	48.000000	0.000000	-17.000000
0.710000	15.080000	82.460000	279.000000	0.000000	132.000000	48.000000	0.000000	-15.000000
0.720000	15.080000	82.370000	256.000000	0.000000	132.000000	48.000000	0.000000	-9.000000
0.730000	15.130000	82.310000	222.000000	0.000000	132.000000	48.000000	5.000000	-6.000000
0.740000	15.210000	82.250000	193.000000	0.000000	132.000000	48.000000	8.000000	-6.000000
0.750000	15.300000	82.250000	180.000000	0.000000	132.000000	48.000000	9.000000	0.000000
0.760000	15.410000	82.250000	171.000000	0.000000	132.000000	48.000000	11.000000	0.000000
0.770000	15.520000	82.250000	182.000000	0.000000	132.000000	48.000000	11.000000	0.000000
0.780000	15.630000	82.250000	172.000000	0.000000	133.000000	48.000000	11.000000	0.000000
0.790000	15.730000	82.350000	161.000000	0.000000	133.000000	48.000000	10.000000	10.000000
0.800000	15.820000	82.410000	158.000000	0.000000	133.000000	48.000000	9.000000	6.000000
0.810000	15.910000	82.510000	155.000000	0.000000	133.000000	48.000000	9.000000	10.000000
0.820000	16.010000	82.640000	151.000000	0.000000	133.000000	48.000000	10.000000	13.000000
0.830000	16.110000	82.770000	148.000000	0.000000	133.000000	48.000000	10.000000	13.000000
0.840000	16.200000	82.890000	144.000000	0.000000	133.000000	48.000000	9.000000	12.000000
0.850000	16.270000	83.010000	137.000000	0.000000	133.000000	48.000000	7.000000	12.000000
0.860000	16.390000	83.120000	148.000000	0.000000	134.000000	48.000000	12.000000	11.000000
0.870000	16.510000	83.240000	137.000000	0.000000	134.000000	48.000000	12.000000	12.000000
0.880000	16.640000	83.370000	132.000000	0.000000	134.000000	48.000000	13.000000	13.000000
0.890000	16.730000	83.520000	129.000000	0.000000	134.000000	48.000000	9.000000	15.000000
0.900000	16.800000	83.630000	115.000000	0.000000	134.000000	48.000000	7.000000	11.000000
0.910000	16.850000	83.730000	93.000000	0.000000	133.000000	48.000000	5.000000	10.000000
0.920000	16.850000	83.790000	98.000000	0.000000	133.000000	48.000000	0.000000	6.000000
0.930000	16.850000	83.790000	89.000000	0.000000	133.000000	48.000000	0.000000	0.000000
0.940000	16.850000	83.790000	85.000000	0.000000	133.000000	48.000000	0.000000	0.000000
0.950000	16.850000	83.790000	83.000000	0.000000	133.000000	48.000000	0.000000	0.000000
0.960000	16.850000	83.790000	86.000000	0.000000	133.000000	48.000000	0.000000	0.000000
0.970000	16.850000	83.790000	94.000000	0.000000	134.000000	48.000000	0.000000	0.000000
0.980000	16.850000	83.790000	104.000000	0.000000	134.000000	48.000000	0.000000	0.000000
0.990000	16.850000	83.790000	100.000000	0.000000	134.000000	48.000000	0.000000	0.000000
1.000000	16.850000	83.790000	132.000000	0.000000	134.000000	48.000000	0.000000	0.000000
1.010000	16.850000	83.790000	136.000000	0.000000	134.000000	48.000000	0.000000	0.000000
1.020000	16.850000	83.790000	158.000000	0.000000	134.000000	48.000000	0.000000	0.000000
1.030000	16.850000	83.460000	170.000000	0.000000	134.000000	48.000000	0.000000	-33.000000
1.040000	16.850000	83.350000	173.000000	0.000000	134.000000	48.000000	0.000000	-11.000000
1.050000	16.850000	83.240000	191.000000	0.000000	134.000000	48.000000	0.000000	-11.000000
1.060000	16.850000	83.130000	203.000000	0.000000	134.000000	48.000000	0.000000	-11.000000
1.070000	16.940000	83.020000	203.000000	0.000000	134.000000	48.000000	9.000000	-11.000000
1.080000	16.990000	82.930000	205.000000	0.000000	134.000000	48.000000	5.000000	-9.000000
1.090000	17.050000	82.860000	203.000000	0.000000	134.000000	48.000000	6.000000	-7.000000
1.100000	17.120000	82.780000	205.000000	0.000000	134.000000	48.000000	7.000000	-8.000000
1.110000	17.210000	82.780000	208.000000	0.000000	134.000000	48.000000	9.000000	0.000000
1.120000	17.300000	82.780000	210.000000	0.000000	134.000000	48.000000	9.000000	0.000000
1.130000	17.430000	82.780000	212.000000	0.000000	134.000000	48.000000	13.000000	0.000000
1.140000	17.570000	82.780000	212.000000	0.000000	134.000000	48.000000	14.000000	0.000000
1.150000	17.700000	82.860000	213.000000	0.000000	134.000000	48.000000	13.000000	8.000000
1.160000	17.840000	82.860000	215.000000	0.000000	134.000000	48.000000	14.000000	0.000000
1.170000	17.950000	82.930000	215.000000	0.000000	134.000000	48.000000	11.000000	7.000000
1.180000	18.050000	82.930000	215.000000	0.000000	134.000000	48.000000	10.000000	0.000000
1.190000	18.100000	82.930000	215.000000	0.000000	134.000000	48.000000	5.000000	0.000000
1.200000	18.160000	83.000000	217.000000	0.000000	134.000000	48.000000	6.000000	7.000000
1.210000	18.230000	83.060000	222.000000	0.000000	134.000000	48.000000	7.000000	6.000000
1.220000	18.310000	83.120000	207.000000	0.000000	134.000000	48.000000	8.000000	6.000000
1.230000	18.400000	83.210000	232.000000	0.000000	135.000000	49.000000	9.000000	9.000000
1.240000	18.480000	83.310000	256.000000	0.000000	135.000000	49.000000	8.000000	10.000000
1.250000	18.580000	83.410000	259.000000	0.000000	135.000000	49.000000	10.000000	10.000000
1.260000	18.680000	83.530000	270.000000	0.000000	135.000000	49.000000	10.000000	12.000000
1.270000	18.750000	83.660000	274.000000	0.000000	135.000000	49.000000	7.000000	13.000000
1.280000	18.830000	83.790000	281.000000	0.000000	135.000000	49.000000	8.000000	13.000000
1.290000	18.880000	83.930000	282.000000	0.000000	135.000000	49.000000	5.000000	14.000000
1.300000	18.880000	83.930000	286.000000	0.000000	135.000000	49.000000	0.000000	0.000000
1.310000	19.010000	84.190000	291.000000	0.000000	135.000000	49.000000	13.000000	26.000000
1.320000	19.090000	84.350000	294.000000	0.000000	135.000000	49.000000	8.000000	16.000000
1.330000	19.200000	84.530000	291.000000	0.000000	135.000000	49.000000	11.000000	18.000000
1.340000	19.320000	84.710000	292.000000	0.000000	135.000000	49.000000	12.000000	18.000000
1.350000	19.430000	84.930000	292.000000	0.000000	135.000000	49.000000	11.000000	22.000000
1.360000	19.570000	85.180000	292.000000	0.000000	136.000000	49.000000	14.000000	25.000000
1.370000	19.730000	85.420000	291.000000	0.000000	135.000000	50.000000	16.000000	24.000000
1.380000	19.880000	85.640000	292.000000	0.000000	135.000000	50.000000	15.000000	22.000000
1.390000	19.990000	85.850000	292.000000	0.000000	135.000000	50.000000	11.000000	21.000000
1.400000	20.060000	86.040000	292.000000	0.000000	134.000000	50.000000	7.000000	19.000000
1.410000	20.060000	86.230000	294.000000	0.000000	134.000000	50.000000	0.000000	19.000000
1.420000	20.170000	86.410000	292.000000	0.000000	134.000000	50.000000	11.000000	18.000000
1.430000	20.170000	86.530000	294.000000	0.000000	134.000000	50.000000	0.000000	12.000000
1.440000	20.170000	86.630000	292.000000	0.000000	133.000000	51.000000	0.000000	10.000000
1.450000	20.240000	86.710000	294.000000	0.000000	133.000000	51.000000	7.000000	8.000000
1.460000	20.240000	86.810000	292.000000	0.000000	133.000000	51.000000	0.000000	10.000000
1.470000	20.330000	86.910000	294.000000	0.000000	133.000000	51.000000	9.000000	10.000000
1.480000	20.330000	86.990000	292.000000	0.000000	133.000000	51.000000	0.000000	8.000000
1.490000	20.380000	87.080000	291.000000	0.000000	134.000000	51.000000	5.000000	9.000000
1.500000	20.440000	87.190000	291.000000	0.000000	134.000000	51.000000	6.000000	11.000000
1.510000	20.440000	87.250000	292.000000	0.000000	134.000000	51.000000	0.000000	6.000000
1.520000	20.440000	87.300000	291.000000	0.000000	134.000000	51.000000	0.000000	5.000000
1.530000	20.440000	87.300000	292.000000	0.000000	135.000000	51.000000	0.000000	0.000000
1.540000	20.440000	87.300000	291.000000	0.000000	135.000000	51.000000	0.000000	0.000000
1.550000	20.440000	87.300000	286.000000	0.000000	135.000000	51.000000	0.000000	0.000000
1.560000	20.440000	87.300000	281.000000	0.000000	135.000000	51.000000	0.000000	0.000000
1.570000	20.440000	87.300000	279.000000	0.000000	135.000000	51.000000	0.000000	0.000000
1.580000	20.440000	87.240000	284.000000	0.000000	135.000000	51.000000	0.000000	-6.000000
1.590000	20.440000	87.140000	289.000000	0.000000	135.000000	51.000000	0.000000	-10.000000
1.600000	20.360000	87.040000	291.000000	0.000000	135.000000	51.000000	-8.000000	-10.000000
1.610000	20.360000	86.910000	292.000000	0.000000	135.000000	51.000000	0.000000	-13.000000
1.620000	20.300000	86.780000	301.000000	0.000000	135.000000	51.000000	-6.000000	-13.000000
1.630000	20.240000	86.590000	307.000000	0.000000	135.000000	51.000000	-6.000000	-19.000000
1.640000	20.240000	86.380000	320.000000	0.000000	135.000000	51.000000	0.000000	-21.000000
1.650000	20.240000	86.380000	334.000000	0.000000	135.000000	51.000000	0.000000	0.000000
1.660000	20.080000	85.890000	334.000000	0.000000	135.000000	51.000000	-16.000000	-49.000000
1.670000	19.980000	85.590000	359.000000	0.000000	135.000000	51.000000	-10.000000	-30.000000
1.680000	19.900000	85.270000	371.000000	0.000000	135.000000	51.000000	-8.000000	-32.000000
1.690000	19.830000	84.950000	371.000000	0.000000	134.000000	50.000000	-7.000000	-32.000000
1.700000	19.830000	84.650000	372.000000	0.000000	134.000000	50.000000	0.000000	-30.000000
1.710000	19.730000	84.380000	379.000000	0.000000	134.000000	50.000000	-10.000000	-27.000000
1.720000	19.730000	84.190000	382.000000	0.000000	135.000000	50.000000	0.000000	-19.000000
1.730000	19.730000	84.040000	386.000000	0.000000	135.000000	50.000000	0.000000	-15.000000
1.740000	19.730000	83.940000	386.000000	0.000000	135.000000	50.000000	0.000000	-10.000000
1.750000	19.730000	83.870000	386.000000	0.000000	136.000000	49.000000	0.000000	-7.000000
1.760000	19.730000	83.870000	386.000000	0.000000	136.000000	49.000000	0.000000	0.000000
1.770000	19.730000	83.810000	386.000000	0.000000	136.000000	49.000000	0.000000	-6.000000
1.780000	19.780000	83.810000	386.000000	0.000000	136.000000	48.000000	5.000000	0.000000
1.790000	19.780000	83.760000	386.000000	0.000000	136.000000	48.000000	0.000000	-5.000000
1.800000	19.780000	83.760000	386.000000	0.000000	136.000000	48.000000	0.000000	0.000000
1.810000	19.780000	83.760000	381.000000	0.000000	136.000000	48.000000	0.000000	0.000000
1.820000	19.780000	83.710000	379.000000	0.000000	136.000000	48.000000	0.000000	-5.000000
1.830000	19.830000	83.650000	377.000000	0.000000	136.000000	48.000000	5.000000	-6.000000
1.840000	19.830000	83.650000	371.000000	0.000000	136.000000	48.000000	0.000000	0.000000
1.850000	19.880000	83.580000	361.000000	0.000000	136.000000	48.000000	5.000000	-7.000000
1.860000	19.930000	83.580000	368.000000	0.000000	136.000000	48.000000	5.000000	0.000000
1.870000	20.000000	83.580000	354.000000	0.000000	136.000000	48.000000	7.000000	0.000000
1.880000	20.090000	83.530000	348.000000	0.000000	136.000000	48.000000	9.000000	-5.000000
1.890000	20.180000	83.530000	335.000000	0.000000	136.000000	48.000000	9.000000	0.000000
1.900000	20.280000	83.600000	294.000000	0.000000	136.000000	48.000000	10.000000	7.000000
1.910000	20.390000	83.660000	222.000000	0.000000	136.000000	48.000000	11.000000	6.000000
1.920000	20.390000	83.660000	0.000000	1.000000	136.000000	48.000000	0.000000	0.000000
1.930000	20.700000	83.940000	0.000000	0.000000	137.000000	48.000000	31.000000	28.000000
1.940000	20.880000	84.060000	0.000000	0.000000	137.000000	48.000000	18.000000	12.000000
1.950000	20.880000	84.180000	0.000000	0.000000	137.000000	48.000000	0.000000	12.000000
1.960000	20.880000	84.260000	0.000000	0.000000	137.000000	48.000000	0.000000	8.000000
1.970000	20.880000	84.260000	0.000000	0.000000	137.000000	48.000000	0.000000	0.000000
1.980000	20.940000	84.260000	0.000000	0.000000	136.000000	48.000000	6.000000	0.000000
1.990000	21.050000	84.260000	0.000000	0.000000	136.000000	48.000000	11.000000	0.000000
2.000000	21.260000	84.350000	0.000000	0.000000	136.000000	48.000000	21.000000	9.000000
2.010000	21.550000	84.410000	0.000000	0.000000	136.000000	48.000000	29.000000	6.000000
2.020000	21.840000	84.560000	0.000000	0.000000	135.000000	47.000000	29.000000	15.000000
2.030000	22.160000	84.790000	0.000000	0.000000	136.000000	47.000000	32.000000	23.000000
2.040000	22.490000	85.070000	0.000000	0.000000	136.000000	47.000000	33.000000	28.000000
2.050000	22.940000	85.370000	0.000000	0.000000	136.000000	47.000000	45.000000	30.000000
2.060000	23.440000	85.690000	0.000000	0.000000	136.000000	47.000000	50.000000	32.000000
2.070000	24.030000	86.020000	0.000000	0.000000	137.000000	47.000000	59.000000	33.000000
2.080000	24.660000	86.350000	0.000000	0.000000	137.000000	47.000000	63.000000	33.000000
2.090000	25.320000	86.670000	0.000000	0.000000	139.000000	47.000000	66.000000	32.000000
2.100000	26.010000	87.000000	0.000000	0.000000	139.000000	47.000000	69.000000	33.000000
2.110000	26.650000	87.320000	0.000000	0.000000	139.000000	48.000000	64.000000	32.000000
2.120000	27.250000	87.640000	0.000000	0.000000	139.000000	48.000000	60.000000	32.000000
2.130000	27.730000	87.920000	0.000000	0.000000	139.000000	48.000000	48.000000	28.000000
2.140000	28.050000	88.180000	0.000000	0.000000	138.000000	49.000000	32.000000	26.000000
2.150000	28.250000	88.310000	0.000000	0.000000	138.000000	49.000000	20.000000	13.000000
2.160000	28.370000	88.370000	0.000000	0.000000	138.000000	49.000000	12.000000	6.000000
2.170000	28.450000	88.420000	0.000000	0.000000	136.000000	49.000000	8.000000	5.000000
2.180000	28.510000	88.480000	0.000000	0.000000	136.000000	49.000000	6.000000	6.000000
2.190000	28.580000	88.550000	0.000000	0.000000	136.000000	49.000000	7.000000	7.000000
2.200000	28.710000	88.620000	0.000000	0.000000	135.000000	49.000000	13.000000	7.000000
2.210000	28.920000	88.720000	0.000000	0.000000	135.000000	49.000000	21.000000	10.000000
2.220000	29.150000	88.840000	0.000000	0.000000	135.000000	49.000000	23.000000	12.000000
2.230000	29.360000	88.960000	0.000000	0.000000	135.000000	49.000000	21.000000	12.000000
