t	x	y	pressure	penup	azimuth	inclination	v_x	v_y
0.000000	14.270000	86.630000	73.000000	1.000000	146.000000	66.000000	0.000000	0.000000
0.010000	14.270000	86.630000	108.000000	0.000000	144.000000	66.000000	0.000000	0.000000
0.020000	14.270000	86.630000	132.000000	0.000000	144.000000	66.000000	0.000000	0.000000
0.030000	14.270000	86.630000	180.000000	0.000000	144.000000	66.000000	0.000000	0.000000
0.040000	14.270000	86.630000	217.000000	0.000000	144.000000	66.000000	0.000000	0.000000
0.050000	14.270000	86.630000	233.000000	0.000000	142.000000	65.000000	0.000000	0.000000
0.060000	14.270000	86.630000	246.000000	0.000000	142.000000	65.000000	0.000000	0.000000
0.070000	14.270000	86.630000	247.000000	0.000000	142.000000	65.000000	0.000000	0.000000
0.080000	14.270000	86.630000	274.000000	0.000000	142.000000	65.000000	0.000000	0.000000
0.090000	14.270000	86.630000	296.000000	0.000000	142.000000	65.000000	0.000000	0.000000
0.100000	14.270000	86.630000	314.000000	0.000000	140.000000	65.000000	0.000000	0.000000
0.110000	14.270000	86.630000	349.000000	0.000000	142.000000	65.000000	0.000000	0.000000
0.120000	14.610000	86.660000	371.000000	0.000000	142.000000	65.000000	34.000000	3.000000
0.130000	14.750000	86.720000	388.000000	0.000000	142.000000	65.000000	14.000000	6.000000
0.140000	14.950000	86.830000	423.000000	0.000000	142.000000	65.000000	20.000000	11.000000
0.150000	15.250000	87.000000	443.000000	0.000000	142.000000	65.000000	30.000000	17.000000
0.160000	15.660000	87.210000	447.000000	0.000000	142.000000	65.000000	41.000000	21.000000
0.170000	16.150000	87.490000	448.000000	0.000000	142.000000	65.000000	49.000000	28.000000
0.180000	16.690000	87.760000	447.000000	0.000000	142.000000	65.000000	54.000000	27.000000
0.190000	17.130000	87.970000	445.000000	0.000000	142.000000	65.000000	44.000000	21.000000
0.200000	17.510000	88.110000	443.000000	0.000000	142.000000	65.000000	38.000000	14.000000
0.210000	17.810000	88.180000	446.000000	0.000000	142.000000	65.000000	30.000000	7.000000
0.220000	18.040000	88.180000	449.000000	0.000000	144.000000	66.000000	23.000000	0.000000
0.230000	18.230000	88.230000	443.000000	0.000000	144.000000	66.000000	19.000000	5.000000
0.240000	18.450000	88.230000	438.000000	0.000000	144.000000	66.000000	22.000000	0.000000
0.250000	18.630000	88.230000	441.000000	0.000000	147.000000	65.000000	18.000000	0.000000
0.260000	18.790000	88.230000	436.000000	0.000000	147.000000	65.000000	16.000000	0.000000
0.270000	18.880000	88.280000	430.000000	0.000000	147.000000	65.000000	9.000000	5.000000
0.280000	18.880000	88.280000	433.000000	0.000000	147.000000	65.000000	0.000000	0.000000
0.290000	18.880000	88.280000	440.000000	0.000000	147.000000	65.000000	0.000000	0.000000
0.300000	18.880000	88.280000	449.000000	0.000000	147.000000	65.000000	0.000000	0.000000
0.310000	18.880000	88.280000	440.000000	0.000000	147.000000	65.000000	0.000000	0.000000
0.320000	18.720000	87.960000	447.000000	0.000000	147.000000	65.000000	-16.000000	-32.000000
0.330000	18.720000	87.860000	456.000000	0.000000	147.000000	65.000000	0.000000	-10.000000
0.340000	18.640000	87.760000	460.000000	0.000000	146.000000	66.000000	-8.000000	-10.000000
0.350000	18.640000	87.660000	465.000000	0.000000	146.000000	66.000000	0.000000	-10.000000
0.360000	18.590000	87.550000	468.000000	0.000000	146.000000	66.000000	-5.000000	-11.000000
0.370000	18.590000	87.430000	468.000000	0.000000	146.000000	66.000000	0.000000	-12.000000
0.380000	18.490000	87.310000	468.000000	0.000000	146.000000	66.000000	-10.000000	-12.000000
0.390000	18.490000	87.190000	473.000000	0.000000	146.000000	66.000000	0.000000	-12.000000
0.400000	18.320000	87.000000	475.000000	0.000000	146.000000	66.000000	-17.000000	-19.000000
0.410000	18.130000	86.800000	481.000000	0.000000	146.000000	66.000000	-19.000000	-20.000000
0.420000	18.000000	86.580000	483.000000	0.000000	146.000000	66.000000	-13.000000	-22.000000
0.430000	17.880000	86.350000	483.000000	0.000000	146.000000	66.000000	-12.000000	-23.000000
0.440000	17.780000	86.120000	483.000000	0.000000	146.000000	66.000000	-10.000000	-23.000000
0.450000	17.690000	85.920000	483.000000	0.000000	146.000000	66.000000	-9.000000	-20.000000
0.460000	17.690000	85.730000	485.000000	0.000000	146.000000	66.000000	0.000000	-19.000000
0.470000	17.620000	85.630000	486.000000	0.000000	146.000000	66.000000	-7.000000	-10.000000
0.480000	17.620000	85.520000	486.000000	0.000000	146.000000	66.000000	0.000000	-11.000000
0.490000	17.570000	85.390000	488.000000	0.000000	147.000000	65.000000	-5.000000	-13.000000
0.500000	17.570000	85.290000	488.000000	0.000000	147.000000	65.000000	0.000000	-10.000000
0.510000	17.500000	85.200000	491.000000	0.000000	145.000000	65.000000	-7.000000	-9.000000
0.520000	17.500000	85.200000	490.000000	0.000000	145.000000	65.000000	0.000000	0.000000
0.530000	17.500000	85.200000	493.000000	0.000000	145.000000	65.000000	0.000000	0.000000
0.540000	17.500000	85.200000	496.000000	0.000000	145.000000	65.000000	0.000000	0.000000
0.550000	17.500000	85.200000	498.000000	0.000000	145.000000	65.000000	0.000000	0.000000
0.560000	17.500000	85.200000	498.000000	0.000000	145.000000	65.000000	0.000000	0.000000
0.570000	17.500000	85.200000	489.000000	0.000000	145.000000	65.000000	0.000000	0.000000
0.580000	17.500000	85.200000	492.000000	0.000000	145.000000	65.000000	0.000000	0.000000
0.590000	17.500000	85.200000	499.000000	0.000000	145.000000	65.000000	0.000000	0.000000
0.600000	17.500000	85.200000	499.000000	0.000000	145.000000	65.000000	0.000000	0.000000
0.610000	17.800000	85.020000	502.000000	0.000000	145.000000	65.000000	30.000000	-18.000000
0.620000	17.890000	85.020000	502.000000	0.000000	145.000000	65.000000	9.000000	0.000000
0.630000	17.990000	85.020000	502.000000	0.000000	147.000000	65.000000	10.000000	0.000000
0.640000	18.060000	85.020000	501.000000	0.000000	147.000000	65.000000	7.000000	0.000000
0.650000	18.110000	84.960000	496.000000	0.000000	147.000000	65.000000	5.000000	-6.000000
0.660000	18.190000	84.960000	492.000000	0.000000	147.000000	65.000000	8.000000	0.000000
0.670000	18.270000	84.960000	492.000000	0.000000	147.000000	65.000000	8.000000	0.000000
0.680000	18.370000	84.960000	494.000000	0.000000	148.000000	65.000000	10.000000	0.000000
0.690000	18.480000	84.960000	492.000000	0.000000	148.000000	65.000000	11.000000	0.000000
0.700000	18.620000	84.890000	496.000000	0.000000	148.000000	65.000000	14.000000	-7.000000
0.710000	18.770000	84.890000	494.000000	0.000000	148.000000	65.000000	15.000000	0.000000
0.720000	18.890000	84.800000	496.000000	0.000000	148.000000	65.000000	12.000000	-9.000000
0.730000	19.070000	84.740000	494.000000	0.000000	146.000000	64.000000	18.000000	-6.000000
0.740000	19.250000	84.680000	496.000000	0.000000	146.000000	64.000000	18.000000	-6.000000
0.750000	19.430000	84.610000	494.000000	0.000000	146.000000	64.000000	18.000000	-7.000000
0.760000	19.590000	84.530000	496.000000	0.000000	146.000000	64.000000	16.000000	-8.000000
0.770000	19.750000	84.410000	496.000000	0.000000	146.000000	64.000000	16.000000	-12.000000
0.780000	19.950000	84.330000	496.000000	0.000000	146.000000	64.000000	20.000000	-8.000000
0.790000	20.150000	84.330000	496.000000	0.000000	145.000000	64.000000	20.000000	0.000000
0.800000	20.350000	84.230000	494.000000	0.000000	145.000000	64.000000	20.000000	-10.000000
0.810000	20.580000	84.170000	492.000000	0.000000	145.000000	64.000000	23.000000	-6.000000
0.820000	20.810000	84.170000	489.000000	0.000000	143.000000	63.000000	23.000000	0.000000
0.830000	20.810000	84.170000	496.000000	0.000000	143.000000	63.000000	0.000000	0.000000
0.840000	21.320000	83.990000	491.000000	0.000000	143.000000	63.000000	51.000000	-18.000000
0.850000	21.520000	83.880000	486.000000	0.000000	141.000000	63.000000	20.000000	-11.000000
0.860000	21.670000	83.720000	488.000000	0.000000	141.000000	63.000000	15.000000	-16.000000
0.870000	21.770000	83.530000	491.000000	0.000000	141.000000	63.000000	10.000000	-19.000000
0.880000	21.880000	83.300000	495.000000	0.000000	141.000000	63.000000	11.000000	-23.000000
0.890000	22.010000	83.070000	493.000000	0.000000	141.000000	63.000000	13.000000	-23.000000
0.900000	22.070000	82.840000	498.000000	0.000000	140.000000	62.000000	6.000000	-23.000000
0.910000	22.070000	82.600000	496.000000	0.000000	140.000000	62.000000	0.000000	-24.000000
0.920000	22.070000	82.380000	489.000000	0.000000	140.000000	62.000000	0.000000	-22.000000
0.930000	21.930000	82.160000	492.000000	0.000000	140.000000	62.000000	-14.000000	-22.000000
0.940000	21.760000	81.930000	491.000000	0.000000	140.000000	62.000000	-17.000000	-23.000000
0.950000	21.550000	81.680000	492.000000	0.000000	140.000000	62.000000	-21.000000	-25.000000
0.960000	21.250000	81.420000	492.000000	0.000000	140.000000	62.000000	-30.000000	-26.000000
0.970000	20.900000	81.160000	492.000000	0.000000	140.000000	62.000000	-35.000000	-26.000000
0.980000	20.450000	80.910000	489.000000	0.000000	138.000000	63.000000	-45.000000	-25.000000
0.990000	19.940000	80.660000	499.000000	0.000000	138.000000	63.000000	-51.000000	-25.000000
1.000000	19.380000	80.480000	492.000000	0.000000	138.000000	63.000000	-56.000000	-18.000000
1.010000	18.680000	80.330000	505.000000	0.000000	140.000000	63.000000	-70.000000	-15.000000
1.020000	17.910000	80.280000	492.000000	0.000000	138.000000	64.000000	-77.000000	-5.000000
1.030000	17.080000	80.230000	514.000000	0.000000	138.000000	64.000000	-83.000000	-5.000000
1.040000	16.270000	80.170000	518.000000	0.000000	138.000000	64.000000	-81.000000	-6.000000
1.050000	15.530000	80.070000	527.000000	0.000000	137.000000	65.000000	-74.000000	-10.000000
1.060000	14.910000	79.900000	556.000000	0.000000	137.000000	65.000000	-62.000000	-17.000000
1.070000	14.350000	79.730000	557.000000	0.000000	137.000000	65.000000	-56.000000	-17.000000
1.080000	13.980000	79.590000	570.000000	0.000000	137.000000	65.000000	-37.000000	-14.000000
1.090000	13.740000	79.510000	568.000000	0.000000	137.000000	65.000000	-24.000000	-8.000000
1.100000	13.740000	79.510000	565.000000	0.000000	137.000000	65.000000	0.000000	0.000000
1.110000	13.740000	79.510000	556.000000	0.000000	135.000000	65.000000	0.000000	0.000000
1.120000	13.740000	79.510000	554.000000	0.000000	135.000000	65.000000	0.000000	0.000000
1.130000	13.740000	79.510000	554.000000	0.000000	135.000000	65.000000	0.000000	0.000000
1.140000	14.100000	79.730000	554.000000	0.000000	135.000000	65.000000	36.000000	22.000000
1.150000	14.350000	79.970000	553.000000	0.000000	135.000000	65.000000	25.000000	24.000000
1.160000	14.780000	80.300000	553.000000	0.000000	135.000000	65.000000	43.000000	33.000000
1.170000	15.340000	80.680000	570.000000	0.000000	135.000000	65.000000	56.000000	38.000000
1.180000	16.130000	81.120000	578.000000	0.000000	135.000000	65.000000	79.000000	44.000000
1.190000	17.200000	81.600000	595.000000	0.000000	137.000000	65.000000	107.000000	48.000000
1.200000	18.460000	82.110000	608.000000	0.000000	138.000000	65.000000	126.000000	51.000000
1.210000	19.870000	82.600000	620.000000	0.000000	140.000000	65.000000	141.000000	49.000000
1.220000	21.540000	83.140000	628.000000	0.000000	140.000000	65.000000	167.000000	54.000000
1.230000	23.390000	83.710000	634.000000	0.000000	141.000000	64.000000	185.000000	57.000000
1.240000	25.370000	84.350000	645.000000	0.000000	141.000000	64.000000	198.000000	64.000000
1.250000	27.370000	84.980000	638.000000	0.000000	141.000000	64.000000	200.000000	63.000000
1.260000	29.370000	85.640000	644.000000	0.000000	143.000000	63.000000	200.000000	66.000000
1.270000	31.290000	86.330000	647.000000	0.000000	143.000000	63.000000	192.000000	69.000000
1.280000	32.990000	86.930000	644.000000	0.000000	143.000000	63.000000	170.000000	60.000000
1.290000	34.540000	87.490000	649.000000	0.000000	143.000000	63.000000	155.000000	56.000000
1.300000	35.800000	87.990000	653.000000	0.000000	143.000000	63.000000	126.000000	50.000000
1.310000	36.750000	88.330000	662.000000	0.000000	143.000000	63.000000	95.000000	34.000000
1.320000	37.500000	88.590000	670.000000	0.000000	143.000000	63.000000	75.000000	26.000000
1.330000	38.030000	88.790000	667.000000	0.000000	143.000000	63.000000	53.000000	20.000000
1.340000	38.390000	88.950000	679.000000	0.000000	143.000000	63.000000	36.000000	16.000000
1.350000	38.630000	89.060000	691.000000	0.000000	143.000000	63.000000	24.000000	11.000000
1.360000	38.810000	89.160000	703.000000	0.000000	145.000000	64.000000	18.000000	10.000000
1.370000	38.970000	89.250000	708.000000	0.000000	146.000000	63.000000	16.000000	9.000000
1.380000	38.970000	89.250000	716.000000	0.000000	146.000000	63.000000	0.000000	0.000000
1.390000	38.970000	89.250000	724.000000	0.000000	146.000000	63.000000	0.000000	0.000000
1.400000	38.970000	89.250000	722.000000	0.000000	147.000000	62.000000	0.000000	0.000000
1.410000	38.970000	89.250000	743.000000	0.000000	147.000000	62.000000	0.000000	0.000000
1.420000	38.970000	89.250000	753.000000	0.000000	147.000000	62.000000	0.000000	0.000000
1.430000	38.970000	89.250000	779.000000	0.000000	147.000000	62.000000	0.000000	0.000000
1.440000	38.970000	89.250000	794.000000	0.000000	147.000000	62.000000	0.000000	0.000000
1.450000	38.970000	89.250000	783.000000	0.000000	148.000000	61.000000	0.000000	0.000000
1.460000	38.970000	89.250000	797.000000	0.000000	148.000000	61.000000	0.000000	0.000000
1.470000	38.970000	89.250000	783.000000	0.000000	148.000000	61.000000	0.000000	0.000000
1.480000	38.970000	89.250000	796.000000	0.000000	148.000000	61.000000	0.000000	0.000000
1.490000	38.970000	89.250000	783.000000	0.000000	148.000000	61.000000	0.000000	0.000000
1.500000	38.970000	89.250000	784.000000	0.000000	148.000000	61.000000	0.000000	0.000000
1.510000	38.970000	89.250000	787.000000	0.000000	148.000000	61.000000	0.000000	0.000000
1.520000	38.970000	89.250000	788.000000	0.000000	148.000000	61.000000	0.000000	0.000000
1.530000	38.970000	89.250000	790.000000	0.000000	150.000000	62.000000	0.000000	0.000000
1.540000	38.970000	89.250000	790.000000	0.000000	150.000000	62.000000	0.000000	0.000000
1.550000	38.970000	89.250000	788.000000	0.000000	150.000000	62.000000	0.000000	0.000000
1.560000	38.970000	89.250000	790.000000	0.000000	150.000000	62.000000	0.000000	0.000000
1.570000	38.970000	89.250000	767.000000	0.000000	150.000000	62.000000	0.000000	0.000000
1.580000	38.970000	89.250000	751.000000	0.000000	148.000000	61.000000	0.000000	0.000000
1.590000	38.970000	89.250000	751.000000	0.000000	148.000000	61.000000	0.000000	0.000000
1.600000	38.970000	89.250000	746.000000	0.000000	148.000000	61.000000	0.000000	0.000000
1.610000	38.970000	89.250000	737.000000	0.000000	148.000000	61.000000	0.000000	0.000000
1.620000	38.970000	89.250000	721.000000	0.000000	148.000000	61.000000	0.000000	0.000000
1.630000	38.970000	89.250000	703.000000	0.000000	148.000000	61.000000	0.000000	0.000000
1.640000	38.970000	89.250000	611.000000	0.000000	148.000000	61.000000	0.000000	0.000000
1.650000	38.970000	89.250000	417.000000	0.000000	148.000000	61.000000	0.000000	0.000000
1.660000	38.970000	89.250000	78.000000	0.000000	148.000000	61.000000	0.000000	0.000000
1.670000	39.190000	89.380000	0.000000	1.000000	148.000000	61.000000	0.000000	0.000000
1.680000	39.140000	89.420000	0.000000	0.000000	148.000000	61.000000	-5.000000	4.000000
1.690000	39.140000	89.570000	0.000000	0.000000	147.000000	62.000000	0.000000	15.000000
1.700000	38.990000	89.710000	0.000000	0.000000	147.000000	62.000000	-15.000000	14.000000
1.710000	38.810000	89.820000	0.000000	0.000000	147.000000	62.000000	-18.000000	11.000000
1.720000	38.590000	89.870000	0.000000	0.000000	146.000000	63.000000	-22.000000	5.000000
1.730000	38.330000	89.870000	0.000000	0.000000	143.000000	63.000000	-26.000000	0.000000
1.740000	37.950000	89.810000	0.000000	0.000000	143.000000	63.000000	-38.000000	-6.000000
1.750000	37.490000	89.810000	0.000000	0.000000	141.000000	63.000000	-46.000000	0.000000
1.760000	36.780000	89.650000	0.000000	0.000000	141.000000	63.000000	-71.000000	-16.000000
1.770000	35.920000	89.490000	0.000000	0.000000	141.000000	63.000000	-86.000000	-16.000000
1.780000	34.960000	89.350000	0.000000	0.000000	141.000000	63.000000	-96.000000	-14.000000
1.790000	33.960000	89.230000	0.000000	0.000000	141.000000	63.000000	-100.000000	-12.000000
1.800000	32.980000	89.120000	0.000000	0.000000	143.000000	62.000000	-98.000000	-11.000000
1.810000	32.070000	88.980000	0.000000	0.000000	144.000000	61.000000	-91.000000	-14.000000
1.820000	31.210000	88.790000	0.000000	0.000000	144.000000	61.000000	-86.000000	-19.000000
1.830000	30.360000	88.600000	0.000000	0.000000	145.000000	60.000000	-85.000000	-19.000000
1.840000	29.790000	88.380000	0.000000	0.000000	144.000000	60.000000	-57.000000	-22.000000
1.850000	29.280000	88.180000	0.000000	0.000000	144.000000	60.000000	-51.000000	-20.000000
1.860000	28.870000	87.960000	0.000000	0.000000	142.000000	59.000000	-41.000000	-22.000000
1.870000	28.510000	87.810000	0.000000	0.000000	142.000000	59.000000	-36.000000	-15.000000
1.880000	28.230000	87.690000	0.000000	0.000000	141.000000	59.000000	-28.000000	-12.000000
1.890000	28.030000	87.610000	0.000000	0.000000	141.000000	59.000000	-20.000000	-8.000000
1.900000	27.850000	87.610000	0.000000	0.000000	139.000000	60.000000	-18.000000	0.000000
1.910000	27.680000	87.560000	0.000000	0.000000	139.000000	60.000000	-17.000000	-5.000000
1.920000	27.550000	87.510000	0.000000	0.000000	139.000000	60.000000	-13.000000	-5.000000
1.930000	27.550000	87.450000	0.000000	0.000000	139.000000	60.000000	0.000000	-6.000000
1.940000	27.500000	87.360000	0.000000	0.000000	139.000000	60.000000	-5.000000	-9.000000
1.950000	27.500000	87.270000	0.000000	0.000000	139.000000	60.000000	0.000000	-9.000000
1.960000	27.400000	87.170000	0.000000	0.000000	139.000000	60.000000	-10.000000	-10.000000
1.970000	27.300000	87.050000	0.000000	0.000000	139.000000	60.000000	-10.000000	-12.000000
1.980000	27.300000	87.050000	0.000000	0.000000	139.000000	60.000000	0.000000	0.000000
1.990000	26.860000	86.810000	0.000000	0.000000	138.000000	60.000000	-44.000000	-24.000000
2.000000	26.590000	86.690000	0.000000	0.000000	139.000000	61.000000	-27.000000	-12.000000
2.010000	26.420000	86.550000	0.000000	0.000000	139.000000	61.000000	-17.000000	-14.000000
2.020000	26.300000	86.470000	0.000000	0.000000	141.000000	61.000000	-12.000000	-8.000000
2.030000	26.180000	86.470000	0.000000	0.000000	144.000000	62.000000	-12.000000	0.000000
2.040000	26.050000	86.380000	0.000000	0.000000	146.000000	63.000000	-13.000000	-9.000000
2.050000	25.930000	86.320000	0.000000	0.000000	148.000000	63.000000	-12.000000	-6.000000
2.060000	25.770000	86.260000	0.000000	0.000000	150.000000	64.000000	-16.000000	-6.000000
2.070000	25.520000	86.150000	0.000000	0.000000	151.000000	64.000000	-25.000000	-11.000000
2.080000	25.230000	86.030000	0.000000	0.000000	151.000000	64.000000	-29.000000	-12.000000
2.090000	24.780000	85.870000	0.000000	0.000000	151.000000	64.000000	-45.000000	-16.000000
2.100000	24.140000	85.670000	0.000000	0.000000	151.000000	64.000000	-64.000000	-20.000000
2.110000	23.370000	85.400000	0.000000	0.000000	150.000000	64.000000	-77.000000	-27.000000
2.120000	22.580000	85.130000	0.000000	0.000000	148.000000	65.000000	-79.000000	-27.000000
2.130000	21.840000	84.900000	0.000000	0.000000	146.000000	64.000000	-74.000000	-23.000000
2.140000	21.200000	84.690000	0.000000	0.000000	145.000000	64.000000	-64.000000	-21.000000
2.150000	20.740000	84.570000	0.000000	0.000000	143.000000	63.000000	-46.000000	-12.000000
2.160000	20.380000	84.480000	0.000000	0.000000	141.000000	63.000000	-36.000000	-9.000000
2.170000	20.160000	84.400000	0.000000	0.000000	138.000000	63.000000	-22.000000	-8.000000
2.180000	20.110000	84.340000	0.000000	0.000000	137.000000	62.000000	-5.000000	-6.000000
2.190000	20.180000	84.290000	0.000000	0.000000	137.000000	62.000000	7.000000	-5.000000
2.200000	20.180000	84.290000	0.000000	0.000000	137.000000	62.000000	0.000000	0.000000
2.210000	20.180000	84.290000	0.000000	0.000000	135.000000	62.000000	0.000000	0.000000
2.220000	20.480000	84.230000	0.000000	0.000000	135.000000	62.000000	30.000000	-6.000000
