t	x	y	pressure	penup	azimuth	inclination	v_x	v_y
0.000000	87.970000	34.010000	8.000000	1.000000	127.000000	62.000000	0.000000	0.000000
0.010000	87.970000	34.010000	103.000000	1.000000	127.000000	62.000000	0.000000	0.000000
0.020000	87.970000	34.010000	163.000000	0.000000	126.000000	61.000000	0.000000	0.000000
0.030000	87.970000	34.010000	230.000000	0.000000	126.000000	61.000000	0.000000	0.000000
0.040000	87.970000	34.010000	294.000000	0.000000	124.000000	62.000000	0.000000	0.000000
0.050000	87.850000	34.280000	359.000000	0.000000	124.000000	62.000000	-12.000000	27.000000
0.060000	87.850000	34.280000	422.000000	0.000000	124.000000	62.000000	0.000000	0.000000
0.070000	87.790000	34.280000	475.000000	0.000000	124.000000	62.000000	-6.000000	0.000000
0.080000	87.790000	34.330000	519.000000	0.000000	126.000000	61.000000	0.000000	5.000000
0.090000	87.790000	34.330000	536.000000	0.000000	126.000000	61.000000	0.000000	0.000000
0.100000	87.790000	34.260000	564.000000	0.000000	126.000000	61.000000	0.000000	-7.000000
0.110000	87.940000	34.120000	581.000000	0.000000	126.000000	61.000000	15.000000	-14.000000
0.120000	88.170000	33.890000	605.000000	0.000000	126.000000	61.000000	23.000000	-23.000000
0.130000	88.510000	33.350000	609.000000	0.000000	126.000000	61.000000	34.000000	-54.000000
0.140000	88.840000	32.610000	627.000000	0.000000	126.000000	61.000000	33.000000	-74.000000
0.150000	89.160000	31.760000	639.000000	0.000000	126.000000	61.000000	32.000000	-85.000000
0.160000	89.510000	30.850000	641.000000	0.000000	126.000000	61.000000	35.000000	-91.000000
0.170000	89.870000	29.890000	639.000000	0.000000	128.000000	61.000000	36.000000	-96.000000
0.180000	90.180000	29.030000	634.000000	0.000000	128.000000	61.000000	31.000000	-86.000000
0.190000	90.450000	28.480000	641.000000	0.000000	126.000000	61.000000	27.000000	-55.000000
0.200000	90.580000	28.130000	639.000000	0.000000	125.000000	60.000000	13.000000	-35.000000
0.210000	90.630000	27.790000	622.000000	0.000000	125.000000	60.000000	5.000000	-34.000000
0.220000	90.630000	27.620000	546.000000	0.000000	123.000000	61.000000	0.000000	-17.000000
0.230000	90.500000	27.570000	203.000000	0.000000	123.000000	61.000000	-13.000000	-5.000000
0.240000	90.500000	27.570000	0.000000	1.000000	122.000000	61.000000	0.000000	0.000000
0.250000	90.050000	27.970000	0.000000	0.000000	122.000000	61.000000	-45.000000	40.000000
0.260000	89.690000	28.440000	0.000000	0.000000	122.000000	61.000000	-36.000000	47.000000
0.270000	89.380000	28.980000	0.000000	0.000000	120.000000	62.000000	-31.000000	54.000000
0.280000	89.200000	29.500000	0.000000	0.000000	120.000000	62.000000	-18.000000	52.000000
0.290000	89.110000	30.010000	0.000000	0.000000	119.000000	61.000000	-9.000000	51.000000
0.300000	89.050000	30.330000	0.000000	0.000000	119.000000	61.000000	-6.000000	32.000000
0.310000	88.940000	30.600000	0.000000	0.000000	119.000000	61.000000	-11.000000	27.000000
0.320000	88.810000	30.770000	0.000000	0.000000	120.000000	60.000000	-13.000000	17.000000
0.330000	88.460000	30.860000	0.000000	0.000000	120.000000	60.000000	-35.000000	9.000000
0.340000	88.110000	30.860000	0.000000	0.000000	122.000000	60.000000	-35.000000	0.000000
0.350000	87.770000	30.860000	0.000000	0.000000	123.000000	61.000000	-34.000000	0.000000
0.360000	87.450000	30.860000	0.000000	0.000000	123.000000	61.000000	-32.000000	0.000000
0.370000	87.280000	30.860000	0.000000	0.000000	126.000000	61.000000	-17.000000	0.000000
0.380000	87.210000	30.860000	0.000000	0.000000	127.000000	62.000000	-7.000000	0.000000
0.390000	87.210000	30.980000	0.000000	0.000000	129.000000	63.000000	0.000000	12.000000
0.400000	87.210000	31.120000	0.000000	0.000000	130.000000	62.000000	0.000000	14.000000
0.410000	87.260000	31.250000	0.000000	0.000000	130.000000	62.000000	5.000000	13.000000
0.420000	87.260000	31.370000	0.000000	0.000000	130.000000	62.000000	0.000000	12.000000
0.430000	87.260000	31.500000	0.000000	0.000000	130.000000	62.000000	0.000000	13.000000
0.440000	87.260000	31.650000	0.000000	0.000000	130.000000	62.000000	0.000000	15.000000
0.450000	87.170000	31.590000	0.000000	0.000000	129.000000	61.000000	-9.000000	-6.000000
0.460000	87.110000	31.500000	0.000000	0.000000	129.000000	61.000000	-6.000000	-9.000000
0.470000	87.030000	31.390000	0.000000	0.000000	129.000000	61.000000	-8.000000	-11.000000
0.480000	86.960000	31.390000	0.000000	0.000000	129.000000	61.000000	-7.000000	0.000000
0.490000	86.910000	31.390000	0.000000	0.000000	128.000000	61.000000	-5.000000	0.000000
0.500000	86.910000	31.390000	0.000000	0.000000	128.000000	61.000000	0.000000	0.000000
0.510000	86.910000	31.490000	0.000000	0.000000	128.000000	61.000000	0.000000	10.000000
0.520000	86.980000	31.580000	0.000000	0.000000	126.000000	60.000000	7.000000	9.000000
0.530000	87.030000	31.650000	0.000000	0.000000	126.000000	60.000000	5.000000	7.000000
0.540000	87.030000	31.650000	0.000000	0.000000	126.000000	60.000000	0.000000	0.000000
0.550000	87.030000	31.700000	0.000000	0.000000	126.000000	60.000000	0.000000	5.000000
0.560000	86.940000	31.700000	0.000000	0.000000	126.000000	60.000000	-9.000000	0.000000
0.570000	86.940000	31.760000	0.000000	0.000000	126.000000	60.000000	0.000000	6.000000
0.580000	86.940000	31.810000	0.000000	0.000000	126.000000	60.000000	0.000000	5.000000
0.590000	86.940000	31.870000	0.000000	0.000000	126.000000	60.000000	0.000000	6.000000
0.600000	86.940000	31.870000	0.000000	0.000000	126.000000	60.000000	0.000000	0.000000
0.610000	86.940000	31.920000	0.000000	0.000000	126.000000	60.000000	0.000000	5.000000
0.620000	86.940000	31.920000	0.000000	0.000000	126.000000	60.000000	0.000000	0.000000
0.630000	86.880000	31.920000	0.000000	0.000000	126.000000	60.000000	-6.000000	0.000000
0.640000	86.880000	31.920000	0.000000	0.000000	126.000000	60.000000	0.000000	0.000000
0.650000	86.880000	31.920000	0.000000	0.000000	126.000000	60.000000	0.000000	0.000000
0.660000	86.880000	31.920000	0.000000	0.000000	126.000000	60.000000	0.000000	0.000000
0.670000	86.880000	31.990000	0.000000	0.000000	126.000000	60.000000	0.000000	7.000000
0.680000	86.880000	32.040000	0.000000	0.000000	126.000000	60.000000	0.000000	5.000000
0.690000	86.880000	32.040000	0.000000	0.000000	126.000000	60.000000	0.000000	0.000000
0.700000	86.880000	32.040000	0.000000	0.000000	125.000000	59.000000	0.000000	0.000000
0.710000	86.880000	32.090000	0.000000	0.000000	125.000000	59.000000	0.000000	5.000000
0.720000	86.830000	32.090000	0.000000	0.000000	125.000000	59.000000	-5.000000	0.000000
0.730000	86.830000	32.090000	0.000000	0.000000	126.000000	60.000000	0.000000	0.000000
0.740000	86.830000	32.090000	0.000000	0.000000	126.000000	60.000000	0.000000	0.000000
0.750000	86.830000	32.090000	0.000000	0.000000	126.000000	60.000000	0.000000	0.000000
0.760000	86.780000	32.090000	0.000000	0.000000	126.000000	60.000000	-5.000000	0.000000
0.770000	86.780000	32.090000	0.000000	0.000000	126.000000	60.000000	0.000000	0.000000
0.780000	86.780000	32.140000	0.000000	0.000000	126.000000	60.000000	0.000000	5.000000
0.790000	86.710000	32.200000	0.000000	0.000000	126.000000	60.000000	-7.000000	6.000000
0.800000	86.710000	32.200000	0.000000	0.000000	126.000000	60.000000	0.000000	0.000000
0.810000	86.710000	32.290000	0.000000	0.000000	126.000000	60.000000	0.000000	9.000000
0.820000	86.710000	32.290000	0.000000	0.000000	126.000000	60.000000	0.000000	0.000000
0.830000	86.710000	32.350000	0.000000	0.000000	126.000000	60.000000	0.000000	6.000000
0.840000	86.710000	32.350000	0.000000	0.000000	125.000000	59.000000	0.000000	0.000000
0.850000	86.710000	32.350000	0.000000	0.000000	125.000000	59.000000	0.000000	0.000000
0.860000	86.710000	32.350000	0.000000	0.000000	125.000000	59.000000	0.000000	0.000000
0.870000	86.710000	32.350000	3.000000	0.000000	125.000000	59.000000	0.000000	0.000000
0.880000	86.710000	32.350000	55.000000	1.000000	126.000000	60.000000	0.000000	0.000000
0.890000	86.710000	32.350000	119.000000	0.000000	126.000000	60.000000	0.000000	0.000000
0.900000	86.710000	32.350000	184.000000	0.000000	126.000000	60.000000	0.000000	0.000000
0.910000	86.710000	32.350000	206.000000	0.000000	126.000000	60.000000	0.000000	0.000000
0.920000	86.580000	32.670000	260.000000	0.000000	126.000000	60.000000	-13.000000	32.000000
0.930000	86.650000	32.720000	304.000000	0.000000	126.000000	60.000000	7.000000	5.000000
0.940000	86.650000	32.720000	368.000000	0.000000	126.000000	60.000000	0.000000	0.000000
0.950000	86.650000	32.720000	404.000000	0.000000	126.000000	60.000000	0.000000	0.000000
0.960000	86.650000	32.720000	428.000000	0.000000	126.000000	60.000000	0.000000	0.000000
0.970000	86.650000	32.720000	444.000000	0.000000	126.000000	60.000000	0.000000	0.000000
0.980000	86.650000	32.640000	449.000000	0.000000	126.000000	60.000000	0.000000	-8.000000
0.990000	86.720000	32.560000	440.000000	0.000000	126.000000	60.000000	7.000000	-8.000000
1.000000	86.850000	32.180000	450.000000	0.000000	126.000000	60.000000	13.000000	-38.000000
1.010000	87.090000	31.620000	456.000000	0.000000	126.000000	60.000000	24.000000	-56.000000
1.020000	87.360000	31.280000	461.000000	0.000000	126.000000	60.000000	27.000000	-34.000000
1.030000	87.630000	30.930000	466.000000	0.000000	126.000000	60.000000	27.000000	-35.000000
1.040000	88.000000	30.750000	466.000000	0.000000	126.000000	60.000000	37.000000	-18.000000
1.050000	88.400000	30.700000	466.000000	0.000000	126.000000	60.000000	40.000000	-5.000000
1.060000	88.880000	30.830000	469.000000	0.000000	126.000000	60.000000	48.000000	13.000000
1.070000	89.360000	31.160000	464.000000	0.000000	126.000000	60.000000	48.000000	33.000000
1.080000	89.810000	31.620000	469.000000	0.000000	126.000000	60.000000	45.000000	46.000000
1.090000	90.060000	32.120000	469.000000	0.000000	126.000000	60.000000	25.000000	50.000000
1.100000	90.180000	32.670000	458.000000	0.000000	126.000000	60.000000	12.000000	55.000000
1.110000	90.180000	33.260000	456.000000	0.000000	126.000000	60.000000	0.000000	59.000000
1.120000	89.980000	33.670000	445.000000	0.000000	126.000000	60.000000	-20.000000	41.000000
1.130000	89.700000	34.040000	445.000000	0.000000	125.000000	59.000000	-28.000000	37.000000
1.140000	89.390000	34.340000	460.000000	0.000000	125.000000	59.000000	-31.000000	30.000000
1.150000	89.090000	34.420000	465.000000	0.000000	124.000000	60.000000	-30.000000	8.000000
1.160000	88.970000	34.360000	468.000000	0.000000	123.000000	59.000000	-12.000000	-6.000000
1.170000	88.970000	34.280000	473.000000	0.000000	123.000000	59.000000	0.000000	-8.000000
1.180000	89.100000	33.960000	486.000000	0.000000	123.000000	59.000000	13.000000	-32.000000
1.190000	89.270000	33.490000	515.000000	0.000000	123.000000	59.000000	17.000000	-47.000000
1.200000	89.530000	32.900000	533.000000	0.000000	123.000000	59.000000	26.000000	-59.000000
1.210000	89.850000	32.330000	539.000000	0.000000	123.000000	59.000000	32.000000	-57.000000
1.220000	90.200000	31.780000	557.000000	0.000000	123.000000	59.000000	35.000000	-55.000000
1.230000	90.590000	31.240000	564.000000	0.000000	124.000000	60.000000	39.000000	-54.000000
1.240000	90.980000	30.750000	565.000000	0.000000	125.000000	59.000000	39.000000	-49.000000
1.250000	91.350000	30.400000	560.000000	0.000000	125.000000	59.000000	37.000000	-35.000000
1.260000	91.620000	30.100000	563.000000	0.000000	126.000000	60.000000	27.000000	-30.000000
1.270000	91.830000	29.840000	569.000000	0.000000	126.000000	60.000000	21.000000	-26.000000
1.280000	91.890000	29.640000	585.000000	0.000000	126.000000	60.000000	6.000000	-20.000000
1.290000	91.820000	29.440000	597.000000	0.000000	126.000000	60.000000	-7.000000	-20.000000
1.300000	91.660000	29.250000	614.000000	0.000000	125.000000	60.000000	-16.000000	-19.000000
1.310000	91.320000	29.010000	613.000000	0.000000	125.000000	60.000000	-34.000000	-24.000000
1.320000	90.900000	28.870000	613.000000	0.000000	125.000000	60.000000	-42.000000	-14.000000
1.330000	90.420000	28.800000	603.000000	0.000000	125.000000	60.000000	-48.000000	-7.000000
1.340000	89.900000	28.800000	614.000000	0.000000	125.000000	60.000000	-52.000000	0.000000
1.350000	89.380000	28.800000	611.000000	0.000000	125.000000	60.000000	-52.000000	0.000000
1.360000	88.880000	28.950000	616.000000	0.000000	125.000000	60.000000	-50.000000	15.000000
1.370000	88.380000	28.950000	613.000000	0.000000	123.000000	61.000000	-50.000000	0.000000
1.380000	88.210000	29.000000	614.000000	0.000000	123.000000	61.000000	-17.000000	5.000000
1.390000	88.210000	29.060000	610.000000	0.000000	124.000000	62.000000	0.000000	6.000000
1.400000	88.280000	29.160000	610.000000	0.000000	124.000000	62.000000	7.000000	10.000000
1.410000	88.470000	29.300000	619.000000	0.000000	126.000000	61.000000	19.000000	14.000000
1.420000	88.860000	29.550000	603.000000	0.000000	126.000000	61.000000	39.000000	25.000000
1.430000	89.380000	29.780000	588.000000	0.000000	126.000000	61.000000	52.000000	23.000000
1.440000	89.910000	29.970000	559.000000	0.000000	126.000000	61.000000	53.000000	19.000000
1.450000	90.390000	30.050000	507.000000	0.000000	126.000000	61.000000	48.000000	8.000000
1.460000	90.760000	30.050000	422.000000	0.000000	126.000000	61.000000	37.000000	0.000000
1.470000	91.060000	30.130000	310.000000	0.000000	128.000000	61.000000	30.000000	8.000000
1.480000	91.190000	30.130000	139.000000	0.000000	128.000000	61.000000	13.000000	0.000000
1.490000	91.190000	30.130000	0.000000	1.000000	128.000000	61.000000	0.000000	0.000000
1.500000	91.190000	30.260000	0.000000	0.000000	128.000000	61.000000	0.000000	13.000000
1.510000	91.190000	30.380000	0.000000	0.000000	128.000000	61.000000	0.000000	12.000000
1.520000	91.130000	30.460000	0.000000	0.000000	128.000000	61.000000	-6.000000	8.000000
1.530000	91.130000	30.510000	0.000000	0.000000	129.000000	61.000000	0.000000	5.000000
1.540000	91.130000	30.510000	0.000000	0.000000	129.000000	61.000000	0.000000	0.000000
1.550000	91.130000	30.430000	0.000000	0.000000	130.000000	62.000000	0.000000	-8.000000
1.560000	91.130000	30.360000	0.000000	0.000000	129.000000	63.000000	0.000000	-7.000000
1.570000	91.240000	30.360000	0.000000	0.000000	129.000000	63.000000	11.000000	0.000000
1.580000	91.350000	30.360000	0.000000	0.000000	129.000000	63.000000	11.000000	0.000000
1.590000	91.460000	30.440000	0.000000	0.000000	129.000000	63.000000	11.000000	8.000000
1.600000	91.570000	30.440000	0.000000	0.000000	129.000000	63.000000	11.000000	0.000000
1.610000	91.640000	30.500000	0.000000	0.000000	127.000000	62.000000	7.000000	6.000000
1.620000	91.640000	30.500000	0.000000	0.000000	127.000000	62.000000	0.000000	0.000000
1.630000	91.640000	30.500000	0.000000	0.000000	127.000000	62.000000	0.000000	0.000000
1.640000	91.640000	30.500000	0.000000	0.000000	127.000000	62.000000	0.000000	0.000000
1.650000	91.640000	30.550000	0.000000	0.000000	127.000000	62.000000	0.000000	5.000000
1.660000	91.640000	30.550000	0.000000	0.000000	127.000000	62.000000	0.000000	0.000000
1.670000	91.640000	30.550000	0.000000	0.000000	127.000000	62.000000	0.000000	0.000000
1.680000	91.640000	30.550000	0.000000	0.000000	129.000000	63.000000	0.000000	0.000000
1.690000	91.640000	30.550000	0.000000	0.000000	130.000000	62.000000	0.000000	0.000000
1.700000	91.710000	30.550000	0.000000	0.000000	130.000000	62.000000	7.000000	0.000000
1.710000	91.710000	30.550000	0.000000	0.000000	130.000000	62.000000	0.000000	0.000000
1.720000	91.710000	30.550000	5.000000	0.000000	130.000000	62.000000	0.000000	0.000000
1.730000	91.710000	30.550000	81.000000	1.000000	130.000000	62.000000	0.000000	0.000000
1.740000	91.710000	30.550000	113.000000	0.000000	130.000000	62.000000	0.000000	0.000000
1.750000	91.710000	30.550000	142.000000	0.000000	129.000000	63.000000	0.000000	0.000000
1.760000	91.710000	30.550000	137.000000	0.000000	129.000000	63.000000	0.000000	0.000000
1.770000	91.710000	30.550000	137.000000	0.000000	127.000000	62.000000	0.000000	0.000000
1.780000	91.710000	30.550000	141.000000	0.000000	127.000000	62.000000	0.000000	0.000000
1.790000	91.710000	30.550000	146.000000	0.000000	127.000000	62.000000	0.000000	0.000000
1.800000	91.710000	30.550000	160.000000	0.000000	126.000000	61.000000	0.000000	0.000000
1.810000	91.710000	30.550000	182.000000	0.000000	126.000000	61.000000	0.000000	0.000000
1.820000	91.710000	30.550000	190.000000	0.000000	126.000000	61.000000	0.000000	0.000000
1.830000	91.710000	30.550000	195.000000	0.000000	128.000000	61.000000	0.000000	0.000000
1.840000	91.710000	30.550000	198.000000	0.000000	126.000000	60.000000	0.000000	0.000000
1.850000	91.710000	30.550000	196.000000	0.000000	126.000000	60.000000	0.000000	0.000000
1.860000	91.710000	30.550000	171.000000	0.000000	126.000000	60.000000	0.000000	0.000000
1.870000	91.710000	30.550000	149.000000	0.000000	126.000000	60.000000	0.000000	0.000000
1.880000	91.710000	30.550000	108.000000	0.000000	126.000000	60.000000	0.000000	0.000000
1.890000	91.710000	30.550000	100.000000	0.000000	126.000000	60.000000	0.000000	0.000000
1.900000	91.710000	30.550000	107.000000	0.000000	126.000000	60.000000	0.000000	0.000000
1.910000	91.710000	30.550000	108.000000	0.000000	126.000000	60.000000	0.000000	0.000000
1.920000	91.950000	30.840000	130.000000	0.000000	126.000000	60.000000	24.000000	29.000000
1.930000	92.010000	30.840000	137.000000	0.000000	126.000000	60.000000	6.000000	0.000000
1.940000	92.010000	30.840000	173.000000	0.000000	128.000000	61.000000	0.000000	0.000000
1.950000	92.010000	30.840000	185.000000	0.000000	128.000000	61.000000	0.000000	0.000000
1.960000	92.010000	30.840000	210.000000	0.000000	128.000000	61.000000	0.000000	0.000000
1.970000	92.010000	30.840000	247.000000	0.000000	128.000000	61.000000	0.000000	0.000000
1.980000	92.010000	30.840000	275.000000	0.000000	128.000000	61.000000	0.000000	0.000000
1.990000	92.010000	30.840000	279.000000	0.000000	128.000000	61.000000	0.000000	0.000000
2.000000	92.010000	30.920000	277.000000	0.000000	128.000000	61.000000	0.000000	8.000000
2.010000	92.010000	30.920000	286.000000	0.000000	128.000000	61.000000	0.000000	0.000000
2.020000	92.010000	30.980000	291.000000	0.000000	128.000000	61.000000	0.000000	6.000000
2.030000	92.010000	30.980000	292.000000	0.000000	128.000000	61.000000	0.000000	0.000000
2.040000	92.010000	30.980000	299.000000	0.000000	129.000000	60.000000	0.000000	0.000000
2.050000	92.060000	30.980000	316.000000	0.000000	129.000000	60.000000	5.000000	0.000000
2.060000	92.060000	30.980000	316.000000	0.000000	129.000000	60.000000	0.000000	0.000000
2.070000	92.060000	30.980000	304.000000	0.000000	129.000000	60.000000	0.000000	0.000000
2.080000	92.060000	30.930000	309.000000	0.000000	129.000000	60.000000	0.000000	-5.000000
2.090000	92.010000	30.930000	312.000000	0.000000	129.000000	60.000000	-5.000000	0.000000
2.100000	92.010000	30.930000	315.000000	0.000000	128.000000	61.000000	0.000000	0.000000
2.110000	92.010000	30.930000	314.000000	0.000000	128.000000	61.000000	0.000000	0.000000
2.120000	92.010000	30.980000	315.000000	0.000000	128.000000	61.000000	0.000000	5.000000
2.130000	92.010000	30.980000	319.000000	0.000000	128.000000	61.000000	0.000000	0.000000
2.140000	91.960000	30.980000	320.000000	0.000000	128.000000	61.000000	-5.000000	0.000000
2.150000	91.960000	31.030000	327.000000	0.000000	128.000000	61.000000	0.000000	5.000000
2.160000	91.960000	31.030000	329.000000	0.000000	128.000000	61.000000	0.000000	0.000000
2.170000	91.960000	31.030000	330.000000	0.000000	128.000000	61.000000	0.000000	0.000000
2.180000	91.960000	31.030000	334.000000	0.000000	128.000000	61.000000	0.000000	0.000000
2.190000	91.960000	31.030000	339.000000	0.000000	128.000000	61.000000	0.000000	0.000000
2.200000	91.960000	31.030000	345.000000	0.000000	128.000000	61.000000	0.000000	0.000000
2.210000	91.960000	31.030000	349.000000	0.000000	129.000000	60.000000	0.000000	0.000000
2.220000	91.960000	31.030000	361.000000	0.000000	129.000000	60.000000	0.000000	0.000000
2.230000	91.960000	31.030000	371.000000	0.000000	129.000000	60.000000	0.000000	0.000000
2.240000	91.900000	31.100000	361.000000	0.000000	129.000000	60.000000	-6.000000	7.000000
2.250000	91.900000	31.100000	361.000000	0.000000	129.000000	60.000000	0.000000	0.000000
