t	x	y	pressure	penup	azimuth	inclination	v_x	v_y
0.000000	88.210000	16.540000	18.000000	1.000000	149.000000	56.000000	0.000000	0.000000
0.010000	88.440000	16.900000	98.000000	0.000000	149.000000	56.000000	23.000000	36.000000
0.020000	88.490000	16.990000	188.000000	0.000000	148.000000	57.000000	5.000000	9.000000
0.030000	88.490000	17.040000	282.000000	0.000000	146.000000	57.000000	0.000000	5.000000
0.040000	88.490000	17.040000	361.000000	0.000000	144.000000	58.000000	0.000000	0.000000
0.050000	88.420000	17.120000	422.000000	0.000000	143.000000	59.000000	-7.000000	8.000000
0.060000	88.420000	17.120000	470.000000	0.000000	142.000000	59.000000	0.000000	0.000000
0.070000	88.360000	17.120000	524.000000	0.000000	141.000000	60.000000	-6.000000	0.000000
0.080000	88.360000	17.120000	540.000000	0.000000	139.000000	61.000000	0.000000	0.000000
0.090000	88.360000	17.120000	546.000000	0.000000	139.000000	61.000000	0.000000	0.000000
0.100000	88.410000	17.120000	551.000000	0.000000	139.000000	61.000000	5.000000	0.000000
0.110000	88.550000	16.910000	561.000000	0.000000	139.000000	61.000000	14.000000	-21.000000
0.120000	88.820000	16.430000	588.000000	0.000000	141.000000	60.000000	27.000000	-48.000000
0.130000	89.160000	15.770000	620.000000	0.000000	141.000000	60.000000	34.000000	-66.000000
0.140000	89.580000	14.770000	667.000000	0.000000	141.000000	59.000000	42.000000	-100.000000
0.150000	89.990000	13.750000	685.000000	0.000000	141.000000	59.000000	41.000000	-102.000000
0.160000	90.380000	12.680000	708.000000	0.000000	139.000000	60.000000	39.000000	-107.000000
0.170000	90.790000	11.610000	728.000000	0.000000	141.000000	60.000000	41.000000	-107.000000
0.180000	91.120000	10.560000	734.000000	0.000000	141.000000	60.000000	33.000000	-105.000000
0.190000	91.390000	10.120000	749.000000	0.000000	141.000000	61.000000	27.000000	-44.000000
0.200000	91.560000	9.840000	749.000000	0.000000	140.000000	62.000000	17.000000	-28.000000
0.210000	91.640000	9.670000	737.000000	0.000000	140.000000	63.000000	8.000000	-17.000000
0.220000	91.640000	9.600000	690.000000	0.000000	140.000000	65.000000	0.000000	-7.000000
0.230000	91.640000	9.600000	474.000000	0.000000	140.000000	65.000000	0.000000	0.000000
0.240000	91.640000	9.600000	0.000000	1.000000	140.000000	65.000000	0.000000	0.000000
0.250000	91.260000	10.060000	0.000000	0.000000	142.000000	65.000000	-38.000000	46.000000
0.260000	90.840000	10.550000	0.000000	0.000000	140.000000	65.000000	-42.000000	49.000000
0.270000	90.420000	11.150000	0.000000	0.000000	140.000000	65.000000	-42.000000	60.000000
0.280000	90.180000	11.880000	0.000000	0.000000	140.000000	65.000000	-24.000000	73.000000
0.290000	90.060000	12.570000	0.000000	0.000000	140.000000	63.000000	-12.000000	69.000000
0.300000	89.950000	13.160000	0.000000	0.000000	140.000000	62.000000	-11.000000	59.000000
0.310000	89.850000	13.570000	0.000000	0.000000	141.000000	60.000000	-10.000000	41.000000
0.320000	89.740000	13.870000	0.000000	0.000000	141.000000	59.000000	-11.000000	30.000000
0.330000	89.550000	14.150000	0.000000	0.000000	142.000000	57.000000	-19.000000	28.000000
0.340000	89.330000	14.390000	0.000000	0.000000	143.000000	56.000000	-22.000000	24.000000
0.350000	89.060000	14.560000	0.000000	0.000000	144.000000	56.000000	-27.000000	17.000000
0.360000	88.840000	14.710000	0.000000	0.000000	145.000000	55.000000	-22.000000	15.000000
0.370000	88.690000	14.850000	0.000000	0.000000	146.000000	54.000000	-15.000000	14.000000
0.380000	88.590000	15.010000	0.000000	0.000000	147.000000	55.000000	-10.000000	16.000000
0.390000	88.590000	15.110000	0.000000	0.000000	150.000000	54.000000	0.000000	10.000000
0.400000	88.590000	15.170000	0.000000	0.000000	150.000000	55.000000	0.000000	6.000000
0.410000	88.590000	15.170000	0.000000	0.000000	152.000000	56.000000	0.000000	0.000000
0.420000	88.590000	15.170000	0.000000	0.000000	153.000000	56.000000	0.000000	0.000000
0.430000	88.530000	15.010000	0.000000	0.000000	154.000000	57.000000	-6.000000	-16.000000
0.440000	88.450000	14.870000	0.000000	0.000000	155.000000	58.000000	-8.000000	-14.000000
0.450000	88.300000	14.720000	0.000000	0.000000	155.000000	58.000000	-15.000000	-15.000000
0.460000	88.110000	14.610000	0.000000	0.000000	153.000000	58.000000	-19.000000	-11.000000
0.470000	88.000000	14.520000	0.000000	0.000000	152.000000	59.000000	-11.000000	-9.000000
0.480000	87.920000	14.520000	0.000000	0.000000	151.000000	60.000000	-8.000000	0.000000
0.490000	87.920000	14.520000	0.000000	0.000000	148.000000	60.000000	0.000000	0.000000
0.500000	87.920000	14.570000	0.000000	0.000000	148.000000	60.000000	0.000000	5.000000
0.510000	87.920000	14.570000	0.000000	0.000000	147.000000	61.000000	0.000000	0.000000
0.520000	87.920000	14.630000	0.000000	0.000000	145.000000	60.000000	0.000000	6.000000
0.530000	87.920000	14.630000	0.000000	0.000000	145.000000	60.000000	0.000000	0.000000
0.540000	87.820000	14.730000	0.000000	0.000000	145.000000	60.000000	-10.000000	10.000000
0.550000	87.720000	14.780000	0.000000	0.000000	142.000000	61.000000	-10.000000	5.000000
0.560000	87.720000	14.780000	66.000000	1.000000	142.000000	61.000000	0.000000	0.000000
0.570000	87.720000	14.780000	127.000000	0.000000	142.000000	61.000000	0.000000	0.000000
0.580000	87.720000	14.780000	180.000000	0.000000	141.000000	61.000000	0.000000	0.000000
0.590000	87.720000	14.780000	256.000000	0.000000	139.000000	61.000000	0.000000	0.000000
0.600000	87.580000	15.080000	312.000000	0.000000	139.000000	61.000000	-14.000000	30.000000
0.610000	87.670000	15.180000	369.000000	0.000000	138.000000	61.000000	9.000000	10.000000
0.620000	87.750000	15.260000	449.000000	0.000000	136.000000	61.000000	8.000000	8.000000
0.630000	87.820000	15.260000	473.000000	0.000000	136.000000	61.000000	7.000000	0.000000
0.640000	87.900000	15.260000	492.000000	0.000000	136.000000	61.000000	8.000000	0.000000
0.650000	87.970000	15.260000	520.000000	0.000000	136.000000	61.000000	7.000000	0.000000
0.660000	88.160000	15.010000	518.000000	0.000000	138.000000	60.000000	19.000000	-25.000000
0.670000	88.430000	14.710000	519.000000	0.000000	136.000000	61.000000	27.000000	-30.000000
0.680000	88.840000	14.350000	522.000000	0.000000	136.000000	61.000000	41.000000	-36.000000
0.690000	89.240000	14.150000	510.000000	0.000000	136.000000	61.000000	40.000000	-20.000000
0.700000	89.630000	14.070000	497.000000	0.000000	136.000000	61.000000	39.000000	-8.000000
0.710000	90.040000	14.070000	491.000000	0.000000	135.000000	62.000000	41.000000	0.000000
0.720000	90.360000	14.370000	483.000000	0.000000	137.000000	62.000000	32.000000	30.000000
0.730000	90.630000	14.770000	477.000000	0.000000	137.000000	62.000000	27.000000	40.000000
0.740000	90.730000	15.190000	481.000000	0.000000	138.000000	63.000000	10.000000	42.000000
0.750000	90.650000	15.600000	475.000000	0.000000	141.000000	63.000000	-8.000000	41.000000
0.760000	90.450000	16.020000	473.000000	0.000000	143.000000	62.000000	-20.000000	42.000000
0.770000	90.190000	16.440000	472.000000	0.000000	144.000000	62.000000	-26.000000	42.000000
0.780000	89.940000	16.740000	496.000000	0.000000	144.000000	61.000000	-25.000000	30.000000
0.790000	89.840000	16.990000	512.000000	0.000000	145.000000	60.000000	-10.000000	25.000000
0.800000	89.840000	16.990000	510.000000	0.000000	144.000000	60.000000	0.000000	0.000000
0.810000	89.900000	16.790000	522.000000	0.000000	142.000000	59.000000	6.000000	-20.000000
0.820000	90.010000	16.670000	527.000000	0.000000	142.000000	58.000000	11.000000	-12.000000
0.830000	90.190000	16.310000	543.000000	0.000000	140.000000	58.000000	18.000000	-36.000000
0.840000	90.410000	15.780000	556.000000	0.000000	139.000000	57.000000	22.000000	-53.000000
0.850000	90.620000	15.340000	561.000000	0.000000	138.000000	57.000000	21.000000	-44.000000
0.860000	90.800000	14.780000	580.000000	0.000000	138.000000	57.000000	18.000000	-56.000000
0.870000	90.970000	14.300000	585.000000	0.000000	138.000000	57.000000	17.000000	-48.000000
0.880000	91.210000	13.920000	592.000000	0.000000	138.000000	58.000000	24.000000	-38.000000
0.890000	91.420000	13.430000	597.000000	0.000000	138.000000	59.000000	21.000000	-49.000000
0.900000	91.600000	12.930000	591.000000	0.000000	138.000000	60.000000	18.000000	-50.000000
0.910000	91.730000	12.450000	589.000000	0.000000	138.000000	61.000000	13.000000	-48.000000
0.920000	91.830000	12.100000	585.000000	0.000000	138.000000	63.000000	10.000000	-35.000000
0.930000	91.830000	11.830000	586.000000	0.000000	138.000000	64.000000	0.000000	-27.000000
0.940000	91.830000	11.670000	588.000000	0.000000	137.000000	65.000000	0.000000	-16.000000
0.950000	91.830000	11.610000	592.000000	0.000000	138.000000	65.000000	0.000000	-6.000000
0.960000	91.690000	11.610000	591.000000	0.000000	138.000000	65.000000	-14.000000	0.000000
0.970000	91.450000	11.710000	595.000000	0.000000	137.000000	65.000000	-24.000000	10.000000
0.980000	91.130000	11.840000	567.000000	0.000000	137.000000	66.000000	-32.000000	13.000000
0.990000	90.670000	12.010000	560.000000	0.000000	137.000000	66.000000	-46.000000	17.000000
1.000000	90.200000	12.130000	561.000000	0.000000	137.000000	66.000000	-47.000000	12.000000
1.010000	89.730000	12.210000	567.000000	0.000000	137.000000	66.000000	-47.000000	8.000000
1.020000	89.380000	12.210000	580.000000	0.000000	137.000000	66.000000	-35.000000	0.000000
1.030000	89.080000	12.110000	592.000000	0.000000	133.000000	66.000000	-30.000000	-10.000000
1.040000	88.950000	11.960000	603.000000	0.000000	133.000000	66.000000	-13.000000	-15.000000
1.050000	88.950000	11.910000	595.000000	0.000000	133.000000	66.000000	0.000000	-5.000000
1.060000	89.000000	11.910000	589.000000	0.000000	132.000000	65.000000	5.000000	0.000000
1.070000	89.090000	12.020000	585.000000	0.000000	132.000000	65.000000	9.000000	11.000000
1.080000	89.230000	12.190000	589.000000	0.000000	132.000000	65.000000	14.000000	17.000000
1.090000	89.560000	12.420000	570.000000	0.000000	132.000000	65.000000	33.000000	23.000000
1.100000	90.010000	12.710000	569.000000	0.000000	132.000000	65.000000	45.000000	29.000000
1.110000	90.460000	13.010000	541.000000	0.000000	132.000000	65.000000	45.000000	30.000000
1.120000	90.900000	13.310000	465.000000	0.000000	132.000000	65.000000	44.000000	30.000000
1.130000	91.290000	13.450000	291.000000	0.000000	135.000000	65.000000	39.000000	14.000000
1.140000	91.290000	13.450000	0.000000	1.000000	135.000000	65.000000	0.000000	0.000000
1.150000	91.850000	13.580000	0.000000	0.000000	137.000000	65.000000	56.000000	13.000000
1.160000	91.910000	13.490000	0.000000	0.000000	137.000000	65.000000	6.000000	-9.000000
1.170000	91.910000	13.560000	0.000000	0.000000	138.000000	64.000000	0.000000	7.000000
1.180000	91.960000	13.760000	0.000000	0.000000	141.000000	63.000000	5.000000	20.000000
1.190000	92.070000	14.060000	0.000000	0.000000	143.000000	62.000000	11.000000	30.000000
1.200000	92.300000	14.310000	0.000000	0.000000	144.000000	60.000000	23.000000	25.000000
1.210000	92.590000	14.500000	0.000000	0.000000	145.000000	59.000000	29.000000	19.000000
1.220000	92.750000	14.500000	0.000000	0.000000	146.000000	57.000000	16.000000	0.000000
1.230000	92.840000	14.420000	0.000000	0.000000	148.000000	56.000000	9.000000	-8.000000
1.240000	92.840000	14.260000	0.000000	0.000000	149.000000	55.000000	0.000000	-16.000000
1.250000	92.840000	14.050000	0.000000	0.000000	147.000000	55.000000	0.000000	-21.000000
1.260000	92.730000	13.870000	0.000000	0.000000	147.000000	55.000000	-11.000000	-18.000000
1.270000	92.630000	13.720000	0.000000	0.000000	149.000000	55.000000	-10.000000	-15.000000
1.280000	92.560000	13.620000	0.000000	0.000000	148.000000	56.000000	-7.000000	-10.000000
1.290000	92.560000	13.620000	0.000000	0.000000	147.000000	56.000000	0.000000	0.000000
1.300000	92.560000	13.620000	0.000000	0.000000	146.000000	57.000000	0.000000	0.000000
1.310000	92.680000	13.620000	0.000000	0.000000	146.000000	58.000000	12.000000	0.000000
1.320000	92.750000	13.620000	0.000000	0.000000	145.000000	59.000000	7.000000	0.000000
1.330000	92.830000	13.670000	0.000000	0.000000	145.000000	59.000000	8.000000	5.000000
1.340000	92.830000	13.670000	0.000000	0.000000	145.000000	59.000000	0.000000	0.000000
1.350000	92.830000	13.670000	0.000000	0.000000	145.000000	59.000000	0.000000	0.000000
1.360000	92.830000	13.510000	0.000000	0.000000	144.000000	60.000000	0.000000	-16.000000
1.370000	92.730000	13.410000	0.000000	0.000000	144.000000	60.000000	-10.000000	-10.000000
1.380000	92.670000	13.360000	0.000000	0.000000	144.000000	60.000000	-6.000000	-5.000000
1.390000	92.590000	13.360000	0.000000	0.000000	144.000000	61.000000	-8.000000	0.000000
1.400000	92.540000	13.360000	0.000000	0.000000	144.000000	61.000000	-5.000000	0.000000
1.410000	92.540000	13.430000	0.000000	0.000000	143.000000	62.000000	0.000000	7.000000
1.420000	92.640000	13.480000	0.000000	0.000000	143.000000	62.000000	10.000000	5.000000
1.430000	92.700000	13.480000	0.000000	0.000000	143.000000	62.000000	6.000000	0.000000
1.440000	92.700000	13.540000	0.000000	0.000000	143.000000	62.000000	0.000000	6.000000
1.450000	92.700000	13.540000	0.000000	0.000000	143.000000	62.000000	0.000000	0.000000
1.460000	92.700000	13.540000	0.000000	0.000000	143.000000	62.000000	0.000000	0.000000
1.470000	92.700000	13.470000	0.000000	0.000000	143.000000	62.000000	0.000000	-7.000000
1.480000	92.630000	13.470000	0.000000	0.000000	143.000000	62.000000	-7.000000	0.000000
1.490000	92.630000	13.470000	0.000000	0.000000	143.000000	62.000000	0.000000	0.000000
1.500000	92.630000	13.530000	0.000000	0.000000	143.000000	62.000000	0.000000	6.000000
1.510000	92.630000	13.590000	0.000000	0.000000	143.000000	62.000000	0.000000	6.000000
1.520000	92.710000	13.660000	0.000000	0.000000	143.000000	62.000000	8.000000	7.000000
1.530000	92.790000	13.730000	0.000000	0.000000	143.000000	62.000000	8.000000	7.000000
1.540000	92.860000	13.780000	0.000000	0.000000	143.000000	62.000000	7.000000	5.000000
1.550000	92.930000	13.780000	0.000000	0.000000	143.000000	62.000000	7.000000	0.000000
1.560000	92.930000	13.780000	137.000000	1.000000	143.000000	62.000000	0.000000	0.000000
1.570000	92.930000	13.780000	200.000000	0.000000	143.000000	62.000000	0.000000	0.000000
1.580000	92.930000	13.780000	230.000000	0.000000	143.000000	62.000000	0.000000	0.000000
1.590000	92.930000	13.780000	247.000000	0.000000	141.000000	63.000000	0.000000	0.000000
1.600000	92.930000	13.780000	264.000000	0.000000	141.000000	63.000000	0.000000	0.000000
1.610000	92.930000	13.780000	269.000000	0.000000	141.000000	63.000000	0.000000	0.000000
1.620000	92.930000	13.780000	282.000000	0.000000	141.000000	63.000000	0.000000	0.000000
1.630000	93.120000	14.100000	284.000000	0.000000	141.000000	63.000000	19.000000	32.000000
1.640000	93.120000	14.160000	314.000000	0.000000	141.000000	63.000000	0.000000	6.000000
1.650000	93.070000	14.220000	333.000000	0.000000	141.000000	63.000000	-5.000000	6.000000
1.660000	93.010000	14.280000	359.000000	0.000000	141.000000	63.000000	-6.000000	6.000000
1.670000	92.890000	14.280000	361.000000	0.000000	141.000000	63.000000	-12.000000	0.000000
1.680000	92.740000	14.340000	363.000000	0.000000	141.000000	63.000000	-15.000000	6.000000
1.690000	92.530000	14.340000	364.000000	0.000000	143.000000	62.000000	-21.000000	0.000000
1.700000	92.330000	14.220000	373.000000	0.000000	143.000000	62.000000	-20.000000	-12.000000
1.710000	92.130000	13.970000	371.000000	0.000000	143.000000	62.000000	-20.000000	-25.000000
1.720000	92.040000	13.640000	374.000000	0.000000	141.000000	63.000000	-9.000000	-33.000000
1.730000	92.040000	13.280000	367.000000	0.000000	141.000000	63.000000	0.000000	-36.000000
1.740000	92.090000	12.910000	361.000000	0.000000	141.000000	63.000000	5.000000	-37.000000
1.750000	92.300000	12.670000	341.000000	0.000000	140.000000	63.000000	21.000000	-24.000000
1.760000	92.610000	12.510000	332.000000	0.000000	141.000000	64.000000	31.000000	-16.000000
1.770000	92.950000	12.600000	307.000000	0.000000	140.000000	65.000000	34.000000	9.000000
1.780000	93.290000	12.800000	299.000000	0.000000	140.000000	65.000000	34.000000	20.000000
1.790000	93.550000	13.080000	304.000000	0.000000	140.000000	65.000000	26.000000	28.000000
1.800000	93.760000	13.410000	314.000000	0.000000	140.000000	65.000000	21.000000	33.000000
1.810000	93.870000	13.790000	363.000000	0.000000	140.000000	65.000000	11.000000	38.000000
1.820000	93.870000	14.200000	376.000000	0.000000	140.000000	65.000000	0.000000	41.000000
1.830000	93.810000	14.450000	405.000000	0.000000	141.000000	64.000000	-6.000000	25.000000
1.840000	93.590000	14.660000	414.000000	0.000000	143.000000	63.000000	-22.000000	21.000000
1.850000	93.390000	14.780000	425.000000	0.000000	143.000000	62.000000	-20.000000	12.000000
1.860000	93.210000	14.870000	422.000000	0.000000	144.000000	61.000000	-18.000000	9.000000
1.870000	93.160000	14.870000	418.000000	0.000000	142.000000	61.000000	-5.000000	0.000000
1.880000	93.160000	14.870000	396.000000	0.000000	144.000000	60.000000	0.000000	0.000000
1.890000	93.160000	14.870000	387.000000	0.000000	142.000000	59.000000	0.000000	0.000000
1.900000	93.160000	14.870000	376.000000	0.000000	143.000000	59.000000	0.000000	0.000000
1.910000	93.160000	14.820000	379.000000	0.000000	143.000000	59.000000	0.000000	-5.000000
1.920000	93.090000	14.820000	387.000000	0.000000	142.000000	58.000000	-7.000000	0.000000
1.930000	93.090000	14.750000	396.000000	0.000000	143.000000	59.000000	0.000000	-7.000000
1.940000	93.090000	14.750000	396.000000	0.000000	143.000000	59.000000	0.000000	0.000000
1.950000	93.090000	14.680000	396.000000	0.000000	143.000000	59.000000	0.000000	-7.000000
1.960000	93.260000	14.630000	391.000000	0.000000	143.000000	59.000000	17.000000	-5.000000
1.970000	93.550000	14.580000	381.000000	0.000000	143.000000	59.000000	29.000000	-5.000000
1.980000	93.970000	14.580000	384.000000	0.000000	143.000000	59.000000	42.000000	0.000000
1.990000	94.390000	14.700000	388.000000	0.000000	143.000000	59.000000	42.000000	12.000000
2.000000	94.810000	14.850000	396.000000	0.000000	145.000000	59.000000	42.000000	15.000000
2.010000	95.250000	14.980000	396.000000	0.000000	145.000000	59.000000	44.000000	13.000000
2.020000	95.540000	15.080000	405.000000	0.000000	146.000000	58.000000	29.000000	10.000000
2.030000	95.720000	15.080000	413.000000	0.000000	147.000000	59.000000	18.000000	0.000000
2.040000	95.720000	14.900000	420.000000	0.000000	147.000000	59.000000	0.000000	-18.000000
2.050000	95.570000	14.670000	413.000000	0.000000	150.000000	58.000000	-15.000000	-23.000000
2.060000	95.330000	14.310000	413.000000	0.000000	150.000000	58.000000	-24.000000	-36.000000
2.070000	95.020000	13.860000	410.000000	0.000000	149.000000	59.000000	-31.000000	-45.000000
2.080000	94.730000	13.580000	412.000000	0.000000	149.000000	59.000000	-29.000000	-28.000000
2.090000	94.490000	13.430000	402.000000	0.000000	148.000000	60.000000	-24.000000	-15.000000
2.100000	94.310000	13.360000	392.000000	0.000000	147.000000	61.000000	-18.000000	-7.000000
2.110000	94.230000	13.360000	377.000000	0.000000	144.000000	61.000000	-8.000000	0.000000
2.120000	94.230000	13.360000	361.000000	0.000000	144.000000	61.000000	0.000000	0.000000
2.130000	94.370000	13.440000	371.000000	0.000000	141.000000	61.000000	14.000000	8.000000
2.140000	94.540000	13.620000	373.000000	0.000000	141.000000	61.000000	17.000000	18.000000
2.150000	94.750000	13.790000	366.000000	0.000000	141.000000	61.000000	21.000000	17.000000
2.160000	94.970000	13.950000	389.000000	0.000000	139.000000	61.000000	22.000000	16.000000
2.170000	95.190000	14.130000	418.000000	0.000000	141.000000	61.000000	22.000000	18.000000
2.180000	95.390000	14.330000	430.000000	0.000000	141.000000	61.000000	20.000000	20.000000
2.190000	95.570000	14.540000	436.000000	0.000000	142.000000	61.000000	18.000000	21.000000
2.200000	95.760000	14.740000	436.000000	0.000000	144.000000	61.000000	19.000000	20.000000
2.210000	95.930000	14.910000	423.000000	0.000000	145.000000	60.000000	17.000000	17.000000
2.220000	96.080000	15.070000	381.000000	0.000000	148.000000	60.000000	15.000000	16.000000
2.230000	96.260000	15.240000	345.000000	0.000000	149.000000	59.000000	18.000000	17.000000
