t	x	y	pressure	penup	azimuth	inclination	v_x	v_y
0.000000	49.600000	16.370000	46.000000	1.000000	146.000000	50.000000	0.000000	0.000000
0.010000	49.600000	16.370000	83.000000	0.000000	146.000000	50.000000	0.000000	0.000000
0.020000	49.600000	16.370000	119.000000	0.000000	144.000000	50.000000	0.000000	0.000000
0.030000	49.600000	16.730000	175.000000	0.000000	144.000000	50.000000	0.000000	36.000000
0.040000	49.600000	16.810000	222.000000	0.000000	143.000000	50.000000	0.000000	8.000000
0.050000	49.600000	16.890000	282.000000	0.000000	143.000000	50.000000	0.000000	8.000000
0.060000	49.600000	16.960000	358.000000	0.000000	142.000000	50.000000	0.000000	7.000000
0.070000	49.600000	16.960000	443.000000	0.000000	142.000000	50.000000	0.000000	0.000000
0.080000	49.600000	17.010000	509.000000	0.000000	142.000000	50.000000	0.000000	5.000000
0.090000	49.600000	17.010000	560.000000	0.000000	141.000000	51.000000	0.000000	0.000000
0.100000	49.540000	17.010000	613.000000	0.000000	141.000000	51.000000	-6.000000	0.000000
0.110000	49.540000	17.010000	642.000000	0.000000	141.000000	51.000000	0.000000	0.000000
0.120000	49.470000	16.930000	662.000000	0.000000	141.000000	51.000000	-7.000000	-8.000000
0.130000	49.420000	16.860000	676.000000	0.000000	141.000000	51.000000	-5.000000	-7.000000
0.140000	49.340000	16.720000	687.000000	0.000000	141.000000	51.000000	-8.000000	-14.000000
0.150000	49.340000	16.720000	730.000000	0.000000	141.000000	51.000000	0.000000	0.000000
0.160000	49.070000	16.120000	736.000000	0.000000	142.000000	50.000000	-27.000000	-60.000000
0.170000	49.070000	15.620000	753.000000	0.000000	142.000000	50.000000	0.000000	-50.000000
0.180000	49.070000	15.200000	787.000000	0.000000	141.000000	51.000000	0.000000	-42.000000
0.190000	49.160000	14.780000	790.000000	0.000000	141.000000	51.000000	9.000000	-42.000000
0.200000	49.340000	14.450000	824.000000	0.000000	142.000000	52.000000	18.000000	-33.000000
0.210000	49.540000	14.250000	834.000000	0.000000	141.000000	52.000000	20.000000	-20.000000
0.220000	49.770000	14.090000	851.000000	0.000000	140.000000	53.000000	23.000000	-16.000000
0.230000	50.040000	14.090000	864.000000	0.000000	140.000000	54.000000	27.000000	0.000000
0.240000	50.380000	14.210000	875.000000	0.000000	140.000000	54.000000	34.000000	12.000000
0.250000	50.740000	14.330000	872.000000	0.000000	139.000000	55.000000	36.000000	12.000000
0.260000	51.110000	14.660000	869.000000	0.000000	139.000000	55.000000	37.000000	33.000000
0.270000	51.510000	15.150000	866.000000	0.000000	139.000000	55.000000	40.000000	49.000000
0.280000	51.760000	15.760000	857.000000	0.000000	139.000000	55.000000	25.000000	61.000000
0.290000	51.920000	16.200000	855.000000	0.000000	139.000000	55.000000	16.000000	44.000000
0.300000	51.920000	16.640000	853.000000	0.000000	139.000000	55.000000	0.000000	44.000000
0.310000	51.800000	16.880000	861.000000	0.000000	140.000000	54.000000	-12.000000	24.000000
0.320000	51.620000	16.980000	833.000000	0.000000	141.000000	53.000000	-18.000000	10.000000
0.330000	51.410000	17.050000	805.000000	0.000000	141.000000	53.000000	-21.000000	7.000000
0.340000	51.200000	16.950000	760.000000	0.000000	142.000000	53.000000	-21.000000	-10.000000
0.350000	50.990000	16.730000	678.000000	0.000000	142.000000	53.000000	-21.000000	-22.000000
0.360000	50.840000	16.460000	561.000000	0.000000	142.000000	53.000000	-15.000000	-27.000000
0.370000	50.770000	16.190000	396.000000	0.000000	143.000000	52.000000	-7.000000	-27.000000
0.380000	50.820000	16.010000	213.000000	0.000000	143.000000	52.000000	5.000000	-18.000000
0.390000	50.910000	15.900000	89.000000	0.000000	143.000000	52.000000	9.000000	-11.000000
0.400000	51.030000	15.840000	68.000000	0.000000	143.000000	52.000000	12.000000	-6.000000
0.410000	51.090000	15.890000	112.000000	0.000000	143.000000	52.000000	6.000000	5.000000
0.420000	51.090000	16.020000	183.000000	0.000000	143.000000	52.000000	0.000000	13.000000
0.430000	51.030000	16.190000	276.000000	0.000000	143.000000	52.000000	-6.000000	17.000000
0.440000	50.910000	16.410000	415.000000	0.000000	143.000000	52.000000	-12.000000	22.000000
0.450000	50.750000	16.670000	504.000000	0.000000	142.000000	52.000000	-16.000000	26.000000
0.460000	50.600000	16.910000	605.000000	0.000000	142.000000	52.000000	-15.000000	24.000000
0.470000	50.470000	17.100000	666.000000	0.000000	142.000000	52.000000	-13.000000	19.000000
0.480000	50.380000	17.170000	705.000000	0.000000	142.000000	52.000000	-9.000000	7.000000
0.490000	50.380000	17.170000	714.000000	0.000000	142.000000	52.000000	0.000000	0.000000
0.500000	50.300000	17.050000	737.000000	0.000000	142.000000	52.000000	-8.000000	-12.000000
0.510000	50.300000	16.540000	751.000000	0.000000	142.000000	52.000000	0.000000	-51.000000
0.520000	50.190000	15.760000	787.000000	0.000000	142.000000	52.000000	-11.000000	-78.000000
0.530000	50.190000	15.020000	800.000000	0.000000	142.000000	52.000000	0.000000	-74.000000
0.540000	50.190000	14.310000	820.000000	0.000000	141.000000	52.000000	0.000000	-71.000000
0.550000	50.300000	13.620000	827.000000	0.000000	142.000000	53.000000	11.000000	-69.000000
0.560000	50.450000	12.960000	818.000000	0.000000	141.000000	53.000000	15.000000	-66.000000
0.570000	50.520000	12.290000	819.000000	0.000000	140.000000	54.000000	7.000000	-67.000000
0.580000	50.520000	11.730000	818.000000	0.000000	139.000000	55.000000	0.000000	-56.000000
0.590000	50.520000	11.250000	817.000000	0.000000	139.000000	56.000000	0.000000	-48.000000
0.600000	50.520000	10.910000	832.000000	0.000000	139.000000	56.000000	0.000000	-34.000000
0.610000	50.520000	10.760000	817.000000	0.000000	138.000000	57.000000	0.000000	-15.000000
0.620000	50.460000	10.760000	818.000000	0.000000	138.000000	57.000000	-6.000000	0.000000
0.630000	50.460000	10.760000	822.000000	0.000000	138.000000	57.000000	0.000000	0.000000
0.640000	50.460000	10.760000	824.000000	0.000000	136.000000	57.000000	0.000000	0.000000
0.650000	50.460000	10.820000	825.000000	0.000000	136.000000	57.000000	0.000000	6.000000
0.660000	50.460000	10.900000	818.000000	0.000000	136.000000	57.000000	0.000000	8.000000
0.670000	50.460000	11.130000	830.000000	0.000000	136.000000	57.000000	0.000000	23.000000
0.680000	50.460000	11.310000	817.000000	0.000000	136.000000	57.000000	0.000000	18.000000
0.690000	50.460000	11.490000	783.000000	0.000000	136.000000	57.000000	0.000000	18.000000
0.700000	50.460000	11.680000	760.000000	0.000000	136.000000	57.000000	0.000000	19.000000
0.710000	50.460000	11.750000	722.000000	0.000000	135.000000	58.000000	0.000000	7.000000
0.720000	50.540000	11.750000	694.000000	0.000000	135.000000	58.000000	8.000000	0.000000
0.730000	50.540000	11.750000	656.000000	0.000000	135.000000	58.000000	0.000000	0.000000
0.740000	50.590000	11.680000	636.000000	0.000000	135.000000	58.000000	5.000000	-7.000000
0.750000	50.590000	11.590000	619.000000	0.000000	135.000000	58.000000	0.000000	-9.000000
0.760000	50.590000	11.520000	616.000000	0.000000	135.000000	58.000000	0.000000	-7.000000
0.770000	50.590000	11.520000	605.000000	0.000000	135.000000	58.000000	0.000000	0.000000
0.780000	50.590000	11.520000	581.000000	0.000000	135.000000	58.000000	0.000000	0.000000
0.790000	50.590000	11.580000	512.000000	0.000000	135.000000	58.000000	0.000000	6.000000
0.800000	50.590000	11.580000	394.000000	0.000000	135.000000	58.000000	0.000000	0.000000
0.810000	50.700000	11.580000	235.000000	0.000000	135.000000	58.000000	11.000000	0.000000
0.820000	50.700000	11.580000	0.000000	1.000000	135.000000	58.000000	0.000000	0.000000
0.830000	50.950000	11.730000	0.000000	0.000000	136.000000	58.000000	25.000000	15.000000
0.840000	51.070000	11.920000	0.000000	0.000000	136.000000	58.000000	12.000000	19.000000
0.850000	51.070000	12.060000	0.000000	0.000000	136.000000	58.000000	0.000000	14.000000
0.860000	51.070000	12.220000	0.000000	0.000000	136.000000	58.000000	0.000000	16.000000
0.870000	51.070000	12.410000	0.000000	0.000000	138.000000	58.000000	0.000000	19.000000
0.880000	51.020000	12.610000	0.000000	0.000000	139.000000	57.000000	-5.000000	20.000000
0.890000	50.890000	12.610000	0.000000	0.000000	139.000000	57.000000	-13.000000	0.000000
0.900000	50.690000	12.610000	0.000000	0.000000	140.000000	56.000000	-20.000000	0.000000
0.910000	50.580000	12.450000	0.000000	0.000000	141.000000	56.000000	-11.000000	-16.000000
0.920000	50.520000	12.300000	0.000000	0.000000	140.000000	55.000000	-6.000000	-15.000000
0.930000	50.520000	12.160000	0.000000	0.000000	140.000000	55.000000	0.000000	-14.000000
0.940000	50.590000	12.060000	0.000000	0.000000	141.000000	55.000000	7.000000	-10.000000
0.950000	50.680000	11.970000	0.000000	0.000000	141.000000	55.000000	9.000000	-9.000000
0.960000	50.780000	11.970000	0.000000	0.000000	141.000000	55.000000	10.000000	0.000000
0.970000	50.870000	11.970000	0.000000	0.000000	141.000000	56.000000	9.000000	0.000000
0.980000	50.960000	11.970000	0.000000	0.000000	141.000000	56.000000	9.000000	0.000000
0.990000	51.070000	11.970000	0.000000	0.000000	141.000000	56.000000	11.000000	0.000000
1.000000	51.230000	11.970000	0.000000	0.000000	141.000000	56.000000	16.000000	0.000000
1.010000	51.490000	12.090000	0.000000	0.000000	141.000000	56.000000	26.000000	12.000000
1.020000	51.810000	12.230000	0.000000	0.000000	141.000000	56.000000	32.000000	14.000000
1.030000	52.180000	12.420000	0.000000	0.000000	141.000000	56.000000	37.000000	19.000000
1.040000	52.540000	12.600000	0.000000	0.000000	141.000000	56.000000	36.000000	18.000000
1.050000	52.820000	12.780000	0.000000	0.000000	141.000000	56.000000	28.000000	18.000000
1.060000	53.050000	12.870000	0.000000	0.000000	141.000000	56.000000	23.000000	9.000000
1.070000	53.200000	12.870000	0.000000	0.000000	143.000000	56.000000	15.000000	0.000000
1.080000	53.200000	12.870000	0.000000	0.000000	143.000000	56.000000	0.000000	0.000000
1.090000	53.140000	12.690000	0.000000	0.000000	142.000000	57.000000	-6.000000	-18.000000
1.100000	53.140000	12.690000	60.000000	1.000000	142.000000	57.000000	0.000000	0.000000
1.110000	52.880000	12.630000	139.000000	0.000000	142.000000	57.000000	-26.000000	-6.000000
1.120000	52.710000	12.700000	233.000000	0.000000	140.000000	58.000000	-17.000000	7.000000
1.130000	52.600000	12.820000	344.000000	0.000000	140.000000	58.000000	-11.000000	12.000000
1.140000	52.480000	12.940000	435.000000	0.000000	140.000000	58.000000	-12.000000	12.000000
1.150000	52.330000	13.040000	486.000000	0.000000	139.000000	58.000000	-15.000000	10.000000
1.160000	52.170000	13.120000	535.000000	0.000000	139.000000	58.000000	-16.000000	8.000000
1.170000	51.840000	13.120000	595.000000	0.000000	139.000000	58.000000	-33.000000	0.000000
1.180000	51.540000	13.120000	631.000000	0.000000	139.000000	58.000000	-30.000000	0.000000
1.190000	51.290000	13.040000	646.000000	0.000000	139.000000	58.000000	-25.000000	-8.000000
1.200000	51.090000	12.880000	667.000000	0.000000	139.000000	58.000000	-20.000000	-16.000000
1.210000	50.900000	12.500000	682.000000	0.000000	139.000000	58.000000	-19.000000	-38.000000
1.220000	50.760000	11.990000	702.000000	0.000000	138.000000	58.000000	-14.000000	-51.000000
1.230000	50.690000	11.510000	710.000000	0.000000	138.000000	58.000000	-7.000000	-48.000000
1.240000	50.800000	11.220000	730.000000	0.000000	138.000000	58.000000	11.000000	-29.000000
1.250000	51.030000	11.060000	721.000000	0.000000	136.000000	58.000000	23.000000	-16.000000
1.260000	51.220000	10.990000	745.000000	0.000000	136.000000	58.000000	19.000000	-7.000000
1.270000	51.590000	10.990000	746.000000	0.000000	136.000000	58.000000	37.000000	0.000000
1.280000	52.090000	11.140000	737.000000	0.000000	136.000000	58.000000	50.000000	15.000000
1.290000	52.620000	11.600000	724.000000	0.000000	136.000000	58.000000	53.000000	46.000000
1.300000	52.980000	12.090000	697.000000	0.000000	138.000000	59.000000	36.000000	49.000000
1.310000	53.230000	12.600000	693.000000	0.000000	136.000000	60.000000	25.000000	51.000000
1.320000	53.230000	12.960000	690.000000	0.000000	136.000000	60.000000	0.000000	36.000000
1.330000	53.110000	13.210000	697.000000	0.000000	136.000000	60.000000	-12.000000	25.000000
1.340000	52.890000	13.400000	700.000000	0.000000	136.000000	60.000000	-22.000000	19.000000
1.350000	52.510000	13.400000	690.000000	0.000000	136.000000	60.000000	-38.000000	0.000000
1.360000	52.100000	13.400000	696.000000	0.000000	136.000000	60.000000	-41.000000	0.000000
1.370000	51.670000	13.260000	696.000000	0.000000	136.000000	60.000000	-43.000000	-14.000000
1.380000	51.460000	13.190000	696.000000	0.000000	138.000000	59.000000	-21.000000	-7.000000
1.390000	51.460000	13.190000	644.000000	0.000000	138.000000	59.000000	0.000000	0.000000
1.400000	51.460000	13.190000	589.000000	0.000000	138.000000	59.000000	0.000000	0.000000
1.410000	51.650000	13.190000	430.000000	0.000000	136.000000	58.000000	19.000000	0.000000
1.420000	52.060000	13.300000	207.000000	0.000000	136.000000	58.000000	41.000000	11.000000
1.430000	52.060000	13.300000	0.000000	1.000000	136.000000	58.000000	0.000000	0.000000
1.440000	53.180000	13.630000	0.000000	0.000000	136.000000	58.000000	112.000000	33.000000
1.450000	53.630000	13.750000	0.000000	0.000000	136.000000	58.000000	45.000000	12.000000
1.460000	54.000000	13.750000	0.000000	0.000000	138.000000	59.000000	37.000000	0.000000
1.470000	54.000000	13.750000	65.000000	1.000000	138.000000	59.000000	0.000000	0.000000
1.480000	54.000000	13.750000	216.000000	0.000000	138.000000	59.000000	0.000000	0.000000
1.490000	54.000000	13.750000	359.000000	0.000000	141.000000	59.000000	0.000000	0.000000
1.500000	54.000000	13.750000	466.000000	0.000000	141.000000	59.000000	0.000000	0.000000
1.510000	53.810000	13.450000	566.000000	0.000000	141.000000	59.000000	-19.000000	-30.000000
1.520000	53.480000	13.380000	611.000000	0.000000	141.000000	59.000000	-33.000000	-7.000000
1.530000	53.200000	13.290000	643.000000	0.000000	139.000000	60.000000	-28.000000	-9.000000
1.540000	53.040000	13.190000	661.000000	0.000000	139.000000	60.000000	-16.000000	-10.000000
1.550000	52.970000	13.080000	664.000000	0.000000	139.000000	60.000000	-7.000000	-11.000000
1.560000	52.970000	13.000000	664.000000	0.000000	139.000000	60.000000	0.000000	-8.000000
1.570000	52.970000	12.810000	673.000000	0.000000	139.000000	60.000000	0.000000	-19.000000
1.580000	53.070000	12.550000	667.000000	0.000000	139.000000	60.000000	10.000000	-26.000000
1.590000	53.210000	12.450000	676.000000	0.000000	139.000000	60.000000	14.000000	-10.000000
1.600000	53.500000	12.340000	684.000000	0.000000	139.000000	60.000000	29.000000	-11.000000
1.610000	53.900000	12.290000	685.000000	0.000000	139.000000	60.000000	40.000000	-5.000000
1.620000	54.320000	12.290000	675.000000	0.000000	138.000000	60.000000	42.000000	0.000000
1.630000	54.670000	12.290000	670.000000	0.000000	138.000000	60.000000	35.000000	0.000000
1.640000	54.870000	12.290000	668.000000	0.000000	138.000000	60.000000	20.000000	0.000000
1.650000	55.000000	12.290000	655.000000	0.000000	139.000000	61.000000	13.000000	0.000000
1.660000	55.000000	12.180000	658.000000	0.000000	139.000000	61.000000	0.000000	-11.000000
1.670000	54.790000	12.050000	663.000000	0.000000	139.000000	61.000000	-21.000000	-13.000000
1.680000	54.450000	11.890000	667.000000	0.000000	139.000000	61.000000	-34.000000	-16.000000
1.690000	54.040000	11.740000	685.000000	0.000000	139.000000	61.000000	-41.000000	-15.000000
1.700000	53.640000	11.740000	691.000000	0.000000	139.000000	61.000000	-40.000000	0.000000
1.710000	53.290000	11.920000	700.000000	0.000000	139.000000	61.000000	-35.000000	18.000000
1.720000	52.980000	12.020000	728.000000	0.000000	139.000000	61.000000	-31.000000	10.000000
1.730000	52.870000	12.070000	733.000000	0.000000	139.000000	61.000000	-11.000000	5.000000
1.740000	52.870000	12.070000	722.000000	0.000000	138.000000	60.000000	0.000000	0.000000
1.750000	52.940000	12.120000	713.000000	0.000000	138.000000	60.000000	7.000000	5.000000
1.760000	53.000000	12.120000	711.000000	0.000000	136.000000	61.000000	6.000000	0.000000
1.770000	53.280000	12.010000	696.000000	0.000000	136.000000	61.000000	28.000000	-11.000000
1.780000	53.700000	11.920000	697.000000	0.000000	136.000000	61.000000	42.000000	-9.000000
1.790000	54.110000	11.860000	690.000000	0.000000	136.000000	61.000000	41.000000	-6.000000
1.800000	54.560000	11.960000	666.000000	0.000000	136.000000	61.000000	45.000000	10.000000
1.810000	54.960000	12.190000	668.000000	0.000000	136.000000	61.000000	40.000000	23.000000
1.820000	55.310000	12.500000	665.000000	0.000000	136.000000	61.000000	35.000000	31.000000
1.830000	55.490000	12.790000	665.000000	0.000000	136.000000	61.000000	18.000000	29.000000
1.840000	55.490000	13.080000	671.000000	0.000000	136.000000	61.000000	0.000000	29.000000
1.850000	55.430000	13.340000	679.000000	0.000000	138.000000	60.000000	-6.000000	26.000000
1.860000	55.310000	13.570000	696.000000	0.000000	139.000000	61.000000	-12.000000	23.000000
1.870000	55.130000	13.570000	699.000000	0.000000	139.000000	61.000000	-18.000000	0.000000
1.880000	54.900000	13.500000	707.000000	0.000000	139.000000	61.000000	-23.000000	-7.000000
1.890000	54.710000	13.190000	717.000000	0.000000	139.000000	61.000000	-19.000000	-31.000000
1.900000	54.530000	12.850000	727.000000	0.000000	139.000000	61.000000	-18.000000	-34.000000
1.910000	54.530000	12.480000	730.000000	0.000000	139.000000	61.000000	0.000000	-37.000000
1.920000	54.600000	12.140000	730.000000	0.000000	139.000000	61.000000	7.000000	-34.000000
1.930000	54.660000	11.890000	731.000000	0.000000	139.000000	61.000000	6.000000	-25.000000
1.940000	54.850000	11.690000	716.000000	0.000000	139.000000	61.000000	19.000000	-20.000000
1.950000	55.120000	11.630000	673.000000	0.000000	139.000000	61.000000	27.000000	-6.000000
1.960000	55.380000	11.700000	574.000000	0.000000	139.000000	61.000000	26.000000	7.000000
1.970000	55.700000	11.850000	282.000000	0.000000	139.000000	61.000000	32.000000	15.000000
1.980000	55.700000	11.850000	0.000000	1.000000	139.000000	61.000000	0.000000	0.000000
1.990000	56.280000	12.360000	0.000000	0.000000	139.000000	61.000000	58.000000	51.000000
2.000000	56.280000	12.710000	0.000000	0.000000	139.000000	61.000000	0.000000	35.000000
2.010000	56.210000	12.940000	0.000000	0.000000	141.000000	61.000000	-7.000000	23.000000
2.020000	56.210000	13.180000	0.000000	0.000000	141.000000	61.000000	0.000000	24.000000
2.030000	56.270000	13.440000	0.000000	0.000000	142.000000	61.000000	6.000000	26.000000
2.040000	56.420000	13.780000	0.000000	0.000000	145.000000	59.000000	15.000000	34.000000
2.050000	56.630000	14.000000	0.000000	0.000000	147.000000	59.000000	21.000000	22.000000
2.060000	56.860000	14.130000	0.000000	0.000000	149.000000	58.000000	23.000000	13.000000
2.070000	57.080000	14.270000	0.000000	0.000000	150.000000	57.000000	22.000000	14.000000
2.080000	57.320000	14.410000	0.000000	0.000000	152.000000	57.000000	24.000000	14.000000
2.090000	57.610000	14.590000	0.000000	0.000000	153.000000	56.000000	29.000000	18.000000
2.100000	57.850000	14.790000	0.000000	0.000000	153.000000	56.000000	24.000000	20.000000
2.110000	58.040000	14.900000	0.000000	0.000000	153.000000	56.000000	19.000000	11.000000
2.120000	58.170000	14.980000	0.000000	0.000000	154.000000	55.000000	13.000000	8.000000
2.130000	58.240000	14.980000	0.000000	0.000000	154.000000	55.000000	7.000000	0.000000
2.140000	58.240000	14.980000	0.000000	0.000000	154.000000	55.000000	0.000000	0.000000
2.150000	58.240000	14.860000	0.000000	0.000000	152.000000	56.000000	0.000000	-12.000000
2.160000	58.110000	14.760000	0.000000	0.000000	152.000000	56.000000	-13.000000	-10.000000
2.170000	57.920000	14.670000	0.000000	0.000000	152.000000	56.000000	-19.000000	-9.000000
2.180000	57.790000	14.620000	0.000000	0.000000	152.000000	56.000000	-13.000000	-5.000000
2.190000	57.660000	14.620000	0.000000	0.000000	152.000000	56.000000	-13.000000	0.000000
2.200000	57.530000	14.550000	0.000000	0.000000	152.000000	56.000000	-13.000000	-7.000000
2.210000	57.390000	14.550000	0.000000	0.000000	153.000000	56.000000	-14.000000	0.000000
2.220000	57.300000	14.470000	0.000000	0.000000	153.000000	56.000000	-9.000000	-8.000000
