t	x	y	pressure	penup	azimuth	inclination	v_x	v_y
0.000000	17.290000	88.840000	67.000000	1.000000	110.000000	55.000000	0.000000	0.000000
0.010000	17.080000	89.270000	161.000000	0.000000	110.000000	55.000000	-21.000000	43.000000
0.020000	16.940000	89.650000	275.000000	0.000000	111.000000	55.000000	-14.000000	38.000000
0.030000	16.800000	90.170000	339.000000	0.000000	111.000000	55.000000	-14.000000	52.000000
0.040000	16.700000	90.580000	412.000000	0.000000	112.000000	54.000000	-10.000000	41.000000
0.050000	16.550000	90.960000	494.000000	0.000000	113.000000	54.000000	-15.000000	38.000000
0.060000	16.360000	91.240000	566.000000	0.000000	113.000000	54.000000	-19.000000	28.000000
0.070000	16.290000	91.380000	586.000000	0.000000	114.000000	53.000000	-7.000000	14.000000
0.080000	16.240000	91.440000	616.000000	0.000000	114.000000	53.000000	-5.000000	6.000000
0.090000	16.240000	91.440000	613.000000	0.000000	115.000000	52.000000	0.000000	0.000000
0.100000	16.240000	91.350000	617.000000	0.000000	114.000000	51.000000	0.000000	-9.000000
0.110000	16.370000	91.030000	628.000000	0.000000	114.000000	51.000000	13.000000	-32.000000
0.120000	16.590000	90.530000	633.000000	0.000000	115.000000	51.000000	22.000000	-50.000000
0.130000	16.880000	89.760000	639.000000	0.000000	114.000000	51.000000	29.000000	-77.000000
0.140000	17.200000	88.900000	631.000000	0.000000	114.000000	51.000000	32.000000	-86.000000
0.150000	17.520000	87.990000	628.000000	0.000000	114.000000	51.000000	32.000000	-91.000000
0.160000	17.850000	87.560000	625.000000	0.000000	113.000000	52.000000	33.000000	-43.000000
0.170000	18.160000	87.310000	622.000000	0.000000	112.000000	52.000000	31.000000	-25.000000
0.180000	18.460000	87.190000	617.000000	0.000000	110.000000	52.000000	30.000000	-12.000000
0.190000	18.660000	87.190000	614.000000	0.000000	109.000000	52.000000	20.000000	0.000000
0.200000	18.790000	87.310000	622.000000	0.000000	108.000000	54.000000	13.000000	12.000000
0.210000	18.880000	87.580000	628.000000	0.000000	108.000000	54.000000	9.000000	27.000000
0.220000	18.960000	88.150000	628.000000	0.000000	108.000000	54.000000	8.000000	57.000000
0.230000	18.960000	88.900000	634.000000	0.000000	108.000000	54.000000	0.000000	75.000000
0.240000	18.870000	89.760000	636.000000	0.000000	108.000000	54.000000	-9.000000	86.000000
0.250000	18.800000	90.390000	638.000000	0.000000	110.000000	53.000000	-7.000000	63.000000
0.260000	18.690000	90.790000	638.000000	0.000000	111.000000	53.000000	-11.000000	40.000000
0.270000	18.550000	91.040000	644.000000	0.000000	111.000000	53.000000	-14.000000	25.000000
0.280000	18.460000	91.100000	644.000000	0.000000	112.000000	53.000000	-9.000000	6.000000
0.290000	18.380000	91.100000	644.000000	0.000000	114.000000	53.000000	-8.000000	0.000000
0.300000	18.330000	91.050000	640.000000	0.000000	115.000000	52.000000	-5.000000	-5.000000
0.310000	18.330000	90.940000	637.000000	0.000000	115.000000	52.000000	0.000000	-11.000000
0.320000	18.330000	90.550000	637.000000	0.000000	116.000000	52.000000	0.000000	-39.000000
0.330000	18.450000	89.990000	647.000000	0.000000	116.000000	52.000000	12.000000	-56.000000
0.340000	18.640000	89.220000	641.000000	0.000000	115.000000	52.000000	19.000000	-77.000000
0.350000	18.930000	88.440000	631.000000	0.000000	115.000000	52.000000	29.000000	-78.000000
0.360000	19.320000	87.630000	620.000000	0.000000	114.000000	53.000000	39.000000	-81.000000
0.370000	19.750000	86.930000	616.000000	0.000000	112.000000	53.000000	43.000000	-70.000000
0.380000	20.160000	86.320000	613.000000	0.000000	111.000000	53.000000	41.000000	-61.000000
0.390000	20.510000	85.910000	611.000000	0.000000	110.000000	53.000000	35.000000	-41.000000
0.400000	20.840000	85.640000	611.000000	0.000000	108.000000	54.000000	33.000000	-27.000000
0.410000	20.960000	85.470000	614.000000	0.000000	108.000000	54.000000	12.000000	-17.000000
0.420000	20.960000	85.410000	611.000000	0.000000	107.000000	54.000000	0.000000	-6.000000
0.430000	20.960000	85.480000	620.000000	0.000000	107.000000	54.000000	0.000000	7.000000
0.440000	20.790000	85.630000	617.000000	0.000000	107.000000	54.000000	-17.000000	15.000000
0.450000	20.490000	86.030000	620.000000	0.000000	107.000000	54.000000	-30.000000	40.000000
0.460000	20.090000	86.500000	620.000000	0.000000	107.000000	54.000000	-40.000000	47.000000
0.470000	19.680000	87.030000	647.000000	0.000000	107.000000	55.000000	-41.000000	53.000000
0.480000	19.400000	87.320000	644.000000	0.000000	107.000000	55.000000	-28.000000	29.000000
0.490000	19.210000	87.320000	647.000000	0.000000	107.000000	55.000000	-19.000000	0.000000
0.500000	19.020000	87.060000	647.000000	0.000000	107.000000	55.000000	-19.000000	-26.000000
0.510000	18.830000	86.360000	636.000000	0.000000	107.000000	54.000000	-19.000000	-70.000000
0.520000	18.760000	85.430000	642.000000	0.000000	107.000000	54.000000	-7.000000	-93.000000
0.530000	18.760000	84.360000	638.000000	0.000000	107.000000	54.000000	0.000000	-107.000000
0.540000	19.000000	83.550000	631.000000	0.000000	108.000000	54.000000	24.000000	-81.000000
0.550000	19.210000	82.970000	628.000000	0.000000	108.000000	54.000000	21.000000	-58.000000
0.560000	19.410000	82.540000	622.000000	0.000000	108.000000	54.000000	20.000000	-43.000000
0.570000	19.580000	82.390000	630.000000	0.000000	109.000000	52.000000	17.000000	-15.000000
0.580000	19.690000	82.390000	646.000000	0.000000	109.000000	52.000000	11.000000	0.000000
0.590000	19.750000	82.560000	670.000000	0.000000	109.000000	52.000000	6.000000	17.000000
0.600000	19.750000	82.900000	670.000000	0.000000	109.000000	52.000000	0.000000	34.000000
0.610000	19.750000	83.730000	678.000000	0.000000	109.000000	52.000000	0.000000	83.000000
0.620000	19.640000	84.890000	676.000000	0.000000	109.000000	52.000000	-11.000000	116.000000
0.630000	19.390000	86.500000	667.000000	0.000000	109.000000	52.000000	-25.000000	161.000000
0.640000	19.050000	88.240000	685.000000	0.000000	109.000000	52.000000	-34.000000	174.000000
0.650000	18.650000	90.080000	702.000000	0.000000	110.000000	53.000000	-40.000000	184.000000
0.660000	18.240000	91.520000	702.000000	0.000000	111.000000	53.000000	-41.000000	144.000000
0.670000	17.880000	92.420000	714.000000	0.000000	111.000000	53.000000	-36.000000	90.000000
0.680000	17.620000	92.960000	730.000000	0.000000	112.000000	53.000000	-26.000000	54.000000
0.690000	17.420000	93.260000	749.000000	0.000000	114.000000	53.000000	-20.000000	30.000000
0.700000	17.290000	93.360000	754.000000	0.000000	115.000000	52.000000	-13.000000	10.000000
0.710000	17.290000	93.360000	743.000000	0.000000	116.000000	52.000000	0.000000	0.000000
0.720000	17.400000	93.110000	736.000000	0.000000	117.000000	52.000000	11.000000	-25.000000
0.730000	17.600000	92.240000	737.000000	0.000000	119.000000	51.000000	20.000000	-87.000000
0.740000	18.060000	90.950000	745.000000	0.000000	119.000000	51.000000	46.000000	-129.000000
0.750000	18.680000	88.650000	737.000000	0.000000	117.000000	52.000000	62.000000	-230.000000
0.760000	19.470000	85.840000	731.000000	0.000000	116.000000	52.000000	79.000000	-281.000000
0.770000	20.260000	82.680000	717.000000	0.000000	116.000000	52.000000	79.000000	-316.000000
0.780000	21.000000	80.450000	722.000000	0.000000	115.000000	52.000000	74.000000	-223.000000
0.790000	21.440000	79.240000	730.000000	0.000000	114.000000	53.000000	44.000000	-121.000000
0.800000	21.720000	78.700000	725.000000	0.000000	112.000000	53.000000	28.000000	-54.000000
0.810000	21.870000	78.380000	693.000000	0.000000	111.000000	53.000000	15.000000	-32.000000
0.820000	21.980000	78.240000	597.000000	0.000000	111.000000	53.000000	11.000000	-14.000000
0.830000	22.060000	78.240000	423.000000	0.000000	110.000000	53.000000	8.000000	0.000000
0.840000	22.060000	78.240000	0.000000	1.000000	110.000000	54.000000	0.000000	0.000000
0.850000	22.120000	79.430000	0.000000	0.000000	110.000000	54.000000	6.000000	119.000000
0.860000	22.190000	80.730000	0.000000	0.000000	110.000000	54.000000	7.000000	130.000000
0.870000	22.120000	81.580000	0.000000	0.000000	110.000000	54.000000	-7.000000	85.000000
0.880000	21.960000	82.410000	0.000000	0.000000	110.000000	54.000000	-16.000000	83.000000
0.890000	21.960000	83.200000	0.000000	0.000000	110.000000	54.000000	0.000000	79.000000
0.900000	21.960000	83.980000	0.000000	0.000000	111.000000	53.000000	0.000000	78.000000
0.910000	21.960000	84.730000	0.000000	0.000000	111.000000	53.000000	0.000000	75.000000
0.920000	22.060000	85.470000	0.000000	0.000000	111.000000	53.000000	10.000000	74.000000
0.930000	22.180000	86.060000	0.000000	0.000000	112.000000	52.000000	12.000000	59.000000
0.940000	22.320000	86.550000	0.000000	0.000000	112.000000	52.000000	14.000000	49.000000
0.950000	22.370000	86.960000	0.000000	0.000000	112.000000	52.000000	5.000000	41.000000
0.960000	22.370000	87.120000	0.000000	0.000000	111.000000	53.000000	0.000000	16.000000
0.970000	22.260000	87.120000	0.000000	0.000000	111.000000	53.000000	-11.000000	0.000000
0.980000	22.260000	87.120000	137.000000	1.000000	111.000000	53.000000	0.000000	0.000000
0.990000	21.960000	87.050000	178.000000	0.000000	112.000000	54.000000	-30.000000	-7.000000
1.000000	21.670000	87.050000	203.000000	0.000000	112.000000	54.000000	-29.000000	0.000000
1.010000	21.500000	87.160000	287.000000	0.000000	112.000000	55.000000	-17.000000	11.000000
1.020000	21.320000	87.160000	405.000000	0.000000	112.000000	55.000000	-18.000000	0.000000
1.030000	21.140000	87.160000	465.000000	0.000000	112.000000	55.000000	-18.000000	0.000000
1.040000	20.960000	87.090000	504.000000	0.000000	112.000000	55.000000	-18.000000	-7.000000
1.050000	20.790000	87.040000	551.000000	0.000000	112.000000	55.000000	-17.000000	-5.000000
1.060000	20.640000	86.970000	591.000000	0.000000	112.000000	55.000000	-15.000000	-7.000000
1.070000	20.520000	86.750000	611.000000	0.000000	112.000000	55.000000	-12.000000	-22.000000
1.080000	20.400000	86.450000	620.000000	0.000000	112.000000	55.000000	-12.000000	-30.000000
1.090000	20.290000	85.960000	620.000000	0.000000	112.000000	55.000000	-11.000000	-49.000000
1.100000	20.230000	85.450000	622.000000	0.000000	112.000000	55.000000	-6.000000	-51.000000
1.110000	20.300000	85.060000	616.000000	0.000000	112.000000	55.000000	7.000000	-39.000000
1.120000	20.450000	84.760000	611.000000	0.000000	112.000000	55.000000	15.000000	-30.000000
1.130000	20.740000	84.570000	603.000000	0.000000	112.000000	54.000000	29.000000	-19.000000
1.140000	21.150000	84.670000	611.000000	0.000000	114.000000	55.000000	41.000000	10.000000
1.150000	21.640000	84.970000	608.000000	0.000000	114.000000	55.000000	49.000000	30.000000
1.160000	22.050000	85.540000	620.000000	0.000000	114.000000	55.000000	41.000000	57.000000
1.170000	22.340000	86.090000	614.000000	0.000000	114.000000	55.000000	29.000000	55.000000
1.180000	22.550000	86.590000	624.000000	0.000000	114.000000	55.000000	21.000000	50.000000
1.190000	22.670000	87.040000	665.000000	0.000000	114.000000	55.000000	12.000000	45.000000
1.200000	22.670000	87.330000	705.000000	0.000000	114.000000	55.000000	0.000000	29.000000
1.210000	22.540000	87.510000	733.000000	0.000000	115.000000	55.000000	-13.000000	18.000000
1.220000	22.370000	87.600000	768.000000	0.000000	115.000000	55.000000	-17.000000	9.000000
1.230000	22.110000	87.670000	784.000000	0.000000	115.000000	55.000000	-26.000000	7.000000
1.240000	21.800000	87.560000	787.000000	0.000000	115.000000	55.000000	-31.000000	-11.000000
1.250000	21.430000	87.350000	779.000000	0.000000	115.000000	55.000000	-37.000000	-21.000000
1.260000	21.020000	86.870000	765.000000	0.000000	115.000000	55.000000	-41.000000	-48.000000
1.270000	20.570000	86.420000	754.000000	0.000000	115.000000	55.000000	-45.000000	-45.000000
1.280000	20.270000	86.000000	725.000000	0.000000	115.000000	55.000000	-30.000000	-42.000000
1.290000	20.170000	85.620000	642.000000	0.000000	114.000000	55.000000	-10.000000	-38.000000
1.300000	20.170000	85.450000	527.000000	0.000000	114.000000	55.000000	0.000000	-17.000000
1.310000	20.320000	85.450000	371.000000	0.000000	114.000000	55.000000	15.000000	0.000000
1.320000	20.620000	85.450000	153.000000	0.000000	114.000000	55.000000	30.000000	0.000000
1.330000	20.620000	85.450000	0.000000	1.000000	114.000000	55.000000	0.000000	0.000000
1.340000	21.540000	85.860000	0.000000	0.000000	114.000000	55.000000	92.000000	41.000000
1.350000	22.060000	86.230000	0.000000	0.000000	114.000000	55.000000	52.000000	37.000000
1.360000	22.520000	86.670000	0.000000	0.000000	115.000000	55.000000	46.000000	44.000000
1.370000	22.880000	87.160000	0.000000	0.000000	115.000000	55.000000	36.000000	49.000000
1.380000	22.880000	87.160000	168.000000	1.000000	115.000000	55.000000	0.000000	0.000000
1.390000	23.330000	88.030000	325.000000	0.000000	115.000000	55.000000	45.000000	87.000000
1.400000	23.330000	88.240000	440.000000	0.000000	115.000000	55.000000	0.000000	21.000000
1.410000	23.200000	88.310000	496.000000	0.000000	116.000000	55.000000	-13.000000	7.000000
1.420000	23.040000	88.400000	603.000000	0.000000	116.000000	55.000000	-16.000000	9.000000
1.430000	22.830000	88.400000	617.000000	0.000000	116.000000	55.000000	-21.000000	0.000000
1.440000	22.580000	88.340000	644.000000	0.000000	117.000000	55.000000	-25.000000	-6.000000
1.450000	22.310000	88.170000	644.000000	0.000000	117.000000	55.000000	-27.000000	-17.000000
1.460000	22.040000	87.850000	636.000000	0.000000	117.000000	55.000000	-27.000000	-32.000000
1.470000	21.780000	87.430000	639.000000	0.000000	117.000000	55.000000	-26.000000	-42.000000
1.480000	21.690000	87.140000	631.000000	0.000000	117.000000	55.000000	-9.000000	-29.000000
1.490000	21.690000	86.840000	611.000000	0.000000	117.000000	55.000000	0.000000	-30.000000
1.500000	21.810000	86.630000	586.000000	0.000000	116.000000	55.000000	12.000000	-21.000000
1.510000	22.080000	86.480000	578.000000	0.000000	116.000000	55.000000	27.000000	-15.000000
1.520000	22.470000	86.380000	561.000000	0.000000	116.000000	55.000000	39.000000	-10.000000
1.530000	23.020000	86.480000	557.000000	0.000000	115.000000	55.000000	55.000000	10.000000
1.540000	23.570000	86.720000	543.000000	0.000000	115.000000	55.000000	55.000000	24.000000
1.550000	24.120000	87.140000	539.000000	0.000000	115.000000	55.000000	55.000000	42.000000
1.560000	24.540000	87.540000	546.000000	0.000000	115.000000	55.000000	42.000000	40.000000
1.570000	24.880000	87.940000	544.000000	0.000000	115.000000	55.000000	34.000000	40.000000
1.580000	24.990000	88.110000	546.000000	0.000000	116.000000	55.000000	11.000000	17.000000
1.590000	24.940000	88.250000	569.000000	0.000000	116.000000	55.000000	-5.000000	14.000000
1.600000	24.770000	88.320000	606.000000	0.000000	117.000000	55.000000	-17.000000	7.000000
1.610000	24.530000	88.320000	613.000000	0.000000	117.000000	55.000000	-24.000000	0.000000
1.620000	24.210000	88.220000	636.000000	0.000000	119.000000	54.000000	-32.000000	-10.000000
1.630000	23.830000	88.040000	650.000000	0.000000	119.000000	54.000000	-38.000000	-18.000000
1.640000	23.520000	87.790000	646.000000	0.000000	119.000000	54.000000	-31.000000	-25.000000
1.650000	23.230000	87.490000	619.000000	0.000000	120.000000	54.000000	-29.000000	-30.000000
1.660000	23.230000	87.300000	580.000000	0.000000	121.000000	55.000000	0.000000	-19.000000
1.670000	23.420000	87.190000	539.000000	0.000000	121.000000	55.000000	19.000000	-11.000000
1.680000	23.760000	87.120000	527.000000	0.000000	121.000000	55.000000	34.000000	-7.000000
1.690000	24.300000	87.260000	522.000000	0.000000	121.000000	55.000000	54.000000	14.000000
1.700000	24.960000	87.550000	522.000000	0.000000	121.000000	55.000000	66.000000	29.000000
1.710000	25.590000	87.750000	520.000000	0.000000	121.000000	55.000000	63.000000	20.000000
1.720000	26.030000	87.810000	516.000000	0.000000	121.000000	55.000000	44.000000	6.000000
1.730000	26.350000	87.810000	544.000000	0.000000	121.000000	55.000000	32.000000	0.000000
1.740000	26.470000	87.600000	565.000000	0.000000	121.000000	55.000000	12.000000	-21.000000
1.750000	26.370000	87.390000	583.000000	0.000000	121.000000	55.000000	-10.000000	-21.000000
1.760000	26.130000	86.930000	586.000000	0.000000	121.000000	55.000000	-24.000000	-46.000000
1.770000	25.570000	86.320000	594.000000	0.000000	121.000000	55.000000	-56.000000	-61.000000
1.780000	24.710000	85.450000	605.000000	0.000000	121.000000	55.000000	-86.000000	-87.000000
1.790000	23.660000	84.300000	624.000000	0.000000	121.000000	55.000000	-105.000000	-115.000000
1.800000	22.230000	82.970000	664.000000	0.000000	121.000000	55.000000	-143.000000	-133.000000
1.810000	20.560000	81.400000	697.000000	0.000000	123.000000	55.000000	-167.000000	-157.000000
1.820000	18.720000	79.840000	717.000000	0.000000	123.000000	55.000000	-184.000000	-156.000000
1.830000	17.330000	78.330000	727.000000	0.000000	123.000000	55.000000	-139.000000	-151.000000
1.840000	16.360000	77.420000	721.000000	0.000000	122.000000	54.000000	-97.000000	-91.000000
1.850000	15.660000	76.870000	727.000000	0.000000	123.000000	53.000000	-70.000000	-55.000000
1.860000	15.480000	76.630000	707.000000	0.000000	123.000000	53.000000	-18.000000	-24.000000
1.870000	15.720000	76.890000	721.000000	0.000000	123.000000	53.000000	24.000000	26.000000
1.880000	16.250000	77.490000	724.000000	0.000000	123.000000	53.000000	53.000000	60.000000
1.890000	17.440000	78.800000	743.000000	0.000000	123.000000	53.000000	119.000000	131.000000
1.900000	19.220000	80.720000	761.000000	0.000000	123.000000	53.000000	178.000000	192.000000
1.910000	21.390000	83.050000	768.000000	0.000000	123.000000	53.000000	217.000000	233.000000
1.920000	23.530000	85.060000	785.000000	0.000000	123.000000	53.000000	214.000000	201.000000
1.930000	25.600000	86.910000	785.000000	0.000000	124.000000	53.000000	207.000000	185.000000
1.940000	27.620000	88.650000	797.000000	0.000000	124.000000	53.000000	202.000000	174.000000
1.950000	29.510000	90.360000	788.000000	0.000000	125.000000	54.000000	189.000000	171.000000
1.960000	31.420000	91.740000	759.000000	0.000000	125.000000	54.000000	191.000000	138.000000
1.970000	32.890000	92.890000	757.000000	0.000000	128.000000	54.000000	147.000000	115.000000
1.980000	34.050000	93.730000	691.000000	0.000000	129.000000	53.000000	116.000000	84.000000
1.990000	34.750000	94.160000	586.000000	0.000000	131.000000	54.000000	70.000000	43.000000
2.000000	34.930000	94.320000	420.000000	0.000000	133.000000	53.000000	18.000000	16.000000
2.010000	34.750000	94.170000	51.000000	0.000000	135.000000	53.000000	-18.000000	-15.000000
2.020000	34.750000	94.170000	0.000000	1.000000	136.000000	52.000000	0.000000	0.000000
2.030000	33.230000	93.000000	0.000000	0.000000	137.000000	52.000000	-152.000000	-117.000000
2.040000	32.020000	92.230000	0.000000	0.000000	137.000000	52.000000	-121.000000	-77.000000
2.050000	30.460000	91.440000	0.000000	0.000000	137.000000	52.000000	-156.000000	-79.000000
2.060000	28.900000	90.570000	0.000000	0.000000	135.000000	52.000000	-156.000000	-87.000000
2.070000	27.350000	89.710000	0.000000	0.000000	134.000000	52.000000	-155.000000	-86.000000
2.080000	26.070000	88.870000	0.000000	0.000000	133.000000	52.000000	-128.000000	-84.000000
2.090000	25.250000	88.340000	0.000000	0.000000	131.000000	52.000000	-82.000000	-53.000000
2.100000	24.730000	88.020000	0.000000	0.000000	129.000000	52.000000	-52.000000	-32.000000
2.110000	24.570000	87.840000	0.000000	0.000000	128.000000	53.000000	-16.000000	-18.000000
2.120000	24.430000	87.480000	0.000000	0.000000	128.000000	54.000000	-14.000000	-36.000000
2.130000	24.330000	87.110000	0.000000	0.000000	126.000000	54.000000	-10.000000	-37.000000
2.140000	24.260000	86.960000	0.000000	0.000000	126.000000	54.000000	-7.000000	-15.000000
2.150000	24.260000	86.960000	0.000000	0.000000	125.000000	55.000000	0.000000	0.000000
2.160000	24.260000	87.150000	0.000000	0.000000	124.000000	55.000000	0.000000	19.000000
2.170000	24.260000	87.150000	99.000000	1.000000	124.000000	55.000000	0.000000	0.000000
2.180000	24.260000	88.220000	285.000000	0.000000	122.000000	56.000000	0.000000	107.000000
2.190000	24.090000	88.760000	415.000000	0.000000	122.000000	56.000000	-17.000000	54.000000
