t	x	y	pressure	penup	azimuth	inclination	v_x	v_y
0.000000	60.720000	78.430000	376.000000	1.000000	121.000000	51.000000	0.000000	0.000000
0.010000	60.290000	78.040000	391.000000	0.000000	121.000000	51.000000	-43.000000	-39.000000
0.020000	60.190000	78.040000	480.000000	0.000000	121.000000	51.000000	-10.000000	0.000000
0.030000	60.140000	78.110000	561.000000	0.000000	121.000000	51.000000	-5.000000	7.000000
0.040000	60.140000	78.330000	611.000000	0.000000	120.000000	50.000000	0.000000	22.000000
0.050000	60.390000	78.670000	650.000000	0.000000	120.000000	50.000000	25.000000	34.000000
0.060000	60.750000	79.780000	690.000000	0.000000	120.000000	50.000000	36.000000	111.000000
0.070000	61.500000	81.250000	722.000000	0.000000	120.000000	50.000000	75.000000	147.000000
0.080000	62.280000	82.960000	759.000000	0.000000	119.000000	49.000000	78.000000	171.000000
0.090000	62.720000	84.720000	817.000000	0.000000	120.000000	50.000000	44.000000	176.000000
0.100000	62.910000	85.860000	896.000000	0.000000	122.000000	50.000000	19.000000	114.000000
0.110000	62.780000	86.580000	941.000000	0.000000	122.000000	50.000000	-13.000000	72.000000
0.120000	62.530000	86.830000	938.000000	0.000000	124.000000	50.000000	-25.000000	25.000000
0.130000	62.190000	86.830000	944.000000	0.000000	125.000000	50.000000	-34.000000	0.000000
0.140000	62.020000	86.760000	948.000000	0.000000	126.000000	49.000000	-17.000000	-7.000000
0.150000	61.820000	86.340000	924.000000	0.000000	126.000000	49.000000	-20.000000	-42.000000
0.160000	61.590000	85.410000	897.000000	0.000000	127.000000	49.000000	-23.000000	-93.000000
0.170000	61.470000	84.140000	854.000000	0.000000	127.000000	49.000000	-12.000000	-127.000000
0.180000	61.570000	82.820000	818.000000	0.000000	128.000000	48.000000	10.000000	-132.000000
0.190000	61.810000	81.970000	788.000000	0.000000	128.000000	48.000000	24.000000	-85.000000
0.200000	62.420000	81.430000	777.000000	0.000000	128.000000	48.000000	61.000000	-54.000000
0.210000	63.050000	81.430000	793.000000	0.000000	126.000000	48.000000	63.000000	0.000000
0.220000	63.670000	81.790000	840.000000	0.000000	126.000000	48.000000	62.000000	36.000000
0.230000	64.260000	82.360000	857.000000	0.000000	125.000000	48.000000	59.000000	57.000000
0.240000	64.840000	83.350000	881.000000	0.000000	125.000000	48.000000	58.000000	99.000000
0.250000	65.270000	84.510000	900.000000	0.000000	125.000000	48.000000	43.000000	116.000000
0.260000	65.490000	85.780000	897.000000	0.000000	126.000000	49.000000	22.000000	127.000000
0.270000	65.580000	86.890000	905.000000	0.000000	126.000000	49.000000	9.000000	111.000000
0.280000	65.360000	87.440000	896.000000	0.000000	127.000000	49.000000	-22.000000	55.000000
0.290000	65.140000	87.620000	905.000000	0.000000	128.000000	49.000000	-22.000000	18.000000
0.300000	64.920000	87.620000	897.000000	0.000000	129.000000	49.000000	-22.000000	0.000000
0.310000	64.680000	87.180000	893.000000	0.000000	129.000000	49.000000	-24.000000	-44.000000
0.320000	64.430000	86.520000	890.000000	0.000000	131.000000	48.000000	-25.000000	-66.000000
0.330000	64.430000	85.710000	899.000000	0.000000	131.000000	48.000000	0.000000	-81.000000
0.340000	64.620000	84.810000	906.000000	0.000000	131.000000	48.000000	19.000000	-90.000000
0.350000	64.920000	83.850000	908.000000	0.000000	131.000000	48.000000	30.000000	-96.000000
0.360000	65.300000	83.160000	899.000000	0.000000	130.000000	48.000000	38.000000	-69.000000
0.370000	65.810000	82.860000	887.000000	0.000000	130.000000	48.000000	51.000000	-30.000000
0.380000	66.400000	82.860000	909.000000	0.000000	128.000000	48.000000	59.000000	0.000000
0.390000	66.980000	83.130000	915.000000	0.000000	128.000000	48.000000	58.000000	27.000000
0.400000	67.430000	83.950000	926.000000	0.000000	128.000000	48.000000	45.000000	82.000000
0.410000	67.800000	85.130000	917.000000	0.000000	129.000000	49.000000	37.000000	118.000000
0.420000	67.930000	86.320000	912.000000	0.000000	129.000000	49.000000	13.000000	119.000000
0.430000	67.660000	87.440000	894.000000	0.000000	129.000000	49.000000	-27.000000	112.000000
0.440000	67.110000	88.470000	897.000000	0.000000	130.000000	50.000000	-55.000000	103.000000
0.450000	66.350000	89.160000	890.000000	0.000000	130.000000	50.000000	-76.000000	69.000000
0.460000	65.520000	89.620000	873.000000	0.000000	130.000000	50.000000	-83.000000	46.000000
0.470000	64.640000	89.430000	884.000000	0.000000	130.000000	50.000000	-88.000000	-19.000000
0.480000	63.710000	88.560000	906.000000	0.000000	132.000000	49.000000	-93.000000	-87.000000
0.490000	62.840000	87.230000	906.000000	0.000000	132.000000	49.000000	-87.000000	-133.000000
0.500000	62.250000	85.880000	903.000000	0.000000	131.000000	48.000000	-59.000000	-135.000000
0.510000	61.820000	84.460000	899.000000	0.000000	132.000000	48.000000	-43.000000	-142.000000
0.520000	61.890000	82.990000	900.000000	0.000000	131.000000	48.000000	7.000000	-147.000000
0.530000	62.490000	82.020000	879.000000	0.000000	130.000000	48.000000	60.000000	-97.000000
0.540000	63.450000	81.330000	864.000000	0.000000	130.000000	48.000000	96.000000	-69.000000
0.550000	64.400000	80.820000	845.000000	0.000000	130.000000	48.000000	95.000000	-51.000000
0.560000	65.220000	80.580000	824.000000	0.000000	130.000000	48.000000	82.000000	-24.000000
0.570000	65.960000	80.580000	830.000000	0.000000	128.000000	48.000000	74.000000	0.000000
0.580000	66.340000	80.680000	821.000000	0.000000	128.000000	48.000000	38.000000	10.000000
0.590000	66.340000	80.870000	824.000000	0.000000	128.000000	49.000000	0.000000	19.000000
0.600000	66.150000	81.210000	840.000000	0.000000	128.000000	49.000000	-19.000000	34.000000
0.610000	65.720000	81.660000	863.000000	0.000000	128.000000	49.000000	-43.000000	45.000000
0.620000	65.020000	81.860000	896.000000	0.000000	128.000000	49.000000	-70.000000	20.000000
0.630000	64.140000	81.250000	927.000000	0.000000	128.000000	49.000000	-88.000000	-61.000000
0.640000	63.210000	80.110000	935.000000	0.000000	128.000000	49.000000	-93.000000	-114.000000
0.650000	62.280000	78.420000	940.000000	0.000000	128.000000	49.000000	-93.000000	-169.000000
0.660000	62.010000	77.180000	933.000000	0.000000	128.000000	49.000000	-27.000000	-124.000000
0.670000	62.180000	76.240000	923.000000	0.000000	127.000000	50.000000	17.000000	-94.000000
0.680000	62.960000	75.540000	905.000000	0.000000	127.000000	50.000000	78.000000	-70.000000
0.690000	64.130000	75.100000	909.000000	0.000000	126.000000	49.000000	117.000000	-44.000000
0.700000	65.560000	74.830000	917.000000	0.000000	125.000000	50.000000	143.000000	-27.000000
0.710000	66.750000	74.890000	932.000000	0.000000	125.000000	50.000000	119.000000	6.000000
0.720000	67.260000	75.010000	992.000000	0.000000	125.000000	50.000000	51.000000	12.000000
0.730000	67.320000	75.170000	1023.000000	0.000000	125.000000	51.000000	6.000000	16.000000
0.740000	67.260000	75.380000	1023.000000	0.000000	125.000000	51.000000	-6.000000	21.000000
0.750000	67.070000	75.800000	1023.000000	0.000000	125.000000	51.000000	-19.000000	42.000000
0.760000	66.790000	76.350000	1023.000000	0.000000	126.000000	51.000000	-28.000000	55.000000
0.770000	66.620000	76.530000	1023.000000	0.000000	127.000000	51.000000	-17.000000	18.000000
0.780000	66.510000	76.670000	1005.000000	0.000000	128.000000	52.000000	-11.000000	14.000000
0.790000	66.510000	76.670000	970.000000	0.000000	128.000000	52.000000	0.000000	0.000000
0.800000	66.510000	76.580000	942.000000	0.000000	128.000000	52.000000	0.000000	-9.000000
0.810000	66.510000	76.510000	926.000000	0.000000	129.000000	51.000000	0.000000	-7.000000
0.820000	66.820000	76.350000	921.000000	0.000000	130.000000	52.000000	31.000000	-16.000000
0.830000	67.610000	76.120000	926.000000	0.000000	130.000000	52.000000	79.000000	-23.000000
0.840000	68.750000	76.120000	948.000000	0.000000	130.000000	52.000000	114.000000	0.000000
0.850000	69.710000	76.220000	955.000000	0.000000	129.000000	52.000000	96.000000	10.000000
0.860000	70.150000	76.350000	1023.000000	0.000000	128.000000	52.000000	44.000000	13.000000
0.870000	70.250000	76.440000	1023.000000	0.000000	128.000000	52.000000	10.000000	9.000000
0.880000	69.960000	76.590000	1023.000000	0.000000	127.000000	52.000000	-29.000000	15.000000
0.890000	69.210000	76.810000	1023.000000	0.000000	127.000000	52.000000	-75.000000	22.000000
0.900000	68.150000	77.050000	1023.000000	0.000000	127.000000	52.000000	-106.000000	24.000000
0.910000	66.770000	77.160000	991.000000	0.000000	127.000000	52.000000	-138.000000	11.000000
0.920000	65.310000	77.340000	995.000000	0.000000	127.000000	52.000000	-146.000000	18.000000
0.930000	63.790000	77.580000	959.000000	0.000000	127.000000	52.000000	-152.000000	24.000000
0.940000	62.060000	77.490000	935.000000	0.000000	127.000000	52.000000	-173.000000	-9.000000
0.950000	60.270000	77.080000	870.000000	0.000000	128.000000	52.000000	-179.000000	-41.000000
0.960000	58.430000	76.450000	852.000000	0.000000	128.000000	52.000000	-184.000000	-63.000000
0.970000	56.590000	75.670000	858.000000	0.000000	127.000000	51.000000	-184.000000	-78.000000
0.980000	55.000000	74.860000	864.000000	0.000000	127.000000	51.000000	-159.000000	-81.000000
0.990000	53.910000	74.240000	869.000000	0.000000	128.000000	50.000000	-109.000000	-62.000000
1.000000	53.060000	73.750000	858.000000	0.000000	127.000000	50.000000	-85.000000	-49.000000
1.010000	52.240000	73.430000	861.000000	0.000000	127.000000	50.000000	-82.000000	-32.000000
1.020000	51.810000	73.270000	864.000000	0.000000	127.000000	50.000000	-43.000000	-16.000000
1.030000	51.630000	73.270000	869.000000	0.000000	126.000000	49.000000	-18.000000	0.000000
1.040000	51.830000	73.270000	861.000000	0.000000	127.000000	49.000000	20.000000	0.000000
1.050000	52.820000	73.680000	899.000000	0.000000	127.000000	49.000000	99.000000	41.000000
1.060000	54.340000	74.360000	947.000000	0.000000	127.000000	49.000000	152.000000	68.000000
1.070000	56.970000	75.710000	996.000000	0.000000	128.000000	48.000000	263.000000	135.000000
1.080000	60.530000	77.200000	1023.000000	0.000000	129.000000	49.000000	356.000000	149.000000
1.090000	64.710000	78.780000	1023.000000	0.000000	129.000000	49.000000	418.000000	158.000000
1.100000	69.020000	80.180000	1023.000000	0.000000	129.000000	49.000000	431.000000	140.000000
1.110000	72.010000	81.220000	1023.000000	0.000000	130.000000	50.000000	299.000000	104.000000
1.120000	74.110000	82.030000	1023.000000	0.000000	132.000000	50.000000	210.000000	81.000000
1.130000	75.050000	82.550000	1023.000000	0.000000	133.000000	51.000000	94.000000	52.000000
1.140000	75.290000	82.820000	982.000000	0.000000	134.000000	51.000000	24.000000	27.000000
1.150000	75.050000	82.930000	899.000000	0.000000	135.000000	51.000000	-24.000000	11.000000
1.160000	74.680000	83.140000	671.000000	0.000000	136.000000	51.000000	-37.000000	21.000000
1.170000	73.820000	82.970000	30.000000	0.000000	137.000000	52.000000	-86.000000	-17.000000
1.180000	73.820000	82.970000	0.000000	1.000000	137.000000	52.000000	0.000000	0.000000
1.190000	71.230000	82.000000	0.000000	0.000000	139.000000	52.000000	-259.000000	-97.000000
1.200000	69.880000	81.480000	0.000000	0.000000	137.000000	53.000000	-135.000000	-52.000000
1.210000	68.580000	81.110000	0.000000	0.000000	137.000000	53.000000	-130.000000	-37.000000
1.220000	67.570000	80.830000	0.000000	0.000000	137.000000	53.000000	-101.000000	-28.000000
1.230000	66.620000	80.430000	0.000000	0.000000	135.000000	53.000000	-95.000000	-40.000000
1.240000	65.720000	80.010000	0.000000	0.000000	134.000000	54.000000	-90.000000	-42.000000
1.250000	65.060000	79.560000	0.000000	0.000000	133.000000	53.000000	-66.000000	-45.000000
1.260000	64.450000	79.100000	0.000000	0.000000	130.000000	53.000000	-61.000000	-46.000000
1.270000	63.960000	78.870000	0.000000	0.000000	129.000000	52.000000	-49.000000	-23.000000
1.280000	63.700000	78.810000	0.000000	0.000000	128.000000	52.000000	-26.000000	-6.000000
1.290000	63.580000	79.070000	0.000000	0.000000	128.000000	52.000000	-12.000000	26.000000
1.300000	63.670000	79.490000	0.000000	0.000000	127.000000	51.000000	9.000000	42.000000
1.310000	63.670000	79.490000	78.000000	1.000000	126.000000	50.000000	0.000000	0.000000
1.320000	63.850000	80.530000	148.000000	0.000000	126.000000	50.000000	18.000000	104.000000
1.330000	63.710000	80.810000	330.000000	0.000000	125.000000	50.000000	-14.000000	28.000000
1.340000	63.440000	80.950000	445.000000	0.000000	126.000000	49.000000	-27.000000	14.000000
1.350000	62.990000	80.710000	527.000000	0.000000	126.000000	49.000000	-45.000000	-24.000000
1.360000	62.440000	80.100000	591.000000	0.000000	126.000000	49.000000	-55.000000	-61.000000
1.370000	61.820000	79.250000	627.000000	0.000000	126.000000	49.000000	-62.000000	-85.000000
1.380000	61.560000	78.620000	653.000000	0.000000	126.000000	49.000000	-26.000000	-63.000000
1.390000	61.560000	78.100000	666.000000	0.000000	126.000000	49.000000	0.000000	-52.000000
1.400000	61.630000	77.650000	658.000000	0.000000	126.000000	49.000000	7.000000	-45.000000
1.410000	61.780000	77.440000	658.000000	0.000000	126.000000	49.000000	15.000000	-21.000000
1.420000	62.030000	77.440000	661.000000	0.000000	125.000000	48.000000	25.000000	0.000000
1.430000	62.350000	77.620000	670.000000	0.000000	125.000000	48.000000	32.000000	18.000000
1.440000	62.650000	78.050000	685.000000	0.000000	125.000000	48.000000	30.000000	43.000000
1.450000	62.840000	78.660000	682.000000	0.000000	125.000000	48.000000	19.000000	61.000000
1.460000	62.950000	79.390000	690.000000	0.000000	125.000000	48.000000	11.000000	73.000000
1.470000	62.880000	80.060000	699.000000	0.000000	125.000000	48.000000	-7.000000	67.000000
1.480000	62.750000	80.470000	714.000000	0.000000	125.000000	48.000000	-13.000000	41.000000
1.490000	62.580000	80.700000	697.000000	0.000000	125.000000	48.000000	-17.000000	23.000000
1.500000	62.630000	80.630000	690.000000	0.000000	125.000000	48.000000	5.000000	-7.000000
1.510000	62.730000	80.300000	685.000000	0.000000	125.000000	48.000000	10.000000	-33.000000
1.520000	62.940000	79.810000	681.000000	0.000000	125.000000	48.000000	21.000000	-49.000000
1.530000	63.200000	79.180000	687.000000	0.000000	125.000000	48.000000	26.000000	-63.000000
1.540000	63.460000	78.700000	690.000000	0.000000	125.000000	48.000000	26.000000	-48.000000
1.550000	63.720000	78.310000	687.000000	0.000000	125.000000	48.000000	26.000000	-39.000000
1.560000	63.980000	78.160000	697.000000	0.000000	125.000000	48.000000	26.000000	-15.000000
1.570000	64.390000	78.380000	694.000000	0.000000	125.000000	48.000000	41.000000	22.000000
1.580000	64.890000	78.840000	700.000000	0.000000	125.000000	48.000000	50.000000	46.000000
1.590000	65.440000	79.810000	702.000000	0.000000	126.000000	49.000000	55.000000	97.000000
1.600000	65.960000	80.830000	694.000000	0.000000	126.000000	49.000000	52.000000	102.000000
1.610000	66.140000	81.880000	690.000000	0.000000	126.000000	49.000000	18.000000	105.000000
1.620000	66.140000	82.440000	708.000000	0.000000	126.000000	49.000000	0.000000	56.000000
1.630000	66.030000	82.590000	717.000000	0.000000	126.000000	49.000000	-11.000000	15.000000
1.640000	65.940000	82.480000	727.000000	0.000000	126.000000	49.000000	-9.000000	-11.000000
1.650000	65.830000	82.220000	743.000000	0.000000	127.000000	49.000000	-11.000000	-26.000000
1.660000	65.720000	81.900000	763.000000	0.000000	127.000000	49.000000	-11.000000	-32.000000
1.670000	65.830000	81.410000	763.000000	0.000000	127.000000	49.000000	11.000000	-49.000000
1.680000	66.090000	80.830000	752.000000	0.000000	127.000000	49.000000	26.000000	-58.000000
1.690000	66.300000	80.500000	730.000000	0.000000	127.000000	49.000000	21.000000	-33.000000
1.700000	66.600000	80.410000	725.000000	0.000000	127.000000	49.000000	30.000000	-9.000000
1.710000	66.970000	80.480000	721.000000	0.000000	128.000000	49.000000	37.000000	7.000000
1.720000	67.380000	80.890000	727.000000	0.000000	128.000000	49.000000	41.000000	41.000000
1.730000	67.820000	81.660000	739.000000	0.000000	128.000000	49.000000	44.000000	77.000000
1.740000	68.290000	82.680000	734.000000	0.000000	128.000000	49.000000	47.000000	102.000000
1.750000	68.520000	83.950000	743.000000	0.000000	127.000000	50.000000	23.000000	127.000000
1.760000	68.600000	85.380000	737.000000	0.000000	127.000000	50.000000	8.000000	143.000000
1.770000	68.500000	86.920000	748.000000	0.000000	127.000000	50.000000	-10.000000	154.000000
1.780000	68.320000	88.070000	753.000000	0.000000	126.000000	49.000000	-18.000000	115.000000
1.790000	68.080000	88.580000	770.000000	0.000000	126.000000	49.000000	-24.000000	51.000000
1.800000	68.080000	88.670000	770.000000	0.000000	126.000000	49.000000	0.000000	9.000000
1.810000	68.080000	88.580000	767.000000	0.000000	125.000000	48.000000	0.000000	-9.000000
1.820000	68.130000	88.060000	770.000000	0.000000	126.000000	48.000000	5.000000	-52.000000
1.830000	68.130000	87.260000	784.000000	0.000000	126.000000	48.000000	0.000000	-80.000000
1.840000	68.060000	86.130000	788.000000	0.000000	126.000000	47.000000	-7.000000	-113.000000
1.850000	68.060000	84.850000	806.000000	0.000000	127.000000	48.000000	0.000000	-128.000000
1.860000	68.010000	83.470000	815.000000	0.000000	128.000000	47.000000	-5.000000	-138.000000
1.870000	68.160000	82.450000	812.000000	0.000000	128.000000	47.000000	15.000000	-102.000000
1.880000	68.430000	81.860000	790.000000	0.000000	128.000000	47.000000	27.000000	-59.000000
1.890000	68.850000	81.560000	779.000000	0.000000	130.000000	48.000000	42.000000	-30.000000
1.900000	69.270000	81.480000	760.000000	0.000000	128.000000	48.000000	42.000000	-8.000000
1.910000	69.630000	81.640000	756.000000	0.000000	128.000000	48.000000	36.000000	16.000000
1.920000	69.950000	81.950000	746.000000	0.000000	128.000000	48.000000	32.000000	31.000000
1.930000	70.160000	82.570000	694.000000	0.000000	128.000000	48.000000	21.000000	62.000000
1.940000	70.270000	83.260000	670.000000	0.000000	127.000000	49.000000	11.000000	69.000000
1.950000	70.270000	84.010000	664.000000	0.000000	127.000000	49.000000	0.000000	75.000000
1.960000	70.210000	84.520000	755.000000	0.000000	127.000000	49.000000	-6.000000	51.000000
1.970000	70.030000	84.620000	814.000000	0.000000	126.000000	49.000000	-18.000000	10.000000
1.980000	69.790000	84.450000	882.000000	0.000000	126.000000	49.000000	-24.000000	-17.000000
1.990000	69.510000	83.820000	945.000000	0.000000	126.000000	49.000000	-28.000000	-63.000000
2.000000	69.290000	83.170000	946.000000	0.000000	127.000000	49.000000	-22.000000	-65.000000
2.010000	69.340000	82.650000	949.000000	0.000000	127.000000	49.000000	5.000000	-52.000000
2.020000	69.540000	82.230000	940.000000	0.000000	127.000000	49.000000	20.000000	-42.000000
2.030000	69.920000	81.920000	894.000000	0.000000	127.000000	49.000000	38.000000	-31.000000
2.040000	70.360000	81.780000	824.000000	0.000000	127.000000	49.000000	44.000000	-14.000000
2.050000	70.900000	81.780000	659.000000	0.000000	128.000000	48.000000	54.000000	0.000000
2.060000	71.490000	82.080000	98.000000	0.000000	128.000000	49.000000	59.000000	30.000000
2.070000	71.490000	82.080000	0.000000	1.000000	128.000000	49.000000	0.000000	0.000000
2.080000	72.200000	83.500000	0.000000	0.000000	128.000000	49.000000	71.000000	142.000000
2.090000	71.910000	84.170000	0.000000	0.000000	127.000000	50.000000	-29.000000	67.000000
2.100000	71.260000	84.720000	0.000000	0.000000	128.000000	50.000000	-65.000000	55.000000
2.110000	70.570000	85.190000	0.000000	0.000000	128.000000	50.000000	-69.000000	47.000000
2.120000	69.850000	85.270000	0.000000	0.000000	127.000000	51.000000	-72.000000	8.000000
2.130000	69.450000	84.950000	0.000000	0.000000	128.000000	52.000000	-40.000000	-32.000000
2.140000	69.450000	84.950000	481.000000	1.000000	128.000000	52.000000	0.000000	0.000000
2.150000	69.080000	83.980000	757.000000	0.000000	128.000000	52.000000	-37.000000	-97.000000
2.160000	68.880000	83.900000	897.000000	0.000000	128.000000	52.000000	-20.000000	-8.000000
2.170000	68.810000	84.020000	941.000000	0.000000	129.000000	51.000000	-7.000000	12.000000
2.180000	69.010000	84.130000	950.000000	0.000000	129.000000	51.000000	20.000000	11.000000
