t	x	y	pressure	penup	azimuth	inclination	v_x	v_y
0.000000	32.430000	68.860000	98.000000	1.000000	159.000000	49.000000	0.000000	0.000000
0.010000	32.760000	68.750000	149.000000	0.000000	159.000000	49.000000	33.000000	-11.000000
0.020000	32.760000	68.750000	148.000000	0.000000	159.000000	49.000000	0.000000	0.000000
0.030000	32.760000	68.810000	171.000000	0.000000	161.000000	49.000000	0.000000	6.000000
0.040000	32.820000	68.810000	212.000000	0.000000	161.000000	49.000000	6.000000	0.000000
0.050000	32.820000	68.870000	242.000000	0.000000	161.000000	49.000000	0.000000	6.000000
0.060000	32.820000	68.980000	249.000000	0.000000	162.000000	50.000000	0.000000	11.000000
0.070000	32.820000	69.050000	254.000000	0.000000	162.000000	50.000000	0.000000	7.000000
0.080000	32.770000	69.120000	252.000000	0.000000	163.000000	50.000000	-5.000000	7.000000
0.090000	32.600000	69.220000	255.000000	0.000000	163.000000	50.000000	-17.000000	10.000000
0.100000	32.360000	69.340000	275.000000	0.000000	163.000000	50.000000	-24.000000	12.000000
0.110000	31.970000	69.340000	279.000000	0.000000	163.000000	50.000000	-39.000000	0.000000
0.120000	31.340000	69.340000	282.000000	0.000000	163.000000	50.000000	-63.000000	0.000000
0.130000	30.540000	69.340000	312.000000	0.000000	163.000000	50.000000	-80.000000	0.000000
0.140000	29.860000	69.340000	315.000000	0.000000	163.000000	50.000000	-68.000000	0.000000
0.150000	29.230000	69.340000	346.000000	0.000000	163.000000	50.000000	-63.000000	0.000000
0.160000	28.680000	69.340000	363.000000	0.000000	163.000000	50.000000	-55.000000	0.000000
0.170000	28.140000	69.340000	369.000000	0.000000	162.000000	50.000000	-54.000000	0.000000
0.180000	27.600000	69.280000	371.000000	0.000000	162.000000	50.000000	-54.000000	-6.000000
0.190000	27.040000	69.280000	387.000000	0.000000	162.000000	50.000000	-56.000000	0.000000
0.200000	26.460000	69.200000	394.000000	0.000000	161.000000	49.000000	-58.000000	-8.000000
0.210000	25.760000	69.150000	391.000000	0.000000	161.000000	49.000000	-70.000000	-5.000000
0.220000	25.070000	69.050000	398.000000	0.000000	161.000000	49.000000	-69.000000	-10.000000
0.230000	24.430000	68.950000	396.000000	0.000000	161.000000	49.000000	-64.000000	-10.000000
0.240000	23.860000	68.840000	394.000000	0.000000	161.000000	49.000000	-57.000000	-11.000000
0.250000	23.340000	68.710000	397.000000	0.000000	161.000000	49.000000	-52.000000	-13.000000
0.260000	22.830000	68.580000	400.000000	0.000000	161.000000	49.000000	-51.000000	-13.000000
0.270000	22.340000	68.450000	410.000000	0.000000	161.000000	49.000000	-49.000000	-13.000000
0.280000	21.910000	68.350000	409.000000	0.000000	161.000000	49.000000	-43.000000	-10.000000
0.290000	21.370000	68.260000	417.000000	0.000000	161.000000	49.000000	-54.000000	-9.000000
0.300000	20.760000	68.100000	422.000000	0.000000	161.000000	49.000000	-61.000000	-16.000000
0.310000	20.290000	67.940000	423.000000	0.000000	161.000000	49.000000	-47.000000	-16.000000
0.320000	19.830000	67.790000	414.000000	0.000000	159.000000	49.000000	-46.000000	-15.000000
0.330000	19.390000	67.610000	418.000000	0.000000	159.000000	50.000000	-44.000000	-18.000000
0.340000	18.970000	67.430000	422.000000	0.000000	157.000000	50.000000	-42.000000	-18.000000
0.350000	18.620000	67.260000	425.000000	0.000000	157.000000	50.000000	-35.000000	-17.000000
0.360000	18.360000	67.120000	430.000000	0.000000	157.000000	51.000000	-26.000000	-14.000000
0.370000	18.120000	66.990000	431.000000	0.000000	155.000000	50.000000	-24.000000	-13.000000
0.380000	17.920000	66.810000	435.000000	0.000000	155.000000	50.000000	-20.000000	-18.000000
0.390000	17.780000	66.670000	433.000000	0.000000	155.000000	51.000000	-14.000000	-14.000000
0.400000	17.700000	66.550000	438.000000	0.000000	153.000000	51.000000	-8.000000	-12.000000
0.410000	17.630000	66.350000	438.000000	0.000000	153.000000	51.000000	-7.000000	-20.000000
0.420000	17.560000	66.150000	438.000000	0.000000	153.000000	52.000000	-7.000000	-20.000000
0.430000	17.560000	65.950000	433.000000	0.000000	153.000000	52.000000	0.000000	-20.000000
0.440000	17.560000	65.770000	433.000000	0.000000	153.000000	52.000000	0.000000	-18.000000
0.450000	17.610000	65.560000	435.000000	0.000000	153.000000	52.000000	5.000000	-21.000000
0.460000	17.680000	65.340000	436.000000	0.000000	153.000000	52.000000	7.000000	-22.000000
0.470000	17.790000	65.100000	447.000000	0.000000	153.000000	52.000000	11.000000	-24.000000
0.480000	17.950000	64.890000	448.000000	0.000000	151.000000	51.000000	16.000000	-21.000000
0.490000	18.130000	64.670000	461.000000	0.000000	152.000000	51.000000	18.000000	-22.000000
0.500000	18.420000	64.460000	466.000000	0.000000	152.000000	51.000000	29.000000	-21.000000
0.510000	18.770000	64.310000	465.000000	0.000000	152.000000	51.000000	35.000000	-15.000000
0.520000	19.110000	64.190000	468.000000	0.000000	152.000000	51.000000	34.000000	-12.000000
0.530000	19.440000	64.090000	473.000000	0.000000	153.000000	50.000000	33.000000	-10.000000
0.540000	19.770000	64.090000	495.000000	0.000000	153.000000	50.000000	33.000000	0.000000
0.550000	20.130000	64.090000	494.000000	0.000000	154.000000	50.000000	36.000000	0.000000
0.560000	20.610000	64.180000	515.000000	0.000000	154.000000	50.000000	48.000000	9.000000
0.570000	21.170000	64.360000	522.000000	0.000000	154.000000	50.000000	56.000000	18.000000
0.580000	21.730000	64.570000	515.000000	0.000000	155.000000	50.000000	56.000000	21.000000
0.590000	22.230000	64.730000	518.000000	0.000000	155.000000	50.000000	50.000000	16.000000
0.600000	22.690000	64.860000	518.000000	0.000000	155.000000	50.000000	46.000000	13.000000
0.610000	23.090000	64.920000	526.000000	0.000000	157.000000	51.000000	40.000000	6.000000
0.620000	23.430000	64.920000	527.000000	0.000000	157.000000	51.000000	34.000000	0.000000
0.630000	23.740000	64.920000	529.000000	0.000000	157.000000	51.000000	31.000000	0.000000
0.640000	24.020000	64.920000	533.000000	0.000000	158.000000	51.000000	28.000000	0.000000
0.650000	24.300000	64.920000	537.000000	0.000000	158.000000	51.000000	28.000000	0.000000
0.660000	24.640000	64.920000	537.000000	0.000000	158.000000	51.000000	34.000000	0.000000
0.670000	25.010000	64.920000	546.000000	0.000000	158.000000	51.000000	37.000000	0.000000
0.680000	25.440000	64.920000	556.000000	0.000000	159.000000	51.000000	43.000000	0.000000
0.690000	25.830000	64.920000	564.000000	0.000000	159.000000	51.000000	39.000000	0.000000
0.700000	26.190000	64.920000	562.000000	0.000000	159.000000	51.000000	36.000000	0.000000
0.710000	26.560000	64.870000	565.000000	0.000000	159.000000	51.000000	37.000000	-5.000000
0.720000	26.900000	64.760000	560.000000	0.000000	159.000000	51.000000	34.000000	-11.000000
0.730000	27.210000	64.610000	569.000000	0.000000	159.000000	51.000000	31.000000	-15.000000
0.740000	27.510000	64.380000	569.000000	0.000000	159.000000	51.000000	30.000000	-23.000000
0.750000	27.720000	64.170000	578.000000	0.000000	159.000000	51.000000	21.000000	-21.000000
0.760000	27.880000	63.970000	586.000000	0.000000	159.000000	50.000000	16.000000	-20.000000
0.770000	28.020000	63.760000	588.000000	0.000000	159.000000	50.000000	14.000000	-21.000000
0.780000	28.120000	63.550000	592.000000	0.000000	157.000000	50.000000	10.000000	-21.000000
0.790000	28.200000	63.350000	588.000000	0.000000	157.000000	50.000000	8.000000	-20.000000
0.800000	28.200000	63.350000	585.000000	0.000000	157.000000	50.000000	0.000000	0.000000
0.810000	28.200000	62.960000	588.000000	0.000000	157.000000	50.000000	0.000000	-39.000000
0.820000	28.200000	62.710000	592.000000	0.000000	157.000000	50.000000	0.000000	-25.000000
0.830000	28.120000	62.390000	589.000000	0.000000	157.000000	50.000000	-8.000000	-32.000000
0.840000	27.930000	62.020000	592.000000	0.000000	157.000000	50.000000	-19.000000	-37.000000
0.850000	27.640000	61.660000	591.000000	0.000000	157.000000	50.000000	-29.000000	-36.000000
0.860000	27.530000	61.410000	594.000000	0.000000	157.000000	50.000000	-11.000000	-25.000000
0.870000	27.420000	61.210000	594.000000	0.000000	157.000000	50.000000	-11.000000	-20.000000
0.880000	27.310000	61.070000	597.000000	0.000000	157.000000	50.000000	-11.000000	-14.000000
0.890000	27.130000	60.990000	602.000000	0.000000	155.000000	50.000000	-18.000000	-8.000000
0.900000	26.930000	60.940000	605.000000	0.000000	155.000000	50.000000	-20.000000	-5.000000
0.910000	26.540000	60.940000	602.000000	0.000000	155.000000	50.000000	-39.000000	0.000000
0.920000	26.040000	61.050000	589.000000	0.000000	157.000000	51.000000	-50.000000	11.000000
0.930000	25.460000	61.200000	595.000000	0.000000	157.000000	51.000000	-58.000000	15.000000
0.940000	24.930000	61.330000	595.000000	0.000000	157.000000	51.000000	-53.000000	13.000000
0.950000	24.570000	61.420000	594.000000	0.000000	157.000000	51.000000	-36.000000	9.000000
0.960000	24.310000	61.470000	597.000000	0.000000	158.000000	51.000000	-26.000000	5.000000
0.970000	24.260000	61.520000	589.000000	0.000000	158.000000	51.000000	-5.000000	5.000000
0.980000	24.260000	61.520000	568.000000	0.000000	158.000000	51.000000	0.000000	0.000000
0.990000	24.360000	61.520000	562.000000	0.000000	158.000000	51.000000	10.000000	0.000000
1.000000	24.550000	61.520000	548.000000	0.000000	158.000000	51.000000	19.000000	0.000000
1.010000	25.000000	61.640000	540.000000	0.000000	158.000000	51.000000	45.000000	12.000000
1.020000	25.600000	61.800000	540.000000	0.000000	158.000000	51.000000	60.000000	16.000000
1.030000	26.130000	61.980000	538.000000	0.000000	158.000000	51.000000	53.000000	18.000000
1.040000	26.480000	62.170000	540.000000	0.000000	158.000000	51.000000	35.000000	19.000000
1.050000	26.700000	62.240000	541.000000	0.000000	158.000000	51.000000	22.000000	7.000000
1.060000	26.830000	62.290000	544.000000	0.000000	158.000000	51.000000	13.000000	5.000000
1.070000	26.830000	62.290000	537.000000	0.000000	158.000000	51.000000	0.000000	0.000000
1.080000	26.830000	62.290000	543.000000	0.000000	158.000000	51.000000	0.000000	0.000000
1.090000	26.830000	62.290000	543.000000	0.000000	158.000000	51.000000	0.000000	0.000000
1.100000	26.680000	62.290000	542.000000	0.000000	157.000000	50.000000	-15.000000	0.000000
1.110000	26.520000	62.210000	543.000000	0.000000	157.000000	50.000000	-16.000000	-8.000000
1.120000	26.410000	62.210000	536.000000	0.000000	157.000000	50.000000	-11.000000	0.000000
1.130000	26.410000	62.210000	509.000000	0.000000	157.000000	50.000000	0.000000	0.000000
1.140000	26.410000	62.210000	455.000000	0.000000	159.000000	50.000000	0.000000	0.000000
1.150000	26.470000	62.210000	389.000000	0.000000	159.000000	50.000000	6.000000	0.000000
1.160000	26.470000	62.210000	309.000000	0.000000	160.000000	50.000000	0.000000	0.000000
1.170000	26.590000	62.300000	264.000000	0.000000	160.000000	50.000000	12.000000	9.000000
1.180000	26.660000	62.300000	212.000000	0.000000	160.000000	50.000000	7.000000	0.000000
1.190000	26.660000	62.300000	215.000000	0.000000	160.000000	50.000000	0.000000	0.000000
1.200000	26.570000	62.300000	212.000000	0.000000	160.000000	50.000000	-9.000000	0.000000
1.210000	26.420000	62.200000	144.000000	0.000000	160.000000	50.000000	-15.000000	-10.000000
1.220000	26.290000	62.140000	15.000000	0.000000	160.000000	50.000000	-13.000000	-6.000000
1.230000	26.290000	62.140000	0.000000	1.000000	160.000000	50.000000	0.000000	0.000000
1.240000	26.060000	62.080000	0.000000	0.000000	161.000000	50.000000	-23.000000	-6.000000
1.250000	25.970000	62.080000	0.000000	0.000000	161.000000	50.000000	-9.000000	0.000000
1.260000	25.910000	62.190000	0.000000	0.000000	161.000000	50.000000	-6.000000	11.000000
1.270000	25.860000	62.270000	0.000000	0.000000	160.000000	50.000000	-5.000000	8.000000
1.280000	25.810000	62.330000	0.000000	0.000000	160.000000	50.000000	-5.000000	6.000000
1.290000	25.760000	62.330000	0.000000	0.000000	159.000000	50.000000	-5.000000	0.000000
1.300000	25.710000	62.330000	0.000000	0.000000	159.000000	50.000000	-5.000000	0.000000
1.310000	25.710000	62.230000	0.000000	0.000000	157.000000	51.000000	0.000000	-10.000000
1.320000	25.710000	62.230000	71.000000	1.000000	157.000000	51.000000	0.000000	0.000000
1.330000	25.710000	62.230000	60.000000	0.000000	157.000000	51.000000	0.000000	0.000000
1.340000	25.710000	62.230000	48.000000	0.000000	157.000000	51.000000	0.000000	0.000000
1.350000	25.710000	62.230000	60.000000	0.000000	158.000000	51.000000	0.000000	0.000000
1.360000	26.000000	62.080000	3.000000	1.000000	158.000000	51.000000	0.000000	0.000000
1.370000	26.000000	62.080000	0.000000	0.000000	159.000000	51.000000	0.000000	0.000000
1.380000	26.470000	62.030000	0.000000	0.000000	159.000000	51.000000	47.000000	-5.000000
1.390000	26.470000	62.030000	0.000000	0.000000	160.000000	51.000000	0.000000	0.000000
1.400000	26.470000	62.030000	63.000000	1.000000	160.000000	51.000000	0.000000	0.000000
1.410000	26.720000	62.090000	96.000000	0.000000	160.000000	51.000000	25.000000	6.000000
1.420000	26.640000	62.170000	191.000000	0.000000	161.000000	50.000000	-8.000000	8.000000
1.430000	26.490000	62.280000	239.000000	0.000000	161.000000	50.000000	-15.000000	11.000000
1.440000	26.290000	62.370000	315.000000	0.000000	161.000000	50.000000	-20.000000	9.000000
1.450000	26.060000	62.440000	389.000000	0.000000	161.000000	50.000000	-23.000000	7.000000
1.460000	25.840000	62.510000	440.000000	0.000000	161.000000	50.000000	-22.000000	7.000000
1.470000	25.620000	62.510000	464.000000	0.000000	161.000000	50.000000	-22.000000	0.000000
1.480000	25.410000	62.420000	491.000000	0.000000	161.000000	50.000000	-21.000000	-9.000000
1.490000	25.150000	62.290000	535.000000	0.000000	161.000000	50.000000	-26.000000	-13.000000
1.500000	24.860000	62.080000	562.000000	0.000000	160.000000	50.000000	-29.000000	-21.000000
1.510000	24.550000	61.800000	580.000000	0.000000	160.000000	50.000000	-31.000000	-28.000000
1.520000	24.320000	61.510000	585.000000	0.000000	159.000000	51.000000	-23.000000	-29.000000
1.530000	24.220000	61.210000	603.000000	0.000000	159.000000	51.000000	-10.000000	-30.000000
1.540000	24.220000	60.830000	628.000000	0.000000	158.000000	51.000000	0.000000	-38.000000
1.550000	24.270000	60.430000	645.000000	0.000000	158.000000	51.000000	5.000000	-40.000000
1.560000	24.450000	60.050000	653.000000	0.000000	158.000000	51.000000	18.000000	-38.000000
1.570000	24.800000	59.770000	673.000000	0.000000	156.000000	51.000000	35.000000	-28.000000
1.580000	25.200000	59.530000	670.000000	0.000000	156.000000	51.000000	40.000000	-24.000000
1.590000	25.680000	59.410000	682.000000	0.000000	156.000000	51.000000	48.000000	-12.000000
1.600000	26.180000	59.410000	694.000000	0.000000	157.000000	52.000000	50.000000	0.000000
1.610000	26.700000	59.410000	702.000000	0.000000	156.000000	53.000000	52.000000	0.000000
1.620000	27.210000	59.550000	697.000000	0.000000	156.000000	53.000000	51.000000	14.000000
1.630000	27.700000	59.830000	697.000000	0.000000	156.000000	53.000000	49.000000	28.000000
1.640000	28.240000	60.210000	705.000000	0.000000	155.000000	52.000000	54.000000	38.000000
1.650000	28.680000	60.590000	710.000000	0.000000	155.000000	52.000000	44.000000	38.000000
1.660000	29.040000	60.950000	717.000000	0.000000	155.000000	52.000000	36.000000	36.000000
1.670000	29.170000	61.260000	725.000000	0.000000	156.000000	51.000000	13.000000	31.000000
1.680000	29.170000	61.530000	720.000000	0.000000	156.000000	51.000000	0.000000	27.000000
1.690000	29.110000	61.760000	736.000000	0.000000	156.000000	51.000000	-6.000000	23.000000
1.700000	28.960000	61.970000	742.000000	0.000000	155.000000	51.000000	-15.000000	21.000000
1.710000	28.720000	62.150000	740.000000	0.000000	155.000000	50.000000	-24.000000	18.000000
1.720000	28.410000	62.310000	745.000000	0.000000	155.000000	50.000000	-31.000000	16.000000
1.730000	28.030000	62.430000	743.000000	0.000000	155.000000	50.000000	-38.000000	12.000000
1.740000	27.680000	62.510000	745.000000	0.000000	155.000000	50.000000	-35.000000	8.000000
1.750000	27.340000	62.570000	755.000000	0.000000	155.000000	50.000000	-34.000000	6.000000
1.760000	27.190000	62.570000	755.000000	0.000000	156.000000	50.000000	-15.000000	0.000000
1.770000	27.040000	62.570000	754.000000	0.000000	156.000000	50.000000	-15.000000	0.000000
1.780000	26.780000	62.570000	750.000000	0.000000	156.000000	50.000000	-26.000000	0.000000
1.790000	26.450000	62.570000	757.000000	0.000000	156.000000	50.000000	-33.000000	0.000000
1.800000	26.080000	62.490000	758.000000	0.000000	156.000000	50.000000	-37.000000	-8.000000
1.810000	25.720000	62.410000	763.000000	0.000000	156.000000	50.000000	-36.000000	-8.000000
1.820000	25.440000	62.320000	761.000000	0.000000	157.000000	50.000000	-28.000000	-9.000000
1.830000	25.200000	62.220000	763.000000	0.000000	157.000000	50.000000	-24.000000	-10.000000
1.840000	24.850000	62.110000	756.000000	0.000000	157.000000	50.000000	-35.000000	-11.000000
1.850000	24.550000	61.970000	760.000000	0.000000	157.000000	50.000000	-30.000000	-14.000000
1.860000	24.280000	61.840000	760.000000	0.000000	157.000000	50.000000	-27.000000	-13.000000
1.870000	24.280000	61.750000	760.000000	0.000000	157.000000	51.000000	0.000000	-9.000000
1.880000	24.280000	61.650000	762.000000	0.000000	157.000000	51.000000	0.000000	-10.000000
1.890000	24.200000	61.520000	762.000000	0.000000	157.000000	51.000000	-8.000000	-13.000000
1.900000	24.200000	61.320000	765.000000	0.000000	157.000000	51.000000	0.000000	-20.000000
1.910000	24.120000	61.090000	760.000000	0.000000	157.000000	51.000000	-8.000000	-23.000000
1.920000	24.050000	60.860000	763.000000	0.000000	157.000000	51.000000	-7.000000	-23.000000
1.930000	24.050000	60.590000	753.000000	0.000000	155.000000	50.000000	0.000000	-27.000000
1.940000	23.970000	60.320000	763.000000	0.000000	156.000000	51.000000	-8.000000	-27.000000
1.950000	23.820000	59.940000	763.000000	0.000000	156.000000	51.000000	-15.000000	-38.000000
1.960000	23.620000	59.500000	751.000000	0.000000	156.000000	51.000000	-20.000000	-44.000000
1.970000	23.480000	59.250000	751.000000	0.000000	155.000000	52.000000	-14.000000	-25.000000
1.980000	23.370000	59.120000	756.000000	0.000000	155.000000	52.000000	-11.000000	-13.000000
1.990000	23.280000	59.070000	757.000000	0.000000	155.000000	52.000000	-9.000000	-5.000000
2.000000	22.950000	58.920000	763.000000	0.000000	154.000000	53.000000	-33.000000	-15.000000
2.010000	22.450000	58.920000	771.000000	0.000000	154.000000	53.000000	-50.000000	0.000000
2.020000	21.960000	59.000000	771.000000	0.000000	154.000000	53.000000	-49.000000	8.000000
2.030000	21.360000	59.150000	768.000000	0.000000	154.000000	53.000000	-60.000000	15.000000
2.040000	20.690000	59.290000	773.000000	0.000000	153.000000	53.000000	-67.000000	14.000000
2.050000	20.060000	59.440000	759.000000	0.000000	153.000000	53.000000	-63.000000	15.000000
2.060000	19.480000	59.650000	754.000000	0.000000	152.000000	53.000000	-58.000000	21.000000
2.070000	18.980000	59.870000	761.000000	0.000000	152.000000	53.000000	-50.000000	22.000000
2.080000	18.520000	60.210000	758.000000	0.000000	150.000000	52.000000	-46.000000	34.000000
2.090000	18.140000	60.540000	757.000000	0.000000	150.000000	52.000000	-38.000000	33.000000
2.100000	17.940000	60.870000	754.000000	0.000000	150.000000	52.000000	-20.000000	33.000000
2.110000	17.850000	61.060000	746.000000	0.000000	149.000000	52.000000	-9.000000	19.000000
2.120000	17.850000	61.240000	746.000000	0.000000	150.000000	51.000000	0.000000	18.000000
2.130000	17.850000	61.390000	737.000000	0.000000	150.000000	51.000000	0.000000	15.000000
2.140000	17.980000	61.660000	731.000000	0.000000	149.000000	51.000000	13.000000	27.000000
2.150000	18.340000	62.010000	730.000000	0.000000	150.000000	50.000000	36.000000	35.000000
2.160000	18.840000	62.410000	720.000000	0.000000	150.000000	50.000000	50.000000	40.000000
2.170000	19.640000	62.890000	727.000000	0.000000	150.000000	50.000000	80.000000	48.000000
2.180000	20.900000	63.420000	719.000000	0.000000	151.000000	50.000000	126.000000	53.000000
2.190000	22.470000	63.890000	702.000000	0.000000	151.000000	50.000000	157.000000	47.000000
2.200000	23.860000	64.320000	694.000000	0.000000	152.000000	49.000000	139.000000	43.000000
