t	x	y	pressure	penup	azimuth	inclination	v_x	v_y
0.000000	53.420000	11.060000	195.000000	1.000000	92.000000	67.000000	0.000000	0.000000
0.010000	53.420000	11.060000	274.000000	0.000000	90.000000	67.000000	0.000000	0.000000
0.020000	53.130000	10.900000	362.000000	0.000000	90.000000	67.000000	-29.000000	-16.000000
0.030000	53.050000	10.900000	505.000000	0.000000	90.000000	67.000000	-8.000000	0.000000
0.040000	53.050000	10.900000	566.000000	0.000000	90.000000	67.000000	0.000000	0.000000
0.050000	53.050000	10.900000	584.000000	0.000000	90.000000	68.000000	0.000000	0.000000
0.060000	53.150000	10.900000	608.000000	0.000000	90.000000	68.000000	10.000000	0.000000
0.070000	53.330000	10.900000	647.000000	0.000000	90.000000	68.000000	18.000000	0.000000
0.080000	53.580000	11.010000	672.000000	0.000000	90.000000	68.000000	25.000000	11.000000
0.090000	53.880000	11.140000	700.000000	0.000000	90.000000	68.000000	30.000000	13.000000
0.100000	54.220000	11.570000	727.000000	0.000000	90.000000	68.000000	34.000000	43.000000
0.110000	54.620000	12.120000	758.000000	0.000000	90.000000	69.000000	40.000000	55.000000
0.120000	55.030000	12.750000	785.000000	0.000000	90.000000	69.000000	41.000000	63.000000
0.130000	55.420000	13.400000	794.000000	0.000000	90.000000	69.000000	39.000000	65.000000
0.140000	55.790000	14.130000	794.000000	0.000000	90.000000	70.000000	37.000000	73.000000
0.150000	56.130000	14.920000	788.000000	0.000000	93.000000	70.000000	34.000000	79.000000
0.160000	56.450000	15.650000	788.000000	0.000000	93.000000	70.000000	32.000000	73.000000
0.170000	56.750000	16.370000	793.000000	0.000000	95.000000	70.000000	30.000000	72.000000
0.180000	56.980000	17.030000	790.000000	0.000000	99.000000	71.000000	23.000000	66.000000
0.190000	57.160000	17.570000	794.000000	0.000000	101.000000	71.000000	18.000000	54.000000
0.200000	57.300000	18.060000	797.000000	0.000000	104.000000	70.000000	14.000000	49.000000
0.210000	57.300000	18.330000	790.000000	0.000000	107.000000	70.000000	0.000000	27.000000
0.220000	57.300000	18.580000	818.000000	0.000000	110.000000	70.000000	0.000000	25.000000
0.230000	57.300000	18.640000	818.000000	0.000000	113.000000	71.000000	0.000000	6.000000
0.240000	57.240000	18.570000	832.000000	0.000000	116.000000	70.000000	-6.000000	-7.000000
0.250000	57.240000	18.570000	823.000000	0.000000	116.000000	70.000000	0.000000	0.000000
0.260000	57.190000	18.500000	815.000000	0.000000	118.000000	70.000000	-5.000000	-7.000000
0.270000	57.090000	18.380000	812.000000	0.000000	118.000000	70.000000	-10.000000	-12.000000
0.280000	56.940000	18.030000	823.000000	0.000000	118.000000	70.000000	-15.000000	-35.000000
0.290000	56.720000	17.550000	824.000000	0.000000	118.000000	70.000000	-22.000000	-48.000000
0.300000	56.510000	16.910000	817.000000	0.000000	118.000000	70.000000	-21.000000	-64.000000
0.310000	56.280000	16.160000	834.000000	0.000000	116.000000	70.000000	-23.000000	-75.000000
0.320000	56.020000	15.340000	848.000000	0.000000	115.000000	69.000000	-26.000000	-82.000000
0.330000	55.890000	14.540000	851.000000	0.000000	112.000000	70.000000	-13.000000	-80.000000
0.340000	55.740000	13.860000	854.000000	0.000000	110.000000	70.000000	-15.000000	-68.000000
0.350000	55.610000	13.250000	888.000000	0.000000	107.000000	70.000000	-13.000000	-61.000000
0.360000	55.560000	12.600000	906.000000	0.000000	104.000000	70.000000	-5.000000	-65.000000
0.370000	55.560000	12.070000	906.000000	0.000000	101.000000	71.000000	0.000000	-53.000000
0.380000	55.660000	11.610000	906.000000	0.000000	99.000000	71.000000	10.000000	-46.000000
0.390000	55.730000	11.230000	894.000000	0.000000	96.000000	71.000000	7.000000	-38.000000
0.400000	55.870000	11.110000	897.000000	0.000000	93.000000	71.000000	14.000000	-12.000000
0.410000	56.050000	11.170000	896.000000	0.000000	93.000000	71.000000	18.000000	6.000000
0.420000	56.310000	11.350000	903.000000	0.000000	90.000000	71.000000	26.000000	18.000000
0.430000	56.600000	11.700000	902.000000	0.000000	90.000000	71.000000	29.000000	35.000000
0.440000	56.930000	12.160000	905.000000	0.000000	90.000000	72.000000	33.000000	46.000000
0.450000	57.260000	12.660000	906.000000	0.000000	90.000000	72.000000	33.000000	50.000000
0.460000	57.590000	13.200000	903.000000	0.000000	90.000000	72.000000	33.000000	54.000000
0.470000	57.880000	13.780000	905.000000	0.000000	90.000000	72.000000	29.000000	58.000000
0.480000	58.160000	14.320000	900.000000	0.000000	90.000000	72.000000	28.000000	54.000000
0.490000	58.420000	14.840000	897.000000	0.000000	93.000000	72.000000	26.000000	52.000000
0.500000	58.650000	15.310000	899.000000	0.000000	96.000000	72.000000	23.000000	47.000000
0.510000	58.830000	15.720000	891.000000	0.000000	96.000000	72.000000	18.000000	41.000000
0.520000	58.980000	16.240000	885.000000	0.000000	99.000000	72.000000	15.000000	52.000000
0.530000	59.240000	16.840000	869.000000	0.000000	105.000000	71.000000	26.000000	60.000000
0.540000	59.440000	17.390000	863.000000	0.000000	107.000000	70.000000	20.000000	55.000000
0.550000	59.600000	17.920000	864.000000	0.000000	110.000000	70.000000	16.000000	53.000000
0.560000	59.650000	18.210000	872.000000	0.000000	110.000000	70.000000	5.000000	29.000000
0.570000	59.650000	18.340000	881.000000	0.000000	112.000000	70.000000	0.000000	13.000000
0.580000	59.650000	18.340000	887.000000	0.000000	115.000000	69.000000	0.000000	0.000000
0.590000	59.580000	18.340000	879.000000	0.000000	114.000000	68.000000	-7.000000	0.000000
0.600000	59.530000	18.340000	879.000000	0.000000	116.000000	68.000000	-5.000000	0.000000
0.610000	59.480000	18.340000	875.000000	0.000000	116.000000	68.000000	-5.000000	0.000000
0.620000	59.480000	18.340000	872.000000	0.000000	116.000000	68.000000	0.000000	0.000000
0.630000	59.480000	18.340000	876.000000	0.000000	117.000000	67.000000	0.000000	0.000000
0.640000	59.360000	17.910000	902.000000	0.000000	117.000000	67.000000	-12.000000	-43.000000
0.650000	59.250000	17.230000	912.000000	0.000000	115.000000	67.000000	-11.000000	-68.000000
0.660000	59.040000	16.360000	945.000000	0.000000	116.000000	68.000000	-21.000000	-87.000000
0.670000	58.880000	15.710000	944.000000	0.000000	116.000000	68.000000	-16.000000	-65.000000
0.680000	58.800000	15.070000	956.000000	0.000000	114.000000	68.000000	-8.000000	-64.000000
0.690000	58.800000	14.480000	971.000000	0.000000	112.000000	70.000000	0.000000	-59.000000
0.700000	58.800000	13.940000	985.000000	0.000000	110.000000	70.000000	0.000000	-54.000000
0.710000	58.800000	13.400000	977.000000	0.000000	108.000000	71.000000	0.000000	-54.000000
0.720000	58.930000	12.890000	987.000000	0.000000	105.000000	71.000000	13.000000	-51.000000
0.730000	59.020000	12.500000	988.000000	0.000000	102.000000	72.000000	9.000000	-39.000000
0.740000	59.150000	12.200000	993.000000	0.000000	99.000000	72.000000	13.000000	-30.000000
0.750000	59.380000	11.940000	990.000000	0.000000	96.000000	72.000000	23.000000	-26.000000
0.760000	59.680000	11.890000	990.000000	0.000000	96.000000	72.000000	30.000000	-5.000000
0.770000	60.010000	11.990000	990.000000	0.000000	93.000000	72.000000	33.000000	10.000000
0.780000	60.390000	12.280000	997.000000	0.000000	93.000000	72.000000	38.000000	29.000000
0.790000	60.830000	12.700000	988.000000	0.000000	93.000000	72.000000	44.000000	42.000000
0.800000	61.300000	13.220000	990.000000	0.000000	93.000000	72.000000	47.000000	52.000000
0.810000	61.720000	13.680000	987.000000	0.000000	93.000000	72.000000	42.000000	46.000000
0.820000	62.120000	14.110000	985.000000	0.000000	93.000000	72.000000	40.000000	43.000000
0.830000	62.420000	14.500000	992.000000	0.000000	96.000000	72.000000	30.000000	39.000000
0.840000	62.630000	14.950000	977.000000	0.000000	96.000000	72.000000	21.000000	45.000000
0.850000	62.770000	15.350000	958.000000	0.000000	99.000000	72.000000	14.000000	40.000000
0.860000	62.770000	15.680000	952.000000	0.000000	102.000000	72.000000	0.000000	33.000000
0.870000	62.860000	16.020000	940.000000	0.000000	105.000000	71.000000	9.000000	34.000000
0.880000	62.860000	16.320000	938.000000	0.000000	108.000000	71.000000	0.000000	30.000000
0.890000	62.860000	16.560000	956.000000	0.000000	111.000000	71.000000	0.000000	24.000000
0.900000	62.860000	16.560000	961.000000	0.000000	113.000000	71.000000	0.000000	0.000000
0.910000	62.860000	16.500000	958.000000	0.000000	116.000000	70.000000	0.000000	-6.000000
0.920000	62.860000	16.430000	956.000000	0.000000	118.000000	70.000000	0.000000	-7.000000
0.930000	62.770000	16.180000	958.000000	0.000000	120.000000	71.000000	-9.000000	-25.000000
0.940000	62.720000	15.800000	956.000000	0.000000	122.000000	70.000000	-5.000000	-38.000000
0.950000	62.670000	15.460000	953.000000	0.000000	120.000000	71.000000	-5.000000	-34.000000
0.960000	62.620000	15.060000	955.000000	0.000000	120.000000	71.000000	-5.000000	-40.000000
0.970000	62.470000	14.580000	970.000000	0.000000	117.000000	71.000000	-15.000000	-48.000000
0.980000	62.240000	14.080000	989.000000	0.000000	115.000000	71.000000	-23.000000	-50.000000
0.990000	62.110000	13.680000	979.000000	0.000000	112.000000	72.000000	-13.000000	-40.000000
1.000000	62.110000	13.340000	981.000000	0.000000	109.000000	72.000000	0.000000	-34.000000
1.010000	62.110000	13.180000	982.000000	0.000000	106.000000	72.000000	0.000000	-16.000000
1.020000	62.200000	13.050000	977.000000	0.000000	103.000000	73.000000	9.000000	-13.000000
1.030000	62.300000	12.940000	977.000000	0.000000	103.000000	73.000000	10.000000	-11.000000
1.040000	62.400000	12.840000	977.000000	0.000000	100.000000	73.000000	10.000000	-10.000000
1.050000	62.600000	12.740000	978.000000	0.000000	100.000000	73.000000	20.000000	-10.000000
1.060000	62.810000	12.670000	985.000000	0.000000	97.000000	73.000000	21.000000	-7.000000
1.070000	63.090000	12.800000	991.000000	0.000000	97.000000	73.000000	28.000000	13.000000
1.080000	63.400000	13.050000	997.000000	0.000000	97.000000	73.000000	31.000000	25.000000
1.090000	63.700000	13.380000	997.000000	0.000000	97.000000	73.000000	30.000000	33.000000
1.100000	64.000000	13.740000	1003.000000	0.000000	97.000000	73.000000	30.000000	36.000000
1.110000	64.310000	14.130000	999.000000	0.000000	97.000000	73.000000	31.000000	39.000000
1.120000	64.490000	14.400000	997.000000	0.000000	97.000000	73.000000	18.000000	27.000000
1.130000	64.570000	14.490000	996.000000	0.000000	100.000000	73.000000	8.000000	9.000000
1.140000	64.570000	14.490000	994.000000	0.000000	100.000000	73.000000	0.000000	0.000000
1.150000	64.570000	14.490000	987.000000	0.000000	100.000000	73.000000	0.000000	0.000000
1.160000	64.570000	14.490000	984.000000	0.000000	100.000000	73.000000	0.000000	0.000000
1.170000	64.570000	14.440000	981.000000	0.000000	103.000000	73.000000	0.000000	-5.000000
1.180000	64.570000	14.440000	978.000000	0.000000	103.000000	73.000000	0.000000	0.000000
1.190000	64.570000	14.440000	978.000000	0.000000	103.000000	73.000000	0.000000	0.000000
1.200000	64.570000	14.390000	978.000000	0.000000	103.000000	73.000000	0.000000	-5.000000
1.210000	64.700000	14.390000	987.000000	0.000000	103.000000	73.000000	13.000000	0.000000
1.220000	64.860000	14.390000	990.000000	0.000000	103.000000	73.000000	16.000000	0.000000
1.230000	65.080000	14.470000	993.000000	0.000000	103.000000	73.000000	22.000000	8.000000
1.240000	65.350000	14.720000	990.000000	0.000000	103.000000	73.000000	27.000000	25.000000
1.250000	65.700000	15.080000	985.000000	0.000000	104.000000	74.000000	35.000000	36.000000
1.260000	66.110000	15.550000	982.000000	0.000000	107.000000	73.000000	41.000000	47.000000
1.270000	66.550000	16.110000	992.000000	0.000000	107.000000	73.000000	44.000000	56.000000
1.280000	66.830000	16.720000	992.000000	0.000000	110.000000	73.000000	28.000000	61.000000
1.290000	67.000000	17.350000	989.000000	0.000000	115.000000	74.000000	17.000000	63.000000
1.300000	67.150000	17.980000	982.000000	0.000000	118.000000	73.000000	15.000000	63.000000
1.310000	67.150000	18.440000	983.000000	0.000000	121.000000	73.000000	0.000000	46.000000
1.320000	67.070000	18.790000	980.000000	0.000000	125.000000	73.000000	-8.000000	35.000000
1.330000	67.070000	19.070000	965.000000	0.000000	128.000000	72.000000	0.000000	28.000000
1.340000	67.020000	19.390000	974.000000	0.000000	128.000000	72.000000	-5.000000	32.000000
1.350000	67.020000	19.460000	979.000000	0.000000	130.000000	72.000000	0.000000	7.000000
1.360000	67.020000	19.370000	983.000000	0.000000	130.000000	72.000000	0.000000	-9.000000
1.370000	67.020000	19.370000	983.000000	0.000000	130.000000	72.000000	0.000000	0.000000
1.380000	66.920000	19.370000	982.000000	0.000000	133.000000	71.000000	-10.000000	0.000000
1.390000	66.920000	19.250000	980.000000	0.000000	133.000000	71.000000	0.000000	-12.000000
1.400000	66.740000	19.110000	974.000000	0.000000	133.000000	71.000000	-18.000000	-14.000000
1.410000	66.540000	18.750000	973.000000	0.000000	133.000000	71.000000	-20.000000	-36.000000
1.420000	66.410000	18.260000	974.000000	0.000000	133.000000	71.000000	-13.000000	-49.000000
1.430000	66.290000	17.690000	983.000000	0.000000	130.000000	72.000000	-12.000000	-57.000000
1.440000	66.160000	17.070000	994.000000	0.000000	130.000000	72.000000	-13.000000	-62.000000
1.450000	66.030000	16.370000	990.000000	0.000000	130.000000	72.000000	-13.000000	-70.000000
1.460000	65.910000	15.660000	1009.000000	0.000000	128.000000	72.000000	-12.000000	-71.000000
1.470000	65.860000	14.980000	1023.000000	0.000000	126.000000	72.000000	-5.000000	-68.000000
1.480000	65.860000	14.440000	1023.000000	0.000000	123.000000	72.000000	0.000000	-54.000000
1.490000	65.860000	14.010000	1023.000000	0.000000	121.000000	73.000000	0.000000	-43.000000
1.500000	65.860000	13.620000	1023.000000	0.000000	115.000000	74.000000	0.000000	-39.000000
1.510000	65.940000	13.350000	1023.000000	0.000000	111.000000	74.000000	8.000000	-27.000000
1.520000	66.090000	13.160000	1023.000000	0.000000	107.000000	73.000000	15.000000	-19.000000
1.530000	66.260000	13.040000	1023.000000	0.000000	104.000000	74.000000	17.000000	-12.000000
1.540000	66.470000	12.990000	1023.000000	0.000000	101.000000	75.000000	21.000000	-5.000000
1.550000	66.770000	12.990000	1023.000000	0.000000	101.000000	75.000000	30.000000	0.000000
1.560000	67.240000	13.130000	1023.000000	0.000000	101.000000	75.000000	47.000000	14.000000
1.570000	67.810000	13.370000	1023.000000	0.000000	102.000000	76.000000	57.000000	24.000000
1.580000	68.370000	13.690000	1023.000000	0.000000	102.000000	76.000000	56.000000	32.000000
1.590000	68.830000	13.880000	1023.000000	0.000000	102.000000	76.000000	46.000000	19.000000
1.600000	69.220000	14.060000	1023.000000	0.000000	103.000000	77.000000	39.000000	18.000000
1.610000	69.530000	14.230000	1023.000000	0.000000	103.000000	77.000000	31.000000	17.000000
1.620000	69.660000	14.320000	1023.000000	0.000000	103.000000	77.000000	13.000000	9.000000
1.630000	69.660000	14.390000	1023.000000	0.000000	103.000000	77.000000	0.000000	7.000000
1.640000	69.660000	14.390000	1023.000000	0.000000	103.000000	77.000000	0.000000	0.000000
1.650000	69.660000	14.500000	1023.000000	0.000000	103.000000	77.000000	0.000000	11.000000
1.660000	69.660000	14.620000	1023.000000	0.000000	108.000000	77.000000	0.000000	12.000000
1.670000	69.660000	14.670000	1023.000000	0.000000	108.000000	77.000000	0.000000	5.000000
1.680000	69.660000	14.670000	1023.000000	0.000000	108.000000	77.000000	0.000000	0.000000
1.690000	69.660000	14.670000	1023.000000	0.000000	108.000000	77.000000	0.000000	0.000000
1.700000	69.660000	14.670000	1023.000000	0.000000	108.000000	77.000000	0.000000	0.000000
1.710000	69.660000	14.670000	1023.000000	0.000000	112.000000	77.000000	0.000000	0.000000
1.720000	69.660000	14.670000	1023.000000	0.000000	112.000000	77.000000	0.000000	0.000000
1.730000	69.660000	14.670000	1023.000000	0.000000	112.000000	77.000000	0.000000	0.000000
1.740000	69.660000	14.670000	1023.000000	0.000000	112.000000	77.000000	0.000000	0.000000
1.750000	69.660000	14.670000	1023.000000	0.000000	112.000000	77.000000	0.000000	0.000000
1.760000	69.660000	14.670000	1023.000000	0.000000	112.000000	77.000000	0.000000	0.000000
1.770000	69.660000	14.670000	1023.000000	0.000000	112.000000	77.000000	0.000000	0.000000
1.780000	69.660000	14.670000	1023.000000	0.000000	111.000000	76.000000	0.000000	0.000000
1.790000	69.660000	14.670000	1023.000000	0.000000	111.000000	76.000000	0.000000	0.000000
1.800000	69.660000	14.670000	1023.000000	0.000000	111.000000	76.000000	0.000000	0.000000
1.810000	69.660000	14.670000	1023.000000	0.000000	111.000000	76.000000	0.000000	0.000000
1.820000	69.660000	14.670000	1023.000000	0.000000	111.000000	76.000000	0.000000	0.000000
1.830000	69.600000	14.670000	1023.000000	0.000000	112.000000	77.000000	-6.000000	0.000000
1.840000	69.600000	14.670000	1023.000000	0.000000	112.000000	77.000000	0.000000	0.000000
1.850000	69.650000	14.670000	1023.000000	0.000000	112.000000	77.000000	5.000000	0.000000
1.860000	69.650000	14.670000	1023.000000	0.000000	112.000000	77.000000	0.000000	0.000000
1.870000	69.650000	14.730000	1023.000000	0.000000	112.000000	77.000000	0.000000	6.000000
1.880000	69.650000	14.790000	1023.000000	0.000000	112.000000	77.000000	0.000000	6.000000
1.890000	69.650000	14.840000	1023.000000	0.000000	112.000000	77.000000	0.000000	5.000000
1.900000	69.600000	15.020000	1023.000000	0.000000	112.000000	77.000000	-5.000000	18.000000
1.910000	69.600000	15.300000	1023.000000	0.000000	112.000000	77.000000	0.000000	28.000000
1.920000	69.520000	15.440000	1023.000000	0.000000	116.000000	77.000000	-8.000000	14.000000
1.930000	69.390000	15.520000	1023.000000	0.000000	116.000000	77.000000	-13.000000	8.000000
1.940000	69.230000	15.520000	1023.000000	0.000000	114.000000	76.000000	-16.000000	0.000000
1.950000	68.940000	15.300000	1023.000000	0.000000	118.000000	75.000000	-29.000000	-22.000000
1.960000	68.550000	14.940000	1023.000000	0.000000	118.000000	75.000000	-39.000000	-36.000000
1.970000	68.360000	14.610000	1023.000000	0.000000	118.000000	75.000000	-19.000000	-33.000000
1.980000	68.360000	14.220000	1023.000000	0.000000	114.000000	76.000000	0.000000	-39.000000
1.990000	68.450000	13.880000	1023.000000	0.000000	114.000000	76.000000	9.000000	-34.000000
2.000000	68.700000	13.610000	1023.000000	0.000000	111.000000	76.000000	25.000000	-27.000000
2.010000	68.980000	13.340000	1023.000000	0.000000	111.000000	76.000000	28.000000	-27.000000
2.020000	69.300000	13.110000	1023.000000	0.000000	107.000000	76.000000	32.000000	-23.000000
2.030000	69.620000	13.050000	1023.000000	0.000000	103.000000	77.000000	32.000000	-6.000000
2.040000	70.120000	13.100000	1023.000000	0.000000	103.000000	77.000000	50.000000	5.000000
2.050000	70.740000	13.400000	1023.000000	0.000000	99.000000	77.000000	62.000000	30.000000
2.060000	71.290000	13.780000	936.000000	0.000000	99.000000	77.000000	55.000000	38.000000
2.070000	71.660000	14.220000	725.000000	0.000000	99.000000	78.000000	37.000000	44.000000
2.080000	71.900000	14.510000	124.000000	0.000000	99.000000	78.000000	24.000000	29.000000
2.090000	71.900000	14.510000	0.000000	1.000000	104.000000	78.000000	0.000000	0.000000
2.100000	71.680000	14.950000	0.000000	0.000000	104.000000	78.000000	-22.000000	44.000000
2.110000	71.300000	15.150000	0.000000	0.000000	108.000000	77.000000	-38.000000	20.000000
2.120000	70.670000	15.390000	0.000000	0.000000	116.000000	77.000000	-63.000000	24.000000
2.130000	69.740000	15.650000	0.000000	0.000000	118.000000	75.000000	-93.000000	26.000000
2.140000	68.600000	15.810000	0.000000	0.000000	121.000000	75.000000	-114.000000	16.000000
2.150000	67.480000	15.940000	0.000000	0.000000	122.000000	74.000000	-112.000000	13.000000
2.160000	66.720000	16.010000	0.000000	0.000000	125.000000	73.000000	-76.000000	7.000000
2.170000	66.210000	16.010000	0.000000	0.000000	128.000000	72.000000	-51.000000	0.000000
2.180000	66.210000	16.010000	753.000000	1.000000	126.000000	72.000000	0.000000	0.000000
2.190000	65.750000	16.030000	824.000000	0.000000	128.000000	71.000000	-46.000000	2.000000
2.200000	65.680000	16.210000	933.000000	0.000000	128.000000	71.000000	-7.000000	18.000000
2.210000	66.080000	16.440000	1023.000000	0.000000	126.000000	72.000000	40.000000	23.000000
