t	x	y	pressure	penup	azimuth	inclination	v_x	v_y
0.000000	10.210000	63.160000	51.000000	1.000000	149.000000	59.000000	0.000000	0.000000
0.010000	10.210000	63.160000	103.000000	0.000000	149.000000	59.000000	0.000000	0.000000
0.020000	10.500000	63.210000	139.000000	0.000000	149.000000	59.000000	29.000000	5.000000
0.030000	10.670000	63.210000	206.000000	0.000000	149.000000	59.000000	17.000000	0.000000
0.040000	10.860000	63.280000	276.000000	0.000000	149.000000	59.000000	19.000000	7.000000
0.050000	11.040000	63.350000	351.000000	0.000000	149.000000	59.000000	18.000000	7.000000
0.060000	11.200000	63.430000	413.000000	0.000000	147.000000	59.000000	16.000000	8.000000
0.070000	11.360000	63.520000	448.000000	0.000000	147.000000	59.000000	16.000000	9.000000
0.080000	11.470000	63.640000	478.000000	0.000000	147.000000	59.000000	11.000000	12.000000
0.090000	11.530000	63.810000	495.000000	0.000000	146.000000	58.000000	6.000000	17.000000
0.100000	11.530000	64.020000	492.000000	0.000000	145.000000	59.000000	0.000000	21.000000
0.110000	11.580000	64.310000	502.000000	0.000000	145.000000	59.000000	5.000000	29.000000
0.120000	11.580000	64.600000	490.000000	0.000000	145.000000	59.000000	0.000000	29.000000
0.130000	11.580000	64.940000	492.000000	0.000000	145.000000	59.000000	0.000000	34.000000
0.140000	11.460000	65.310000	483.000000	0.000000	144.000000	60.000000	-12.000000	37.000000
0.150000	11.320000	65.520000	483.000000	0.000000	144.000000	60.000000	-14.000000	21.000000
0.160000	11.130000	65.680000	486.000000	0.000000	144.000000	60.000000	-19.000000	16.000000
0.170000	10.970000	65.680000	490.000000	0.000000	144.000000	60.000000	-16.000000	0.000000
0.180000	10.820000	65.580000	493.000000	0.000000	142.000000	59.000000	-15.000000	-10.000000
0.190000	10.650000	65.340000	491.000000	0.000000	142.000000	59.000000	-17.000000	-24.000000
0.200000	10.510000	64.930000	504.000000	0.000000	142.000000	59.000000	-14.000000	-41.000000
0.210000	10.430000	64.400000	515.000000	0.000000	142.000000	59.000000	-8.000000	-53.000000
0.220000	10.430000	63.900000	520.000000	0.000000	142.000000	59.000000	0.000000	-50.000000
0.230000	10.510000	63.420000	522.000000	0.000000	142.000000	59.000000	8.000000	-48.000000
0.240000	10.610000	62.960000	516.000000	0.000000	142.000000	59.000000	10.000000	-46.000000
0.250000	10.720000	62.580000	518.000000	0.000000	142.000000	59.000000	11.000000	-38.000000
0.260000	10.720000	62.220000	530.000000	0.000000	141.000000	59.000000	0.000000	-36.000000
0.270000	10.650000	61.880000	546.000000	0.000000	142.000000	58.000000	-7.000000	-34.000000
0.280000	10.390000	61.550000	567.000000	0.000000	142.000000	58.000000	-26.000000	-33.000000
0.290000	10.100000	61.340000	570.000000	0.000000	142.000000	58.000000	-29.000000	-21.000000
0.300000	9.790000	61.220000	588.000000	0.000000	142.000000	58.000000	-31.000000	-12.000000
0.310000	9.490000	61.160000	588.000000	0.000000	142.000000	58.000000	-30.000000	-6.000000
0.320000	9.210000	61.260000	580.000000	0.000000	142.000000	58.000000	-28.000000	10.000000
0.330000	8.990000	61.460000	563.000000	0.000000	142.000000	58.000000	-22.000000	20.000000
0.340000	8.880000	61.750000	554.000000	0.000000	142.000000	58.000000	-11.000000	29.000000
0.350000	8.880000	62.020000	562.000000	0.000000	140.000000	58.000000	0.000000	27.000000
0.360000	8.950000	62.220000	561.000000	0.000000	140.000000	58.000000	7.000000	20.000000
0.370000	9.110000	62.340000	561.000000	0.000000	140.000000	58.000000	16.000000	12.000000
0.380000	9.260000	62.410000	560.000000	0.000000	140.000000	58.000000	15.000000	7.000000
0.390000	9.410000	62.410000	567.000000	0.000000	140.000000	58.000000	15.000000	0.000000
0.400000	9.630000	62.410000	572.000000	0.000000	140.000000	58.000000	22.000000	0.000000
0.410000	9.880000	62.410000	578.000000	0.000000	140.000000	58.000000	25.000000	0.000000
0.420000	10.140000	62.350000	580.000000	0.000000	139.000000	57.000000	26.000000	-6.000000
0.430000	10.420000	62.350000	581.000000	0.000000	139.000000	57.000000	28.000000	0.000000
0.440000	10.710000	62.260000	578.000000	0.000000	140.000000	56.000000	29.000000	-9.000000
0.450000	11.030000	62.160000	580.000000	0.000000	140.000000	56.000000	32.000000	-10.000000
0.460000	11.270000	62.050000	578.000000	0.000000	142.000000	57.000000	24.000000	-11.000000
0.470000	11.480000	61.920000	575.000000	0.000000	140.000000	58.000000	21.000000	-13.000000
0.480000	11.660000	61.790000	580.000000	0.000000	140.000000	58.000000	18.000000	-13.000000
0.490000	11.860000	61.650000	581.000000	0.000000	142.000000	58.000000	20.000000	-14.000000
0.500000	12.070000	61.560000	581.000000	0.000000	142.000000	58.000000	21.000000	-9.000000
0.510000	12.270000	61.500000	581.000000	0.000000	142.000000	58.000000	20.000000	-6.000000
0.520000	12.460000	61.500000	586.000000	0.000000	143.000000	59.000000	19.000000	0.000000
0.530000	12.720000	61.500000	588.000000	0.000000	143.000000	59.000000	26.000000	0.000000
0.540000	12.960000	61.580000	588.000000	0.000000	143.000000	59.000000	24.000000	8.000000
0.550000	13.160000	61.730000	588.000000	0.000000	145.000000	59.000000	20.000000	15.000000
0.560000	13.330000	61.860000	588.000000	0.000000	145.000000	59.000000	17.000000	13.000000
0.570000	13.420000	62.010000	589.000000	0.000000	145.000000	59.000000	9.000000	15.000000
0.580000	13.420000	62.190000	591.000000	0.000000	146.000000	60.000000	0.000000	18.000000
0.590000	13.420000	62.330000	595.000000	0.000000	146.000000	60.000000	0.000000	14.000000
0.600000	13.420000	62.450000	586.000000	0.000000	146.000000	60.000000	0.000000	12.000000
0.610000	13.330000	62.550000	585.000000	0.000000	146.000000	60.000000	-9.000000	10.000000
0.620000	13.260000	62.670000	592.000000	0.000000	146.000000	60.000000	-7.000000	12.000000
0.630000	13.210000	62.790000	589.000000	0.000000	147.000000	59.000000	-5.000000	12.000000
0.640000	13.210000	62.840000	583.000000	0.000000	147.000000	59.000000	0.000000	5.000000
0.650000	13.090000	62.840000	578.000000	0.000000	147.000000	59.000000	-12.000000	0.000000
0.660000	12.980000	62.840000	572.000000	0.000000	147.000000	59.000000	-11.000000	0.000000
0.670000	12.820000	62.780000	578.000000	0.000000	147.000000	59.000000	-16.000000	-6.000000
0.680000	12.820000	62.780000	577.000000	0.000000	147.000000	59.000000	0.000000	0.000000
0.690000	12.520000	62.620000	578.000000	0.000000	147.000000	59.000000	-30.000000	-16.000000
0.700000	12.380000	62.460000	580.000000	0.000000	146.000000	58.000000	-14.000000	-16.000000
0.710000	12.260000	62.340000	581.000000	0.000000	146.000000	58.000000	-12.000000	-12.000000
0.720000	12.260000	62.240000	586.000000	0.000000	146.000000	58.000000	0.000000	-10.000000
0.730000	12.260000	62.150000	588.000000	0.000000	146.000000	58.000000	0.000000	-9.000000
0.740000	12.260000	62.030000	589.000000	0.000000	146.000000	58.000000	0.000000	-12.000000
0.750000	12.350000	61.910000	591.000000	0.000000	144.000000	58.000000	9.000000	-12.000000
0.760000	12.440000	61.780000	589.000000	0.000000	143.000000	59.000000	9.000000	-13.000000
0.770000	12.530000	61.650000	594.000000	0.000000	143.000000	59.000000	9.000000	-13.000000
0.780000	12.640000	61.560000	592.000000	0.000000	143.000000	59.000000	11.000000	-9.000000
0.790000	12.760000	61.490000	591.000000	0.000000	145.000000	59.000000	12.000000	-7.000000
0.800000	12.850000	61.430000	591.000000	0.000000	145.000000	59.000000	9.000000	-6.000000
0.810000	12.920000	61.430000	592.000000	0.000000	145.000000	59.000000	7.000000	0.000000
0.820000	12.990000	61.430000	591.000000	0.000000	145.000000	59.000000	7.000000	0.000000
0.830000	13.070000	61.500000	592.000000	0.000000	145.000000	59.000000	8.000000	7.000000
0.840000	13.170000	61.610000	589.000000	0.000000	145.000000	59.000000	10.000000	11.000000
0.850000	13.260000	61.720000	591.000000	0.000000	146.000000	60.000000	9.000000	11.000000
0.860000	13.370000	61.840000	595.000000	0.000000	146.000000	60.000000	11.000000	12.000000
0.870000	13.500000	61.980000	585.000000	0.000000	146.000000	60.000000	13.000000	14.000000
0.880000	13.610000	62.090000	586.000000	0.000000	146.000000	60.000000	11.000000	11.000000
0.890000	13.700000	62.190000	585.000000	0.000000	146.000000	60.000000	9.000000	10.000000
0.900000	13.790000	62.300000	585.000000	0.000000	148.000000	60.000000	9.000000	11.000000
0.910000	13.870000	62.490000	585.000000	0.000000	148.000000	60.000000	8.000000	19.000000
0.920000	13.960000	62.680000	595.000000	0.000000	148.000000	60.000000	9.000000	19.000000
0.930000	14.020000	62.940000	586.000000	0.000000	150.000000	60.000000	6.000000	26.000000
0.940000	14.090000	63.250000	574.000000	0.000000	151.000000	60.000000	7.000000	31.000000
0.950000	14.090000	63.640000	553.000000	0.000000	151.000000	60.000000	0.000000	39.000000
0.960000	14.090000	64.050000	554.000000	0.000000	150.000000	60.000000	0.000000	41.000000
0.970000	14.090000	64.480000	545.000000	0.000000	150.000000	60.000000	0.000000	43.000000
0.980000	14.040000	64.770000	553.000000	0.000000	150.000000	60.000000	-5.000000	29.000000
0.990000	13.970000	64.940000	560.000000	0.000000	148.000000	61.000000	-7.000000	17.000000
1.000000	13.920000	65.020000	569.000000	0.000000	148.000000	61.000000	-5.000000	8.000000
1.010000	13.870000	65.020000	580.000000	0.000000	148.000000	61.000000	-5.000000	0.000000
1.020000	13.870000	65.020000	580.000000	0.000000	148.000000	61.000000	0.000000	0.000000
1.030000	13.870000	65.020000	580.000000	0.000000	148.000000	61.000000	0.000000	0.000000
1.040000	13.870000	65.020000	581.000000	0.000000	148.000000	61.000000	0.000000	0.000000
1.050000	13.870000	64.930000	584.000000	0.000000	148.000000	61.000000	0.000000	-9.000000
1.060000	13.930000	64.770000	595.000000	0.000000	148.000000	61.000000	6.000000	-16.000000
1.070000	13.980000	64.460000	602.000000	0.000000	148.000000	61.000000	5.000000	-31.000000
1.080000	13.980000	64.060000	602.000000	0.000000	148.000000	61.000000	0.000000	-40.000000
1.090000	14.060000	63.710000	605.000000	0.000000	148.000000	61.000000	8.000000	-35.000000
1.100000	14.060000	63.340000	613.000000	0.000000	148.000000	61.000000	0.000000	-37.000000
1.110000	14.140000	62.920000	611.000000	0.000000	148.000000	61.000000	8.000000	-42.000000
1.120000	14.140000	62.600000	611.000000	0.000000	148.000000	61.000000	0.000000	-32.000000
1.130000	14.240000	62.350000	616.000000	0.000000	150.000000	60.000000	10.000000	-25.000000
1.140000	14.240000	62.140000	617.000000	0.000000	151.000000	61.000000	0.000000	-21.000000
1.150000	14.300000	62.000000	620.000000	0.000000	151.000000	61.000000	6.000000	-14.000000
1.160000	14.300000	61.920000	620.000000	0.000000	152.000000	60.000000	0.000000	-8.000000
1.170000	14.300000	61.920000	610.000000	0.000000	152.000000	60.000000	0.000000	0.000000
1.180000	14.390000	61.830000	610.000000	0.000000	152.000000	60.000000	9.000000	-9.000000
1.190000	14.500000	61.830000	613.000000	0.000000	151.000000	61.000000	11.000000	0.000000
1.200000	14.680000	61.900000	614.000000	0.000000	151.000000	61.000000	18.000000	7.000000
1.210000	14.870000	62.010000	592.000000	0.000000	151.000000	61.000000	19.000000	11.000000
1.220000	15.080000	62.130000	592.000000	0.000000	151.000000	61.000000	21.000000	12.000000
1.230000	15.270000	62.270000	578.000000	0.000000	150.000000	60.000000	19.000000	14.000000
1.240000	15.370000	62.390000	572.000000	0.000000	150.000000	60.000000	10.000000	12.000000
1.250000	15.370000	62.510000	569.000000	0.000000	151.000000	60.000000	0.000000	12.000000
1.260000	15.420000	62.650000	567.000000	0.000000	151.000000	60.000000	5.000000	14.000000
1.270000	15.420000	62.830000	551.000000	0.000000	151.000000	60.000000	0.000000	18.000000
1.280000	15.420000	63.010000	553.000000	0.000000	151.000000	60.000000	0.000000	18.000000
1.290000	15.420000	63.100000	556.000000	0.000000	151.000000	60.000000	0.000000	9.000000
1.300000	15.420000	63.160000	564.000000	0.000000	151.000000	60.000000	0.000000	6.000000
1.310000	15.420000	63.160000	565.000000	0.000000	152.000000	59.000000	0.000000	0.000000
1.320000	15.420000	63.090000	564.000000	0.000000	152.000000	59.000000	0.000000	-7.000000
1.330000	15.420000	62.940000	577.000000	0.000000	152.000000	59.000000	0.000000	-15.000000
1.340000	15.420000	62.730000	583.000000	0.000000	152.000000	59.000000	0.000000	-21.000000
1.350000	15.370000	62.500000	595.000000	0.000000	152.000000	59.000000	-5.000000	-23.000000
1.360000	15.370000	62.270000	586.000000	0.000000	151.000000	60.000000	0.000000	-23.000000
1.370000	15.370000	62.130000	589.000000	0.000000	151.000000	60.000000	0.000000	-14.000000
1.380000	15.450000	62.040000	586.000000	0.000000	151.000000	60.000000	8.000000	-9.000000
1.390000	15.570000	61.990000	589.000000	0.000000	151.000000	60.000000	12.000000	-5.000000
1.400000	15.730000	61.990000	581.000000	0.000000	151.000000	60.000000	16.000000	0.000000
1.410000	15.930000	61.990000	569.000000	0.000000	151.000000	60.000000	20.000000	0.000000
1.420000	16.150000	62.040000	560.000000	0.000000	150.000000	60.000000	22.000000	5.000000
1.430000	16.390000	62.110000	537.000000	0.000000	150.000000	60.000000	24.000000	7.000000
1.440000	16.630000	62.200000	538.000000	0.000000	150.000000	60.000000	24.000000	9.000000
1.450000	16.850000	62.350000	522.000000	0.000000	148.000000	60.000000	22.000000	15.000000
1.460000	17.020000	62.530000	517.000000	0.000000	148.000000	60.000000	17.000000	18.000000
1.470000	17.160000	62.720000	520.000000	0.000000	148.000000	60.000000	14.000000	19.000000
1.480000	17.300000	62.920000	512.000000	0.000000	148.000000	60.000000	14.000000	20.000000
1.490000	17.400000	63.090000	512.000000	0.000000	147.000000	61.000000	10.000000	17.000000
1.500000	17.480000	63.190000	519.000000	0.000000	147.000000	61.000000	8.000000	10.000000
1.510000	17.530000	63.260000	530.000000	0.000000	147.000000	61.000000	5.000000	7.000000
1.520000	17.530000	63.260000	546.000000	0.000000	148.000000	61.000000	0.000000	0.000000
1.530000	17.530000	63.260000	553.000000	0.000000	148.000000	61.000000	0.000000	0.000000
1.540000	17.530000	63.260000	562.000000	0.000000	148.000000	61.000000	0.000000	0.000000
1.550000	17.470000	63.260000	570.000000	0.000000	148.000000	61.000000	-6.000000	0.000000
1.560000	17.470000	63.190000	570.000000	0.000000	148.000000	61.000000	0.000000	-7.000000
1.570000	17.350000	63.110000	560.000000	0.000000	148.000000	61.000000	-12.000000	-8.000000
1.580000	17.240000	62.990000	570.000000	0.000000	148.000000	61.000000	-11.000000	-12.000000
1.590000	17.130000	62.830000	572.000000	0.000000	148.000000	61.000000	-11.000000	-16.000000
1.600000	17.040000	62.590000	572.000000	0.000000	150.000000	60.000000	-9.000000	-24.000000
1.610000	16.980000	62.350000	577.000000	0.000000	150.000000	60.000000	-6.000000	-24.000000
1.620000	16.980000	62.120000	572.000000	0.000000	148.000000	61.000000	0.000000	-23.000000
1.630000	16.980000	61.930000	561.000000	0.000000	148.000000	61.000000	0.000000	-19.000000
1.640000	17.110000	61.790000	565.000000	0.000000	148.000000	61.000000	13.000000	-14.000000
1.650000	17.280000	61.680000	551.000000	0.000000	148.000000	61.000000	17.000000	-11.000000
1.660000	17.490000	61.680000	537.000000	0.000000	148.000000	61.000000	21.000000	0.000000
1.670000	17.730000	61.780000	538.000000	0.000000	148.000000	61.000000	24.000000	10.000000
1.680000	18.000000	61.970000	532.000000	0.000000	148.000000	61.000000	27.000000	19.000000
1.690000	18.280000	62.180000	522.000000	0.000000	148.000000	61.000000	28.000000	21.000000
1.700000	18.460000	62.380000	522.000000	0.000000	148.000000	61.000000	18.000000	20.000000
1.710000	18.580000	62.540000	521.000000	0.000000	148.000000	61.000000	12.000000	16.000000
1.720000	18.650000	62.660000	535.000000	0.000000	148.000000	61.000000	7.000000	12.000000
1.730000	18.650000	62.730000	546.000000	0.000000	150.000000	62.000000	0.000000	7.000000
1.740000	18.650000	62.730000	542.000000	0.000000	150.000000	62.000000	0.000000	0.000000
1.750000	18.650000	62.730000	546.000000	0.000000	150.000000	62.000000	0.000000	0.000000
1.760000	18.650000	62.780000	545.000000	0.000000	150.000000	62.000000	0.000000	5.000000
1.770000	18.650000	62.780000	548.000000	0.000000	150.000000	62.000000	0.000000	0.000000
1.780000	18.710000	62.780000	553.000000	0.000000	151.000000	61.000000	6.000000	0.000000
1.790000	18.710000	62.780000	565.000000	0.000000	151.000000	61.000000	0.000000	0.000000
1.800000	18.660000	62.670000	572.000000	0.000000	151.000000	61.000000	-5.000000	-11.000000
1.810000	18.660000	62.540000	580.000000	0.000000	151.000000	61.000000	0.000000	-13.000000
1.820000	18.560000	62.380000	589.000000	0.000000	151.000000	61.000000	-10.000000	-16.000000
1.830000	18.560000	62.220000	592.000000	0.000000	150.000000	62.000000	0.000000	-16.000000
1.840000	18.560000	62.080000	592.000000	0.000000	150.000000	62.000000	0.000000	-14.000000
1.850000	18.620000	61.960000	581.000000	0.000000	150.000000	62.000000	6.000000	-12.000000
1.860000	18.720000	61.850000	567.000000	0.000000	150.000000	62.000000	10.000000	-11.000000
1.870000	18.850000	61.800000	563.000000	0.000000	150.000000	62.000000	13.000000	-5.000000
1.880000	19.090000	61.800000	565.000000	0.000000	150.000000	62.000000	24.000000	0.000000
1.890000	19.410000	61.850000	550.000000	0.000000	150.000000	62.000000	32.000000	5.000000
1.900000	19.710000	61.940000	535.000000	0.000000	150.000000	62.000000	30.000000	9.000000
1.910000	20.020000	62.050000	514.000000	0.000000	150.000000	62.000000	31.000000	11.000000
1.920000	20.260000	62.130000	463.000000	0.000000	152.000000	62.000000	24.000000	8.000000
1.930000	20.450000	62.220000	445.000000	0.000000	152.000000	62.000000	19.000000	9.000000
1.940000	20.590000	62.300000	445.000000	0.000000	152.000000	62.000000	14.000000	8.000000
1.950000	20.700000	62.390000	460.000000	0.000000	152.000000	62.000000	11.000000	9.000000
1.960000	20.800000	62.470000	486.000000	0.000000	152.000000	62.000000	10.000000	8.000000
1.970000	20.860000	62.550000	507.000000	0.000000	152.000000	62.000000	6.000000	8.000000
1.980000	20.940000	62.610000	535.000000	0.000000	152.000000	62.000000	8.000000	6.000000
1.990000	21.050000	62.680000	546.000000	0.000000	155.000000	62.000000	11.000000	7.000000
2.000000	21.130000	62.740000	565.000000	0.000000	155.000000	62.000000	8.000000	6.000000
2.010000	21.190000	62.800000	569.000000	0.000000	155.000000	62.000000	6.000000	6.000000
2.020000	21.190000	62.800000	586.000000	0.000000	155.000000	62.000000	0.000000	0.000000
2.030000	21.140000	62.800000	584.000000	0.000000	155.000000	62.000000	-5.000000	0.000000
2.040000	21.070000	62.800000	578.000000	0.000000	155.000000	62.000000	-7.000000	0.000000
2.050000	21.010000	62.800000	577.000000	0.000000	155.000000	62.000000	-6.000000	0.000000
2.060000	20.880000	62.720000	567.000000	0.000000	155.000000	62.000000	-13.000000	-8.000000
2.070000	20.690000	62.650000	569.000000	0.000000	155.000000	62.000000	-19.000000	-7.000000
2.080000	20.550000	62.540000	570.000000	0.000000	155.000000	62.000000	-14.000000	-11.000000
2.090000	20.410000	62.410000	578.000000	0.000000	155.000000	62.000000	-14.000000	-13.000000
2.100000	20.300000	62.270000	578.000000	0.000000	155.000000	62.000000	-11.000000	-14.000000
2.110000	20.240000	62.140000	569.000000	0.000000	155.000000	62.000000	-6.000000	-13.000000
2.120000	20.240000	62.040000	561.000000	0.000000	153.000000	61.000000	0.000000	-10.000000
2.130000	20.350000	61.950000	570.000000	0.000000	153.000000	61.000000	11.000000	-9.000000
2.140000	20.520000	61.890000	565.000000	0.000000	153.000000	61.000000	17.000000	-6.000000
2.150000	20.750000	61.890000	567.000000	0.000000	152.000000	62.000000	23.000000	0.000000
2.160000	21.010000	61.960000	567.000000	0.000000	152.000000	62.000000	26.000000	7.000000
2.170000	21.220000	62.050000	570.000000	0.000000	152.000000	62.000000	21.000000	9.000000
2.180000	21.400000	62.180000	560.000000	0.000000	154.000000	63.000000	18.000000	13.000000
2.190000	21.580000	62.340000	567.000000	0.000000	154.000000	63.000000	18.000000	16.000000
2.200000	21.670000	62.450000	561.000000	0.000000	154.000000	63.000000	9.000000	11.000000
2.210000	21.670000	62.520000	562.000000	0.000000	154.000000	63.000000	0.000000	7.000000
