t	x	y	pressure	penup	azimuth	inclination	v_x	v_y
0.000000	11.590000	82.070000	68.000000	1.000000	178.000000	61.000000	0.000000	0.000000
0.010000	11.590000	82.070000	180.000000	0.000000	176.000000	61.000000	0.000000	0.000000
0.020000	11.320000	82.070000	287.000000	0.000000	176.000000	61.000000	-27.000000	0.000000
0.030000	11.320000	82.070000	364.000000	0.000000	176.000000	61.000000	0.000000	0.000000
0.040000	11.320000	82.070000	438.000000	0.000000	176.000000	61.000000	0.000000	0.000000
0.050000	11.320000	82.070000	496.000000	0.000000	176.000000	61.000000	0.000000	0.000000
0.060000	11.430000	82.070000	556.000000	0.000000	177.000000	60.000000	11.000000	0.000000
0.070000	11.590000	82.070000	620.000000	0.000000	175.000000	60.000000	16.000000	0.000000
0.080000	11.820000	82.070000	662.000000	0.000000	175.000000	60.000000	23.000000	0.000000
0.090000	12.110000	82.070000	697.000000	0.000000	175.000000	60.000000	29.000000	0.000000
0.100000	12.370000	82.070000	727.000000	0.000000	175.000000	60.000000	26.000000	0.000000
0.110000	12.600000	82.070000	731.000000	0.000000	175.000000	60.000000	23.000000	0.000000
0.120000	12.800000	82.240000	749.000000	0.000000	173.000000	60.000000	20.000000	17.000000
0.130000	12.980000	82.410000	771.000000	0.000000	173.000000	60.000000	18.000000	17.000000
0.140000	13.060000	82.560000	785.000000	0.000000	173.000000	60.000000	8.000000	15.000000
0.150000	13.060000	82.680000	788.000000	0.000000	175.000000	60.000000	0.000000	12.000000
0.160000	13.060000	82.800000	790.000000	0.000000	175.000000	60.000000	0.000000	12.000000
0.170000	12.960000	82.900000	788.000000	0.000000	175.000000	60.000000	-10.000000	10.000000
0.180000	12.760000	82.980000	787.000000	0.000000	175.000000	60.000000	-20.000000	8.000000
0.190000	12.460000	82.980000	790.000000	0.000000	175.000000	59.000000	-30.000000	0.000000
0.200000	12.280000	82.980000	787.000000	0.000000	175.000000	59.000000	-18.000000	0.000000
0.210000	12.100000	82.920000	787.000000	0.000000	175.000000	59.000000	-18.000000	-6.000000
0.220000	11.910000	82.800000	788.000000	0.000000	175.000000	59.000000	-19.000000	-12.000000
0.230000	11.720000	82.610000	790.000000	0.000000	175.000000	59.000000	-19.000000	-19.000000
0.240000	11.570000	82.420000	785.000000	0.000000	175.000000	59.000000	-15.000000	-19.000000
0.250000	11.490000	82.240000	776.000000	0.000000	175.000000	60.000000	-8.000000	-18.000000
0.260000	11.490000	81.940000	768.000000	0.000000	175.000000	60.000000	0.000000	-30.000000
0.270000	11.490000	81.620000	757.000000	0.000000	175.000000	60.000000	0.000000	-32.000000
0.280000	11.490000	81.270000	754.000000	0.000000	173.000000	60.000000	0.000000	-35.000000
0.290000	11.490000	80.920000	743.000000	0.000000	173.000000	60.000000	0.000000	-35.000000
0.300000	11.600000	80.570000	730.000000	0.000000	173.000000	60.000000	11.000000	-35.000000
0.310000	11.690000	80.280000	719.000000	0.000000	173.000000	61.000000	9.000000	-29.000000
0.320000	11.740000	80.030000	713.000000	0.000000	173.000000	61.000000	5.000000	-25.000000
0.330000	11.740000	79.830000	699.000000	0.000000	173.000000	61.000000	0.000000	-20.000000
0.340000	11.680000	79.670000	688.000000	0.000000	173.000000	62.000000	-6.000000	-16.000000
0.350000	11.520000	79.550000	668.000000	0.000000	173.000000	62.000000	-16.000000	-12.000000
0.360000	11.270000	79.500000	655.000000	0.000000	173.000000	62.000000	-25.000000	-5.000000
0.370000	11.000000	79.500000	650.000000	0.000000	173.000000	62.000000	-27.000000	0.000000
0.380000	10.720000	79.600000	659.000000	0.000000	173.000000	62.000000	-28.000000	10.000000
0.390000	10.570000	79.730000	662.000000	0.000000	172.000000	63.000000	-15.000000	13.000000
0.400000	10.430000	79.970000	670.000000	0.000000	172.000000	63.000000	-14.000000	24.000000
0.410000	10.360000	80.290000	667.000000	0.000000	172.000000	63.000000	-7.000000	32.000000
0.420000	10.360000	80.520000	673.000000	0.000000	172.000000	63.000000	0.000000	23.000000
0.430000	10.420000	80.720000	697.000000	0.000000	172.000000	63.000000	6.000000	20.000000
0.440000	10.470000	80.850000	690.000000	0.000000	172.000000	63.000000	5.000000	13.000000
0.450000	10.550000	80.900000	702.000000	0.000000	173.000000	62.000000	8.000000	5.000000
0.460000	10.630000	80.900000	702.000000	0.000000	173.000000	62.000000	8.000000	0.000000
0.470000	10.730000	80.900000	699.000000	0.000000	173.000000	62.000000	10.000000	0.000000
0.480000	10.860000	80.830000	696.000000	0.000000	173.000000	62.000000	13.000000	-7.000000
0.490000	11.010000	80.710000	696.000000	0.000000	173.000000	62.000000	15.000000	-12.000000
0.500000	11.200000	80.540000	688.000000	0.000000	173.000000	62.000000	19.000000	-17.000000
0.510000	11.410000	80.350000	685.000000	0.000000	173.000000	62.000000	21.000000	-19.000000
0.520000	11.660000	80.130000	669.000000	0.000000	173.000000	62.000000	25.000000	-22.000000
0.530000	11.990000	79.920000	667.000000	0.000000	173.000000	62.000000	33.000000	-21.000000
0.540000	12.380000	79.820000	666.000000	0.000000	171.000000	62.000000	39.000000	-10.000000
0.550000	12.800000	79.820000	670.000000	0.000000	171.000000	62.000000	42.000000	0.000000
0.560000	13.210000	79.820000	670.000000	0.000000	171.000000	62.000000	41.000000	0.000000
0.570000	13.470000	79.950000	673.000000	0.000000	171.000000	62.000000	26.000000	13.000000
0.580000	13.650000	80.160000	690.000000	0.000000	173.000000	62.000000	18.000000	21.000000
0.590000	13.650000	80.360000	690.000000	0.000000	173.000000	62.000000	0.000000	20.000000
0.600000	13.650000	80.610000	697.000000	0.000000	173.000000	62.000000	0.000000	25.000000
0.610000	13.580000	80.890000	697.000000	0.000000	173.000000	62.000000	-7.000000	28.000000
0.620000	13.340000	81.070000	696.000000	0.000000	173.000000	62.000000	-24.000000	18.000000
0.630000	13.080000	81.190000	697.000000	0.000000	173.000000	62.000000	-26.000000	12.000000
0.640000	12.800000	81.190000	696.000000	0.000000	173.000000	62.000000	-28.000000	0.000000
0.650000	12.610000	81.100000	690.000000	0.000000	173.000000	62.000000	-19.000000	-9.000000
0.660000	12.450000	80.950000	696.000000	0.000000	173.000000	61.000000	-16.000000	-15.000000
0.670000	12.380000	80.720000	691.000000	0.000000	173.000000	61.000000	-7.000000	-23.000000
0.680000	12.380000	80.470000	688.000000	0.000000	173.000000	61.000000	0.000000	-25.000000
0.690000	12.460000	80.180000	691.000000	0.000000	173.000000	62.000000	8.000000	-29.000000
0.700000	12.670000	79.940000	687.000000	0.000000	173.000000	62.000000	21.000000	-24.000000
0.710000	12.980000	79.730000	684.000000	0.000000	171.000000	62.000000	31.000000	-21.000000
0.720000	13.320000	79.590000	666.000000	0.000000	171.000000	62.000000	34.000000	-14.000000
0.730000	13.650000	79.520000	619.000000	0.000000	171.000000	62.000000	33.000000	-7.000000
0.740000	13.990000	79.520000	453.000000	0.000000	173.000000	62.000000	34.000000	0.000000
0.750000	14.250000	79.580000	113.000000	0.000000	173.000000	62.000000	26.000000	6.000000
0.760000	14.250000	79.580000	0.000000	1.000000	173.000000	62.000000	0.000000	0.000000
0.770000	14.670000	79.910000	0.000000	0.000000	174.000000	62.000000	42.000000	33.000000
0.780000	14.850000	80.230000	0.000000	0.000000	174.000000	62.000000	18.000000	32.000000
0.790000	15.020000	80.510000	0.000000	0.000000	174.000000	62.000000	17.000000	28.000000
0.800000	15.120000	80.730000	0.000000	0.000000	176.000000	62.000000	10.000000	22.000000
0.810000	15.120000	80.930000	0.000000	0.000000	178.000000	62.000000	0.000000	20.000000
0.820000	15.120000	81.110000	0.000000	0.000000	178.000000	62.000000	0.000000	18.000000
0.830000	15.020000	81.290000	0.000000	0.000000	180.000000	62.000000	-10.000000	18.000000
0.840000	14.960000	81.440000	0.000000	0.000000	180.000000	62.000000	-6.000000	15.000000
0.850000	14.960000	81.440000	143.000000	1.000000	180.000000	62.000000	0.000000	0.000000
0.860000	14.960000	81.440000	284.000000	0.000000	180.000000	61.000000	0.000000	0.000000
0.870000	14.860000	81.730000	431.000000	0.000000	180.000000	61.000000	-10.000000	29.000000
0.880000	14.790000	81.730000	502.000000	0.000000	180.000000	61.000000	-7.000000	0.000000
0.890000	14.710000	81.730000	553.000000	0.000000	180.000000	61.000000	-8.000000	0.000000
0.900000	14.620000	81.610000	572.000000	0.000000	180.000000	60.000000	-9.000000	-12.000000
0.910000	14.560000	81.450000	614.000000	0.000000	178.000000	60.000000	-6.000000	-16.000000
0.920000	14.560000	81.260000	624.000000	0.000000	178.000000	60.000000	0.000000	-19.000000
0.930000	14.610000	81.020000	633.000000	0.000000	178.000000	60.000000	5.000000	-24.000000
0.940000	14.660000	80.780000	642.000000	0.000000	178.000000	60.000000	5.000000	-24.000000
0.950000	14.710000	80.510000	636.000000	0.000000	178.000000	61.000000	5.000000	-27.000000
0.960000	14.780000	80.230000	636.000000	0.000000	178.000000	61.000000	7.000000	-28.000000
0.970000	14.900000	79.990000	638.000000	0.000000	178.000000	61.000000	12.000000	-24.000000
0.980000	15.050000	79.780000	636.000000	0.000000	178.000000	61.000000	15.000000	-21.000000
0.990000	15.240000	79.630000	637.000000	0.000000	178.000000	62.000000	19.000000	-15.000000
1.000000	15.470000	79.570000	647.000000	0.000000	178.000000	62.000000	23.000000	-6.000000
1.010000	15.750000	79.570000	636.000000	0.000000	180.000000	62.000000	28.000000	0.000000
1.020000	16.040000	79.570000	647.000000	0.000000	180.000000	62.000000	29.000000	0.000000
1.030000	16.360000	79.700000	642.000000	0.000000	180.000000	62.000000	32.000000	13.000000
1.040000	16.600000	79.860000	641.000000	0.000000	180.000000	62.000000	24.000000	16.000000
1.050000	16.770000	80.030000	639.000000	0.000000	180.000000	62.000000	17.000000	17.000000
1.060000	16.890000	80.210000	641.000000	0.000000	180.000000	62.000000	12.000000	18.000000
1.070000	16.960000	80.400000	645.000000	0.000000	180.000000	62.000000	7.000000	19.000000
1.080000	16.960000	80.550000	641.000000	0.000000	180.000000	61.000000	0.000000	15.000000
1.090000	17.010000	80.680000	656.000000	0.000000	180.000000	61.000000	5.000000	13.000000
1.100000	17.010000	80.780000	670.000000	0.000000	180.000000	61.000000	0.000000	10.000000
1.110000	17.010000	80.860000	666.000000	0.000000	180.000000	61.000000	0.000000	8.000000
1.120000	16.920000	80.860000	667.000000	0.000000	180.000000	61.000000	-9.000000	0.000000
1.130000	16.920000	80.860000	663.000000	0.000000	178.000000	61.000000	0.000000	0.000000
1.140000	16.920000	80.780000	663.000000	0.000000	178.000000	60.000000	0.000000	-8.000000
1.150000	16.870000	80.680000	673.000000	0.000000	178.000000	60.000000	-5.000000	-10.000000
1.160000	16.870000	80.520000	664.000000	0.000000	178.000000	61.000000	0.000000	-16.000000
1.170000	16.870000	80.310000	652.000000	0.000000	178.000000	61.000000	0.000000	-21.000000
1.180000	16.930000	80.110000	652.000000	0.000000	178.000000	61.000000	6.000000	-20.000000
1.190000	17.060000	79.930000	646.000000	0.000000	178.000000	61.000000	13.000000	-18.000000
1.200000	17.220000	79.780000	650.000000	0.000000	178.000000	61.000000	16.000000	-15.000000
1.210000	17.460000	79.620000	652.000000	0.000000	180.000000	61.000000	24.000000	-16.000000
1.220000	17.710000	79.550000	650.000000	0.000000	180.000000	61.000000	25.000000	-7.000000
1.230000	17.960000	79.550000	652.000000	0.000000	180.000000	61.000000	25.000000	0.000000
1.240000	18.120000	79.550000	652.000000	0.000000	180.000000	61.000000	16.000000	0.000000
1.250000	18.260000	79.690000	650.000000	0.000000	182.000000	61.000000	14.000000	14.000000
1.260000	18.370000	79.840000	650.000000	0.000000	182.000000	61.000000	11.000000	15.000000
1.270000	18.430000	80.040000	655.000000	0.000000	182.000000	61.000000	6.000000	20.000000
1.280000	18.430000	80.230000	653.000000	0.000000	184.000000	61.000000	0.000000	19.000000
1.290000	18.430000	80.410000	655.000000	0.000000	184.000000	61.000000	0.000000	18.000000
1.300000	18.490000	80.580000	656.000000	0.000000	184.000000	61.000000	6.000000	17.000000
1.310000	18.540000	80.700000	655.000000	0.000000	184.000000	61.000000	5.000000	12.000000
1.320000	18.540000	80.700000	652.000000	0.000000	185.000000	61.000000	0.000000	0.000000
1.330000	18.620000	80.770000	650.000000	0.000000	185.000000	61.000000	8.000000	7.000000
1.340000	18.680000	80.770000	650.000000	0.000000	185.000000	61.000000	6.000000	0.000000
1.350000	18.750000	80.770000	643.000000	0.000000	185.000000	60.000000	7.000000	0.000000
1.360000	18.950000	80.770000	640.000000	0.000000	185.000000	60.000000	20.000000	0.000000
1.370000	19.270000	80.820000	643.000000	0.000000	185.000000	60.000000	32.000000	5.000000
1.380000	19.660000	80.820000	638.000000	0.000000	185.000000	60.000000	39.000000	0.000000
1.390000	19.940000	80.880000	641.000000	0.000000	185.000000	60.000000	28.000000	6.000000
1.400000	20.030000	80.880000	659.000000	0.000000	185.000000	60.000000	9.000000	0.000000
1.410000	20.030000	80.880000	664.000000	0.000000	185.000000	60.000000	0.000000	0.000000
1.420000	19.910000	80.880000	669.000000	0.000000	185.000000	60.000000	-12.000000	0.000000
1.430000	19.810000	80.880000	667.000000	0.000000	185.000000	60.000000	-10.000000	0.000000
1.440000	19.570000	80.880000	667.000000	0.000000	185.000000	60.000000	-24.000000	0.000000
1.450000	19.230000	80.880000	669.000000	0.000000	185.000000	60.000000	-34.000000	0.000000
1.460000	19.060000	80.780000	669.000000	0.000000	185.000000	60.000000	-17.000000	-10.000000
1.470000	18.880000	80.680000	664.000000	0.000000	185.000000	60.000000	-18.000000	-10.000000
1.480000	18.780000	80.540000	671.000000	0.000000	185.000000	60.000000	-10.000000	-14.000000
1.490000	18.730000	80.390000	668.000000	0.000000	185.000000	60.000000	-5.000000	-15.000000
1.500000	18.730000	80.270000	670.000000	0.000000	185.000000	60.000000	0.000000	-12.000000
1.510000	18.870000	80.160000	671.000000	0.000000	185.000000	60.000000	14.000000	-11.000000
1.520000	19.030000	80.070000	671.000000	0.000000	185.000000	60.000000	16.000000	-9.000000
1.530000	19.220000	79.950000	670.000000	0.000000	185.000000	60.000000	19.000000	-12.000000
1.540000	19.410000	79.870000	670.000000	0.000000	185.000000	60.000000	19.000000	-8.000000
1.550000	19.590000	79.820000	673.000000	0.000000	185.000000	60.000000	18.000000	-5.000000
1.560000	19.840000	79.820000	662.000000	0.000000	185.000000	61.000000	25.000000	0.000000
1.570000	20.130000	79.820000	673.000000	0.000000	185.000000	61.000000	29.000000	0.000000
1.580000	20.400000	79.820000	671.000000	0.000000	185.000000	61.000000	27.000000	0.000000
1.590000	20.620000	79.890000	671.000000	0.000000	185.000000	61.000000	22.000000	7.000000
1.600000	20.770000	79.980000	667.000000	0.000000	185.000000	61.000000	15.000000	9.000000
1.610000	20.850000	80.080000	671.000000	0.000000	185.000000	61.000000	8.000000	10.000000
1.620000	20.850000	80.190000	666.000000	0.000000	185.000000	61.000000	0.000000	11.000000
1.630000	20.850000	80.270000	666.000000	0.000000	185.000000	61.000000	0.000000	8.000000
1.640000	20.780000	80.360000	672.000000	0.000000	185.000000	61.000000	-7.000000	9.000000
1.650000	20.710000	80.460000	673.000000	0.000000	185.000000	60.000000	-7.000000	10.000000
1.660000	20.650000	80.460000	672.000000	0.000000	185.000000	60.000000	-6.000000	0.000000
1.670000	20.650000	80.460000	673.000000	0.000000	185.000000	60.000000	0.000000	0.000000
1.680000	20.650000	80.460000	666.000000	0.000000	185.000000	60.000000	0.000000	0.000000
1.690000	20.650000	80.360000	673.000000	0.000000	185.000000	60.000000	0.000000	-10.000000
1.700000	20.650000	80.260000	671.000000	0.000000	185.000000	60.000000	0.000000	-10.000000
1.710000	20.710000	80.130000	670.000000	0.000000	185.000000	60.000000	6.000000	-13.000000
1.720000	20.840000	80.020000	670.000000	0.000000	185.000000	60.000000	13.000000	-11.000000
1.730000	21.000000	79.900000	673.000000	0.000000	185.000000	60.000000	16.000000	-12.000000
1.740000	21.180000	79.820000	671.000000	0.000000	185.000000	60.000000	18.000000	-8.000000
1.750000	21.440000	79.750000	666.000000	0.000000	185.000000	60.000000	26.000000	-7.000000
1.760000	21.700000	79.750000	671.000000	0.000000	185.000000	60.000000	26.000000	0.000000
1.770000	21.950000	79.750000	664.000000	0.000000	185.000000	60.000000	25.000000	0.000000
1.780000	22.210000	79.840000	673.000000	0.000000	183.000000	60.000000	26.000000	9.000000
1.790000	22.330000	79.960000	671.000000	0.000000	183.000000	60.000000	12.000000	12.000000
1.800000	22.330000	80.120000	668.000000	0.000000	183.000000	60.000000	0.000000	16.000000
1.810000	22.330000	80.300000	671.000000	0.000000	183.000000	60.000000	0.000000	18.000000
1.820000	22.210000	80.480000	667.000000	0.000000	183.000000	60.000000	-12.000000	18.000000
1.830000	22.210000	80.660000	667.000000	0.000000	183.000000	60.000000	0.000000	18.000000
1.840000	22.210000	80.790000	669.000000	0.000000	183.000000	60.000000	0.000000	13.000000
1.850000	22.290000	80.890000	669.000000	0.000000	183.000000	60.000000	8.000000	10.000000
1.860000	22.410000	80.940000	666.000000	0.000000	183.000000	60.000000	12.000000	5.000000
1.870000	22.580000	80.990000	664.000000	0.000000	182.000000	60.000000	17.000000	5.000000
1.880000	22.720000	80.990000	664.000000	0.000000	182.000000	59.000000	14.000000	0.000000
1.890000	22.920000	80.990000	664.000000	0.000000	182.000000	59.000000	20.000000	0.000000
1.900000	23.170000	80.990000	672.000000	0.000000	182.000000	59.000000	25.000000	0.000000
1.910000	23.350000	80.990000	676.000000	0.000000	182.000000	59.000000	18.000000	0.000000
1.920000	23.500000	80.990000	676.000000	0.000000	182.000000	59.000000	15.000000	0.000000
1.930000	23.590000	80.990000	694.000000	0.000000	182.000000	59.000000	9.000000	0.000000
1.940000	23.590000	80.990000	702.000000	0.000000	182.000000	59.000000	0.000000	0.000000
1.950000	23.590000	81.040000	691.000000	0.000000	182.000000	59.000000	0.000000	5.000000
1.960000	23.450000	81.040000	696.000000	0.000000	182.000000	59.000000	-14.000000	0.000000
1.970000	23.210000	81.040000	696.000000	0.000000	182.000000	59.000000	-24.000000	0.000000
1.980000	22.870000	80.920000	693.000000	0.000000	182.000000	59.000000	-34.000000	-12.000000
1.990000	22.700000	80.800000	691.000000	0.000000	182.000000	59.000000	-17.000000	-12.000000
2.000000	22.580000	80.670000	690.000000	0.000000	182.000000	59.000000	-12.000000	-13.000000
2.010000	22.490000	80.510000	696.000000	0.000000	182.000000	59.000000	-9.000000	-16.000000
2.020000	22.490000	80.350000	696.000000	0.000000	182.000000	59.000000	0.000000	-16.000000
2.030000	22.610000	80.170000	697.000000	0.000000	182.000000	59.000000	12.000000	-18.000000
2.040000	22.760000	80.000000	697.000000	0.000000	182.000000	59.000000	15.000000	-17.000000
2.050000	22.920000	79.870000	702.000000	0.000000	182.000000	60.000000	16.000000	-13.000000
2.060000	23.160000	79.770000	702.000000	0.000000	182.000000	60.000000	24.000000	-10.000000
2.070000	23.460000	79.770000	690.000000	0.000000	182.000000	60.000000	30.000000	0.000000
2.080000	23.770000	79.770000	700.000000	0.000000	182.000000	60.000000	31.000000	0.000000
2.090000	24.070000	79.770000	700.000000	0.000000	182.000000	60.000000	30.000000	0.000000
2.100000	24.350000	79.960000	703.000000	0.000000	182.000000	60.000000	28.000000	19.000000
2.110000	24.520000	80.110000	710.000000	0.000000	182.000000	60.000000	17.000000	15.000000
2.120000	24.520000	80.250000	707.000000	0.000000	180.000000	60.000000	0.000000	14.000000
2.130000	24.460000	80.410000	710.000000	0.000000	180.000000	60.000000	-6.000000	16.000000
2.140000	24.340000	80.530000	711.000000	0.000000	180.000000	60.000000	-12.000000	12.000000
2.150000	24.210000	80.580000	710.000000	0.000000	180.000000	60.000000	-13.000000	5.000000
2.160000	24.080000	80.580000	707.000000	0.000000	180.000000	60.000000	-13.000000	0.000000
2.170000	24.080000	80.580000	699.000000	0.000000	180.000000	59.000000	0.000000	0.000000
2.180000	24.140000	80.530000	697.000000	0.000000	180.000000	59.000000	6.000000	-5.000000
2.190000	24.140000	80.430000	700.000000	0.000000	180.000000	59.000000	0.000000	-10.000000
2.200000	24.250000	80.320000	705.000000	0.000000	180.000000	59.000000	11.000000	-11.000000
2.210000	24.360000	80.190000	708.000000	0.000000	180.000000	59.000000	11.000000	-13.000000
