t	x	y	pressure	penup	azimuth	inclination	v_x	v_y
0.000000	48.800000	44.560000	171.000000	1.000000	172.000000	58.000000	0.000000	0.000000
0.010000	48.800000	44.560000	247.000000	0.000000	172.000000	59.000000	0.000000	0.000000
0.020000	48.800000	44.560000	339.000000	0.000000	170.000000	59.000000	0.000000	0.000000
0.030000	48.800000	44.560000	407.000000	0.000000	170.000000	60.000000	0.000000	0.000000
0.040000	48.800000	44.560000	460.000000	0.000000	168.000000	59.000000	0.000000	0.000000
0.050000	48.800000	44.560000	497.000000	0.000000	168.000000	59.000000	0.000000	0.000000
0.060000	49.090000	44.360000	544.000000	0.000000	166.000000	59.000000	29.000000	-20.000000
0.070000	49.250000	44.290000	586.000000	0.000000	166.000000	59.000000	16.000000	-7.000000
0.080000	49.450000	44.240000	634.000000	0.000000	166.000000	59.000000	20.000000	-5.000000
0.090000	49.710000	44.240000	634.000000	0.000000	166.000000	59.000000	26.000000	0.000000
0.100000	49.980000	44.240000	644.000000	0.000000	166.000000	59.000000	27.000000	0.000000
0.110000	50.220000	44.340000	662.000000	0.000000	166.000000	59.000000	24.000000	10.000000
0.120000	50.410000	44.490000	679.000000	0.000000	166.000000	59.000000	19.000000	15.000000
0.130000	50.610000	44.700000	697.000000	0.000000	168.000000	59.000000	20.000000	21.000000
0.140000	50.680000	44.860000	730.000000	0.000000	168.000000	59.000000	7.000000	16.000000
0.150000	50.680000	45.030000	725.000000	0.000000	168.000000	59.000000	0.000000	17.000000
0.160000	50.610000	45.190000	740.000000	0.000000	168.000000	59.000000	-7.000000	16.000000
0.170000	50.510000	45.350000	749.000000	0.000000	168.000000	59.000000	-10.000000	16.000000
0.180000	50.380000	45.420000	740.000000	0.000000	168.000000	59.000000	-13.000000	7.000000
0.190000	50.050000	45.480000	739.000000	0.000000	168.000000	59.000000	-33.000000	6.000000
0.200000	49.790000	45.530000	730.000000	0.000000	168.000000	59.000000	-26.000000	5.000000
0.210000	49.580000	45.450000	730.000000	0.000000	168.000000	59.000000	-21.000000	-8.000000
0.220000	49.390000	45.290000	721.000000	0.000000	168.000000	59.000000	-19.000000	-16.000000
0.230000	49.230000	45.090000	733.000000	0.000000	168.000000	59.000000	-16.000000	-20.000000
0.240000	49.140000	44.860000	728.000000	0.000000	168.000000	59.000000	-9.000000	-23.000000
0.250000	49.140000	44.590000	720.000000	0.000000	168.000000	59.000000	0.000000	-27.000000
0.260000	49.140000	44.270000	721.000000	0.000000	168.000000	59.000000	0.000000	-32.000000
0.270000	49.270000	43.940000	722.000000	0.000000	168.000000	59.000000	13.000000	-33.000000
0.280000	49.420000	43.580000	725.000000	0.000000	166.000000	59.000000	15.000000	-36.000000
0.290000	49.590000	43.200000	725.000000	0.000000	166.000000	59.000000	17.000000	-38.000000
0.300000	49.710000	42.830000	727.000000	0.000000	166.000000	59.000000	12.000000	-37.000000
0.310000	49.800000	42.550000	727.000000	0.000000	167.000000	58.000000	9.000000	-28.000000
0.320000	49.850000	42.340000	724.000000	0.000000	168.000000	58.000000	5.000000	-21.000000
0.330000	49.850000	42.120000	731.000000	0.000000	168.000000	58.000000	0.000000	-22.000000
0.340000	49.730000	41.950000	727.000000	0.000000	168.000000	58.000000	-12.000000	-17.000000
0.350000	49.530000	41.820000	719.000000	0.000000	169.000000	58.000000	-20.000000	-13.000000
0.360000	49.300000	41.760000	719.000000	0.000000	169.000000	58.000000	-23.000000	-6.000000
0.370000	49.040000	41.700000	719.000000	0.000000	169.000000	58.000000	-26.000000	-6.000000
0.380000	48.820000	41.700000	719.000000	0.000000	167.000000	57.000000	-22.000000	0.000000
0.390000	48.630000	41.840000	724.000000	0.000000	167.000000	57.000000	-19.000000	14.000000
0.400000	48.500000	42.020000	724.000000	0.000000	167.000000	57.000000	-13.000000	18.000000
0.410000	48.410000	42.260000	727.000000	0.000000	167.000000	57.000000	-9.000000	24.000000
0.420000	48.410000	42.550000	721.000000	0.000000	166.000000	57.000000	0.000000	29.000000
0.430000	48.410000	42.760000	722.000000	0.000000	166.000000	57.000000	0.000000	21.000000
0.440000	48.520000	42.940000	724.000000	0.000000	165.000000	58.000000	11.000000	18.000000
0.450000	48.700000	43.080000	728.000000	0.000000	165.000000	58.000000	18.000000	14.000000
0.460000	48.830000	43.160000	728.000000	0.000000	165.000000	58.000000	13.000000	8.000000
0.470000	48.910000	43.160000	728.000000	0.000000	165.000000	58.000000	8.000000	0.000000
0.480000	48.910000	43.100000	727.000000	0.000000	165.000000	58.000000	0.000000	-6.000000
0.490000	48.960000	43.030000	727.000000	0.000000	165.000000	58.000000	5.000000	-7.000000
0.500000	49.030000	42.870000	727.000000	0.000000	165.000000	58.000000	7.000000	-16.000000
0.510000	49.150000	42.640000	727.000000	0.000000	165.000000	58.000000	12.000000	-23.000000
0.520000	49.150000	42.640000	725.000000	0.000000	165.000000	58.000000	0.000000	0.000000
0.530000	49.500000	42.220000	724.000000	0.000000	167.000000	58.000000	35.000000	-42.000000
0.540000	49.800000	42.040000	727.000000	0.000000	167.000000	58.000000	30.000000	-18.000000
0.550000	50.120000	41.930000	727.000000	0.000000	167.000000	57.000000	32.000000	-11.000000
0.560000	50.420000	41.860000	730.000000	0.000000	167.000000	57.000000	30.000000	-7.000000
0.570000	50.750000	41.860000	730.000000	0.000000	167.000000	57.000000	33.000000	0.000000
0.580000	51.130000	42.000000	731.000000	0.000000	169.000000	58.000000	38.000000	14.000000
0.590000	51.490000	42.140000	731.000000	0.000000	169.000000	58.000000	36.000000	14.000000
0.600000	51.810000	42.300000	733.000000	0.000000	169.000000	58.000000	32.000000	16.000000
0.610000	51.930000	42.500000	737.000000	0.000000	170.000000	58.000000	12.000000	20.000000
0.620000	51.930000	42.720000	737.000000	0.000000	170.000000	58.000000	0.000000	22.000000
0.630000	51.880000	42.930000	736.000000	0.000000	170.000000	58.000000	-5.000000	21.000000
0.640000	51.710000	43.120000	736.000000	0.000000	170.000000	58.000000	-17.000000	19.000000
0.650000	51.450000	43.260000	737.000000	0.000000	170.000000	58.000000	-26.000000	14.000000
0.660000	51.130000	43.260000	737.000000	0.000000	170.000000	58.000000	-32.000000	0.000000
0.670000	50.880000	43.260000	730.000000	0.000000	170.000000	58.000000	-25.000000	0.000000
0.680000	50.670000	43.120000	725.000000	0.000000	170.000000	58.000000	-21.000000	-14.000000
0.690000	50.540000	42.920000	722.000000	0.000000	170.000000	58.000000	-13.000000	-20.000000
0.700000	50.540000	42.700000	722.000000	0.000000	170.000000	58.000000	0.000000	-22.000000
0.710000	50.690000	42.470000	724.000000	0.000000	170.000000	58.000000	15.000000	-23.000000
0.720000	50.820000	42.270000	728.000000	0.000000	170.000000	58.000000	13.000000	-20.000000
0.730000	51.070000	42.110000	727.000000	0.000000	170.000000	58.000000	25.000000	-16.000000
0.740000	51.410000	41.970000	721.000000	0.000000	170.000000	58.000000	34.000000	-14.000000
0.750000	51.720000	41.900000	688.000000	0.000000	170.000000	58.000000	31.000000	-7.000000
0.760000	52.080000	41.900000	554.000000	0.000000	170.000000	58.000000	36.000000	0.000000
0.770000	52.500000	41.900000	257.000000	0.000000	172.000000	58.000000	42.000000	0.000000
0.780000	52.500000	41.900000	0.000000	1.000000	172.000000	58.000000	0.000000	0.000000
0.790000	53.350000	42.000000	0.000000	0.000000	172.000000	58.000000	85.000000	10.000000
0.800000	53.350000	42.000000	0.000000	0.000000	172.000000	58.000000	0.000000	0.000000
0.810000	53.640000	42.360000	0.000000	0.000000	172.000000	58.000000	29.000000	36.000000
0.820000	53.640000	42.600000	0.000000	0.000000	172.000000	58.000000	0.000000	24.000000
0.830000	53.640000	42.870000	0.000000	0.000000	172.000000	58.000000	0.000000	27.000000
0.840000	53.640000	43.180000	0.000000	0.000000	172.000000	58.000000	0.000000	31.000000
0.850000	53.460000	43.470000	0.000000	0.000000	172.000000	58.000000	-18.000000	29.000000
0.860000	53.290000	43.720000	0.000000	0.000000	172.000000	58.000000	-17.000000	25.000000
0.870000	53.120000	43.880000	0.000000	0.000000	172.000000	58.000000	-17.000000	16.000000
0.880000	53.120000	43.880000	226.000000	1.000000	172.000000	58.000000	0.000000	0.000000
0.890000	52.860000	44.050000	361.000000	0.000000	172.000000	58.000000	-26.000000	17.000000
0.900000	52.790000	44.120000	456.000000	0.000000	174.000000	58.000000	-7.000000	7.000000
0.910000	52.790000	44.120000	483.000000	0.000000	173.000000	59.000000	0.000000	0.000000
0.920000	52.790000	44.030000	522.000000	0.000000	173.000000	59.000000	0.000000	-9.000000
0.930000	52.790000	43.880000	544.000000	0.000000	173.000000	59.000000	0.000000	-15.000000
0.940000	52.740000	43.650000	566.000000	0.000000	173.000000	59.000000	-5.000000	-23.000000
0.950000	52.740000	43.340000	591.000000	0.000000	173.000000	59.000000	0.000000	-31.000000
0.960000	52.740000	43.020000	592.000000	0.000000	173.000000	59.000000	0.000000	-32.000000
0.970000	52.850000	42.760000	597.000000	0.000000	173.000000	59.000000	11.000000	-26.000000
0.980000	52.940000	42.550000	605.000000	0.000000	173.000000	59.000000	9.000000	-21.000000
0.990000	53.020000	42.310000	606.000000	0.000000	173.000000	59.000000	8.000000	-24.000000
1.000000	53.280000	42.100000	603.000000	0.000000	174.000000	58.000000	26.000000	-21.000000
1.010000	53.540000	41.980000	602.000000	0.000000	174.000000	58.000000	26.000000	-12.000000
1.020000	53.830000	41.920000	599.000000	0.000000	174.000000	58.000000	29.000000	-6.000000
1.030000	54.140000	41.920000	595.000000	0.000000	175.000000	58.000000	31.000000	0.000000
1.040000	54.460000	41.970000	602.000000	0.000000	175.000000	58.000000	32.000000	5.000000
1.050000	54.680000	42.080000	600.000000	0.000000	175.000000	58.000000	22.000000	11.000000
1.060000	54.830000	42.240000	603.000000	0.000000	175.000000	58.000000	15.000000	16.000000
1.070000	54.930000	42.400000	611.000000	0.000000	175.000000	58.000000	10.000000	16.000000
1.080000	54.930000	42.560000	613.000000	0.000000	175.000000	58.000000	0.000000	16.000000
1.090000	54.850000	42.740000	633.000000	0.000000	175.000000	58.000000	-8.000000	18.000000
1.100000	54.850000	42.740000	653.000000	0.000000	175.000000	58.000000	0.000000	0.000000
1.110000	54.850000	42.740000	671.000000	0.000000	175.000000	58.000000	0.000000	0.000000
1.120000	54.850000	42.740000	671.000000	0.000000	175.000000	58.000000	0.000000	0.000000
1.130000	54.850000	42.740000	671.000000	0.000000	175.000000	58.000000	0.000000	0.000000
1.140000	54.850000	42.740000	665.000000	0.000000	177.000000	58.000000	0.000000	0.000000
1.150000	54.850000	42.740000	661.000000	0.000000	177.000000	58.000000	0.000000	0.000000
1.160000	54.850000	42.740000	656.000000	0.000000	177.000000	58.000000	0.000000	0.000000
1.170000	54.850000	42.740000	659.000000	0.000000	177.000000	58.000000	0.000000	0.000000
1.180000	54.770000	42.350000	658.000000	0.000000	177.000000	58.000000	-8.000000	-39.000000
1.190000	54.940000	42.190000	661.000000	0.000000	177.000000	58.000000	17.000000	-16.000000
1.200000	55.150000	42.100000	664.000000	0.000000	177.000000	58.000000	21.000000	-9.000000
1.210000	55.410000	42.040000	670.000000	0.000000	177.000000	58.000000	26.000000	-6.000000
1.220000	55.720000	41.980000	670.000000	0.000000	177.000000	58.000000	31.000000	-6.000000
1.230000	56.010000	41.980000	671.000000	0.000000	177.000000	58.000000	29.000000	0.000000
1.240000	56.270000	42.040000	671.000000	0.000000	177.000000	58.000000	26.000000	6.000000
1.250000	56.440000	42.140000	673.000000	0.000000	177.000000	58.000000	17.000000	10.000000
1.260000	56.490000	42.240000	671.000000	0.000000	178.000000	58.000000	5.000000	10.000000
1.270000	56.490000	42.380000	673.000000	0.000000	178.000000	58.000000	0.000000	14.000000
1.280000	56.490000	42.560000	664.000000	0.000000	178.000000	58.000000	0.000000	18.000000
1.290000	56.440000	42.700000	663.000000	0.000000	178.000000	58.000000	-5.000000	14.000000
1.300000	56.390000	42.860000	673.000000	0.000000	178.000000	58.000000	-5.000000	16.000000
1.310000	56.390000	43.010000	664.000000	0.000000	178.000000	58.000000	0.000000	15.000000
1.320000	56.490000	43.140000	673.000000	0.000000	178.000000	58.000000	10.000000	13.000000
1.330000	56.580000	43.260000	671.000000	0.000000	178.000000	58.000000	9.000000	12.000000
1.340000	56.720000	43.340000	670.000000	0.000000	178.000000	58.000000	14.000000	8.000000
1.350000	56.770000	43.340000	664.000000	0.000000	178.000000	58.000000	5.000000	0.000000
1.360000	56.770000	43.340000	659.000000	0.000000	178.000000	58.000000	0.000000	0.000000
1.370000	56.770000	43.340000	653.000000	0.000000	180.000000	58.000000	0.000000	0.000000
1.380000	56.830000	43.340000	653.000000	0.000000	180.000000	58.000000	6.000000	0.000000
1.390000	56.890000	43.340000	652.000000	0.000000	180.000000	58.000000	6.000000	0.000000
1.400000	56.890000	43.340000	646.000000	0.000000	180.000000	58.000000	0.000000	0.000000
1.410000	56.890000	43.260000	653.000000	0.000000	180.000000	58.000000	0.000000	-8.000000
1.420000	56.750000	43.170000	653.000000	0.000000	180.000000	58.000000	-14.000000	-9.000000
1.430000	56.660000	43.030000	655.000000	0.000000	180.000000	58.000000	-9.000000	-14.000000
1.440000	56.490000	42.870000	656.000000	0.000000	180.000000	58.000000	-17.000000	-16.000000
1.450000	56.270000	42.700000	655.000000	0.000000	180.000000	58.000000	-22.000000	-17.000000
1.460000	56.270000	42.520000	652.000000	0.000000	180.000000	58.000000	0.000000	-18.000000
1.470000	56.210000	42.360000	638.000000	0.000000	180.000000	58.000000	-6.000000	-16.000000
1.480000	56.210000	42.190000	636.000000	0.000000	180.000000	58.000000	0.000000	-17.000000
1.490000	56.270000	42.050000	642.000000	0.000000	178.000000	58.000000	6.000000	-14.000000
1.500000	56.400000	41.960000	641.000000	0.000000	178.000000	58.000000	13.000000	-9.000000
1.510000	56.600000	41.900000	641.000000	0.000000	178.000000	58.000000	20.000000	-6.000000
1.520000	56.830000	41.900000	636.000000	0.000000	178.000000	57.000000	23.000000	0.000000
1.530000	57.180000	41.900000	641.000000	0.000000	178.000000	57.000000	35.000000	0.000000
1.540000	57.550000	41.900000	644.000000	0.000000	180.000000	57.000000	37.000000	0.000000
1.550000	57.970000	42.010000	644.000000	0.000000	180.000000	57.000000	42.000000	11.000000
1.560000	58.220000	42.110000	646.000000	0.000000	180.000000	57.000000	25.000000	10.000000
1.570000	58.330000	42.240000	659.000000	0.000000	180.000000	57.000000	11.000000	13.000000
1.580000	58.330000	42.390000	665.000000	0.000000	178.000000	57.000000	0.000000	15.000000
1.590000	58.260000	42.540000	670.000000	0.000000	178.000000	57.000000	-7.000000	15.000000
1.600000	58.200000	42.680000	671.000000	0.000000	177.000000	57.000000	-6.000000	14.000000
1.610000	58.150000	42.790000	673.000000	0.000000	177.000000	57.000000	-5.000000	11.000000
1.620000	58.150000	42.790000	670.000000	0.000000	177.000000	57.000000	0.000000	0.000000
1.630000	58.150000	42.840000	665.000000	0.000000	177.000000	57.000000	0.000000	5.000000
1.640000	58.090000	42.840000	662.000000	0.000000	178.000000	57.000000	-6.000000	0.000000
1.650000	58.090000	42.780000	662.000000	0.000000	178.000000	57.000000	0.000000	-6.000000
1.660000	58.090000	42.690000	664.000000	0.000000	180.000000	57.000000	0.000000	-9.000000
1.670000	58.090000	42.690000	664.000000	0.000000	180.000000	57.000000	0.000000	0.000000
1.680000	58.010000	42.330000	665.000000	0.000000	180.000000	57.000000	-8.000000	-36.000000
1.690000	58.070000	42.160000	655.000000	0.000000	180.000000	57.000000	6.000000	-17.000000
1.700000	58.120000	42.040000	655.000000	0.000000	182.000000	57.000000	5.000000	-12.000000
1.710000	58.270000	41.960000	652.000000	0.000000	180.000000	57.000000	15.000000	-8.000000
1.720000	58.490000	41.890000	655.000000	0.000000	180.000000	57.000000	22.000000	-7.000000
1.730000	58.820000	41.890000	658.000000	0.000000	180.000000	57.000000	33.000000	0.000000
1.740000	59.150000	41.890000	656.000000	0.000000	178.000000	57.000000	33.000000	0.000000
1.750000	59.400000	41.890000	659.000000	0.000000	178.000000	57.000000	25.000000	0.000000
1.760000	59.600000	42.000000	658.000000	0.000000	177.000000	57.000000	20.000000	11.000000
1.770000	59.720000	42.120000	661.000000	0.000000	175.000000	57.000000	12.000000	12.000000
1.780000	59.790000	42.250000	659.000000	0.000000	175.000000	57.000000	7.000000	13.000000
1.790000	59.790000	42.390000	661.000000	0.000000	175.000000	57.000000	0.000000	14.000000
1.800000	59.850000	42.570000	662.000000	0.000000	175.000000	57.000000	6.000000	18.000000
1.810000	59.850000	42.780000	662.000000	0.000000	175.000000	57.000000	0.000000	21.000000
1.820000	59.850000	42.920000	659.000000	0.000000	175.000000	57.000000	0.000000	14.000000
1.830000	59.900000	43.020000	653.000000	0.000000	175.000000	57.000000	5.000000	10.000000
1.840000	59.980000	43.070000	649.000000	0.000000	177.000000	57.000000	8.000000	5.000000
1.850000	60.140000	43.070000	640.000000	0.000000	177.000000	58.000000	16.000000	0.000000
1.860000	60.340000	43.130000	637.000000	0.000000	177.000000	58.000000	20.000000	6.000000
1.870000	60.590000	43.130000	636.000000	0.000000	177.000000	58.000000	25.000000	0.000000
1.880000	60.880000	43.130000	636.000000	0.000000	177.000000	58.000000	29.000000	0.000000
1.890000	61.120000	43.130000	638.000000	0.000000	177.000000	58.000000	24.000000	0.000000
1.900000	61.320000	43.130000	644.000000	0.000000	177.000000	58.000000	20.000000	0.000000
1.910000	61.470000	43.190000	665.000000	0.000000	178.000000	58.000000	15.000000	6.000000
1.920000	61.470000	43.240000	672.000000	0.000000	178.000000	58.000000	0.000000	5.000000
1.930000	61.470000	43.240000	678.000000	0.000000	178.000000	58.000000	0.000000	0.000000
1.940000	61.330000	43.240000	693.000000	0.000000	178.000000	58.000000	-14.000000	0.000000
1.950000	61.060000	43.240000	690.000000	0.000000	178.000000	57.000000	-27.000000	0.000000
1.960000	60.680000	43.130000	688.000000	0.000000	178.000000	57.000000	-38.000000	-11.000000
1.970000	60.360000	43.030000	685.000000	0.000000	178.000000	57.000000	-32.000000	-10.000000
1.980000	60.110000	42.940000	682.000000	0.000000	178.000000	57.000000	-25.000000	-9.000000
1.990000	59.970000	42.770000	675.000000	0.000000	178.000000	57.000000	-14.000000	-17.000000
2.000000	59.880000	42.590000	669.000000	0.000000	178.000000	57.000000	-9.000000	-18.000000
2.010000	59.880000	42.420000	673.000000	0.000000	178.000000	57.000000	0.000000	-17.000000
2.020000	60.010000	42.270000	672.000000	0.000000	177.000000	57.000000	13.000000	-15.000000
2.030000	60.260000	42.140000	675.000000	0.000000	177.000000	57.000000	25.000000	-13.000000
2.040000	60.700000	42.020000	676.000000	0.000000	177.000000	57.000000	44.000000	-12.000000
2.050000	61.100000	41.970000	681.000000	0.000000	177.000000	57.000000	40.000000	-5.000000
2.060000	61.470000	41.970000	682.000000	0.000000	177.000000	57.000000	37.000000	0.000000
2.070000	61.810000	42.060000	685.000000	0.000000	177.000000	57.000000	34.000000	9.000000
2.080000	62.020000	42.170000	691.000000	0.000000	177.000000	57.000000	21.000000	11.000000
2.090000	62.130000	42.300000	690.000000	0.000000	177.000000	57.000000	11.000000	13.000000
2.100000	62.130000	42.410000	697.000000	0.000000	178.000000	57.000000	0.000000	11.000000
2.110000	62.070000	42.560000	708.000000	0.000000	178.000000	57.000000	-6.000000	15.000000
2.120000	61.940000	42.750000	708.000000	0.000000	178.000000	57.000000	-13.000000	19.000000
2.130000	61.790000	42.750000	710.000000	0.000000	178.000000	57.000000	-15.000000	0.000000
2.140000	61.670000	42.800000	700.000000	0.000000	178.000000	57.000000	-12.000000	5.000000
2.150000	61.670000	42.800000	700.000000	0.000000	178.000000	57.000000	0.000000	0.000000
2.160000	61.670000	42.700000	690.000000	0.000000	178.000000	57.000000	0.000000	-10.000000
2.170000	61.730000	42.580000	702.000000	0.000000	178.000000	57.000000	6.000000	-12.000000
2.180000	61.900000	42.410000	700.000000	0.000000	178.000000	57.000000	17.000000	-17.000000
2.190000	62.110000	42.260000	711.000000	0.000000	178.000000	57.000000	21.000000	-15.000000
2.200000	62.330000	42.140000	730.000000	0.000000	178.000000	57.000000	22.000000	-12.000000
2.210000	62.550000	42.050000	720.000000	0.000000	178.000000	57.000000	22.000000	-9.000000
