t	x	y	pressure	penup	azimuth	inclination	v_x	v_y
0.000000	48.030000	49.040000	137.000000	1.000000	169.000000	61.000000	0.000000	0.000000
0.010000	48.030000	49.040000	200.000000	0.000000	169.000000	61.000000	0.000000	0.000000
0.020000	48.030000	49.040000	285.000000	0.000000	168.000000	60.000000	0.000000	0.000000
0.030000	48.030000	49.040000	369.000000	0.000000	168.000000	60.000000	0.000000	0.000000
0.040000	48.030000	49.040000	420.000000	0.000000	168.000000	59.000000	0.000000	0.000000
0.050000	48.030000	49.040000	494.000000	0.000000	168.000000	59.000000	0.000000	0.000000
0.060000	48.030000	49.040000	595.000000	0.000000	168.000000	59.000000	0.000000	0.000000
0.070000	48.390000	48.780000	634.000000	0.000000	168.000000	59.000000	36.000000	-26.000000
0.080000	48.650000	48.780000	664.000000	0.000000	168.000000	59.000000	26.000000	0.000000
0.090000	48.900000	48.780000	687.000000	0.000000	168.000000	59.000000	25.000000	0.000000
0.100000	49.150000	48.780000	696.000000	0.000000	166.000000	59.000000	25.000000	0.000000
0.110000	49.420000	48.910000	708.000000	0.000000	166.000000	59.000000	27.000000	13.000000
0.120000	49.780000	49.060000	727.000000	0.000000	166.000000	59.000000	36.000000	15.000000
0.130000	50.180000	49.220000	725.000000	0.000000	166.000000	59.000000	40.000000	16.000000
0.140000	50.320000	49.410000	751.000000	0.000000	166.000000	59.000000	14.000000	19.000000
0.150000	50.380000	49.570000	774.000000	0.000000	166.000000	59.000000	6.000000	16.000000
0.160000	50.380000	49.710000	788.000000	0.000000	166.000000	59.000000	0.000000	14.000000
0.170000	50.300000	49.840000	788.000000	0.000000	166.000000	59.000000	-8.000000	13.000000
0.180000	50.130000	49.950000	794.000000	0.000000	166.000000	59.000000	-17.000000	11.000000
0.190000	49.900000	50.020000	796.000000	0.000000	168.000000	58.000000	-23.000000	7.000000
0.200000	49.740000	50.020000	787.000000	0.000000	168.000000	58.000000	-16.000000	0.000000
0.210000	49.570000	50.020000	797.000000	0.000000	168.000000	58.000000	-17.000000	0.000000
0.220000	49.410000	49.870000	796.000000	0.000000	168.000000	58.000000	-16.000000	-15.000000
0.230000	49.240000	49.730000	793.000000	0.000000	168.000000	58.000000	-17.000000	-14.000000
0.240000	49.110000	49.440000	791.000000	0.000000	167.000000	58.000000	-13.000000	-29.000000
0.250000	48.980000	49.060000	790.000000	0.000000	167.000000	58.000000	-13.000000	-38.000000
0.260000	48.920000	48.620000	790.000000	0.000000	167.000000	58.000000	-6.000000	-44.000000
0.270000	48.920000	48.170000	787.000000	0.000000	166.000000	59.000000	0.000000	-45.000000
0.280000	48.920000	47.710000	787.000000	0.000000	166.000000	59.000000	0.000000	-46.000000
0.290000	48.920000	47.290000	787.000000	0.000000	166.000000	59.000000	0.000000	-42.000000
0.300000	48.920000	46.920000	787.000000	0.000000	164.000000	60.000000	0.000000	-37.000000
0.310000	48.920000	46.580000	785.000000	0.000000	164.000000	60.000000	0.000000	-34.000000
0.320000	48.920000	46.320000	780.000000	0.000000	163.000000	61.000000	0.000000	-26.000000
0.330000	48.860000	46.140000	779.000000	0.000000	163.000000	61.000000	-6.000000	-18.000000
0.340000	48.710000	46.020000	771.000000	0.000000	163.000000	62.000000	-15.000000	-12.000000
0.350000	48.600000	46.020000	768.000000	0.000000	162.000000	63.000000	-11.000000	0.000000
0.360000	48.390000	46.020000	762.000000	0.000000	162.000000	63.000000	-21.000000	0.000000
0.370000	48.120000	46.120000	762.000000	0.000000	162.000000	63.000000	-27.000000	10.000000
0.380000	47.840000	46.290000	762.000000	0.000000	162.000000	63.000000	-28.000000	17.000000
0.390000	47.610000	46.490000	762.000000	0.000000	162.000000	63.000000	-23.000000	20.000000
0.400000	47.450000	46.710000	760.000000	0.000000	162.000000	63.000000	-16.000000	22.000000
0.410000	47.320000	46.910000	759.000000	0.000000	160.000000	63.000000	-13.000000	20.000000
0.420000	47.230000	47.060000	760.000000	0.000000	160.000000	63.000000	-9.000000	15.000000
0.430000	47.230000	47.120000	757.000000	0.000000	160.000000	63.000000	0.000000	6.000000
0.440000	47.230000	47.120000	751.000000	0.000000	160.000000	63.000000	0.000000	0.000000
0.450000	47.370000	47.120000	751.000000	0.000000	162.000000	63.000000	14.000000	0.000000
0.460000	47.500000	47.030000	750.000000	0.000000	163.000000	62.000000	13.000000	-9.000000
0.470000	47.790000	46.940000	751.000000	0.000000	163.000000	62.000000	29.000000	-9.000000
0.480000	48.090000	46.810000	754.000000	0.000000	163.000000	62.000000	30.000000	-13.000000
0.490000	48.400000	46.650000	756.000000	0.000000	163.000000	62.000000	31.000000	-16.000000
0.500000	48.680000	46.500000	756.000000	0.000000	161.000000	62.000000	28.000000	-15.000000
0.510000	48.940000	46.390000	756.000000	0.000000	162.000000	63.000000	26.000000	-11.000000
0.520000	49.310000	46.320000	753.000000	0.000000	162.000000	63.000000	37.000000	-7.000000
0.530000	49.670000	46.320000	750.000000	0.000000	162.000000	63.000000	36.000000	0.000000
0.540000	50.020000	46.320000	763.000000	0.000000	162.000000	63.000000	35.000000	0.000000
0.550000	50.250000	46.380000	750.000000	0.000000	162.000000	63.000000	23.000000	6.000000
0.560000	50.400000	46.520000	751.000000	0.000000	164.000000	63.000000	15.000000	14.000000
0.570000	50.400000	46.660000	753.000000	0.000000	164.000000	63.000000	0.000000	14.000000
0.580000	50.400000	46.810000	760.000000	0.000000	164.000000	63.000000	0.000000	15.000000
0.590000	50.300000	46.980000	765.000000	0.000000	164.000000	63.000000	-10.000000	17.000000
0.600000	50.160000	47.170000	768.000000	0.000000	164.000000	63.000000	-14.000000	19.000000
0.610000	49.980000	47.230000	773.000000	0.000000	164.000000	63.000000	-18.000000	6.000000
0.620000	49.780000	47.230000	774.000000	0.000000	164.000000	63.000000	-20.000000	0.000000
0.630000	49.670000	47.230000	776.000000	0.000000	165.000000	62.000000	-11.000000	0.000000
0.640000	49.590000	47.140000	774.000000	0.000000	165.000000	62.000000	-8.000000	-9.000000
0.650000	49.590000	47.010000	776.000000	0.000000	165.000000	62.000000	0.000000	-13.000000
0.660000	49.590000	46.810000	776.000000	0.000000	165.000000	62.000000	0.000000	-20.000000
0.670000	49.640000	46.580000	774.000000	0.000000	165.000000	62.000000	5.000000	-23.000000
0.680000	49.760000	46.390000	762.000000	0.000000	165.000000	62.000000	12.000000	-19.000000
0.690000	49.940000	46.220000	740.000000	0.000000	164.000000	63.000000	18.000000	-17.000000
0.700000	50.200000	46.080000	647.000000	0.000000	164.000000	63.000000	26.000000	-14.000000
0.710000	50.540000	46.020000	414.000000	0.000000	164.000000	63.000000	34.000000	-6.000000
0.720000	50.970000	46.020000	63.000000	0.000000	164.000000	63.000000	43.000000	0.000000
0.730000	50.970000	46.020000	0.000000	1.000000	166.000000	63.000000	0.000000	0.000000
0.740000	51.730000	46.200000	0.000000	0.000000	166.000000	63.000000	76.000000	18.000000
0.750000	52.020000	46.390000	0.000000	0.000000	168.000000	63.000000	29.000000	19.000000
0.760000	52.170000	46.660000	0.000000	0.000000	168.000000	63.000000	15.000000	27.000000
0.770000	52.220000	46.960000	0.000000	0.000000	170.000000	64.000000	5.000000	30.000000
0.780000	52.220000	47.270000	0.000000	0.000000	170.000000	64.000000	0.000000	31.000000
0.790000	52.060000	47.450000	0.000000	0.000000	170.000000	64.000000	-16.000000	18.000000
0.800000	52.060000	47.450000	242.000000	1.000000	170.000000	64.000000	0.000000	0.000000
0.810000	51.660000	47.800000	377.000000	0.000000	170.000000	63.000000	-40.000000	35.000000
0.820000	51.460000	47.960000	522.000000	0.000000	170.000000	63.000000	-20.000000	16.000000
0.830000	51.310000	48.070000	589.000000	0.000000	171.000000	62.000000	-15.000000	11.000000
0.840000	51.230000	48.070000	633.000000	0.000000	173.000000	62.000000	-8.000000	0.000000
0.850000	51.230000	47.930000	659.000000	0.000000	173.000000	62.000000	0.000000	-14.000000
0.860000	51.230000	47.780000	675.000000	0.000000	173.000000	61.000000	0.000000	-15.000000
0.870000	51.230000	47.570000	694.000000	0.000000	173.000000	61.000000	0.000000	-21.000000
0.880000	51.230000	47.330000	724.000000	0.000000	173.000000	61.000000	0.000000	-24.000000
0.890000	51.290000	47.090000	721.000000	0.000000	173.000000	62.000000	6.000000	-24.000000
0.900000	51.380000	46.810000	730.000000	0.000000	173.000000	62.000000	9.000000	-28.000000
0.910000	51.480000	46.530000	727.000000	0.000000	173.000000	62.000000	10.000000	-28.000000
0.920000	51.600000	46.310000	730.000000	0.000000	170.000000	63.000000	12.000000	-22.000000
0.930000	51.770000	46.150000	727.000000	0.000000	170.000000	63.000000	17.000000	-16.000000
0.940000	52.010000	46.030000	720.000000	0.000000	170.000000	63.000000	24.000000	-12.000000
0.950000	52.370000	45.980000	724.000000	0.000000	170.000000	64.000000	36.000000	-5.000000
0.960000	52.650000	45.980000	722.000000	0.000000	168.000000	63.000000	28.000000	0.000000
0.970000	52.870000	46.050000	714.000000	0.000000	168.000000	63.000000	22.000000	7.000000
0.980000	53.160000	46.180000	707.000000	0.000000	168.000000	63.000000	29.000000	13.000000
0.990000	53.380000	46.360000	693.000000	0.000000	170.000000	64.000000	22.000000	18.000000
1.000000	53.550000	46.600000	691.000000	0.000000	170.000000	64.000000	17.000000	24.000000
1.010000	53.550000	46.830000	697.000000	0.000000	170.000000	64.000000	0.000000	23.000000
1.020000	53.500000	47.020000	705.000000	0.000000	170.000000	64.000000	-5.000000	19.000000
1.030000	53.380000	47.140000	710.000000	0.000000	172.000000	64.000000	-12.000000	12.000000
1.040000	53.240000	47.210000	716.000000	0.000000	172.000000	64.000000	-14.000000	7.000000
1.050000	53.130000	47.210000	716.000000	0.000000	172.000000	63.000000	-11.000000	0.000000
1.060000	53.030000	47.210000	710.000000	0.000000	172.000000	63.000000	-10.000000	0.000000
1.070000	53.030000	47.140000	710.000000	0.000000	172.000000	63.000000	0.000000	-7.000000
1.080000	53.030000	46.970000	707.000000	0.000000	173.000000	62.000000	0.000000	-17.000000
1.090000	53.030000	46.790000	708.000000	0.000000	173.000000	62.000000	0.000000	-18.000000
1.100000	53.140000	46.630000	713.000000	0.000000	173.000000	62.000000	11.000000	-16.000000
1.110000	53.290000	46.460000	710.000000	0.000000	172.000000	63.000000	15.000000	-17.000000
1.120000	53.440000	46.290000	716.000000	0.000000	172.000000	63.000000	15.000000	-17.000000
1.130000	53.630000	46.190000	717.000000	0.000000	172.000000	63.000000	19.000000	-10.000000
1.140000	53.870000	46.130000	724.000000	0.000000	172.000000	64.000000	24.000000	-6.000000
1.150000	54.210000	46.060000	716.000000	0.000000	172.000000	64.000000	34.000000	-7.000000
1.160000	54.590000	46.060000	716.000000	0.000000	172.000000	64.000000	38.000000	0.000000
1.170000	54.810000	46.060000	714.000000	0.000000	172.000000	64.000000	22.000000	0.000000
1.180000	54.980000	46.180000	714.000000	0.000000	172.000000	64.000000	17.000000	12.000000
1.190000	55.120000	46.330000	713.000000	0.000000	172.000000	64.000000	14.000000	15.000000
1.200000	55.120000	46.510000	717.000000	0.000000	172.000000	64.000000	0.000000	18.000000
1.210000	55.120000	46.690000	717.000000	0.000000	172.000000	64.000000	0.000000	18.000000
1.220000	55.040000	46.880000	724.000000	0.000000	172.000000	64.000000	-8.000000	19.000000
1.230000	54.990000	47.080000	724.000000	0.000000	172.000000	64.000000	-5.000000	20.000000
1.240000	54.990000	47.190000	719.000000	0.000000	172.000000	64.000000	0.000000	11.000000
1.250000	54.940000	47.270000	716.000000	0.000000	174.000000	63.000000	-5.000000	8.000000
1.260000	54.940000	47.270000	699.000000	0.000000	174.000000	63.000000	0.000000	0.000000
1.270000	55.010000	47.270000	690.000000	0.000000	174.000000	63.000000	7.000000	0.000000
1.280000	55.070000	47.270000	691.000000	0.000000	174.000000	63.000000	6.000000	0.000000
1.290000	55.150000	47.220000	690.000000	0.000000	174.000000	63.000000	8.000000	-5.000000
1.300000	55.260000	47.220000	702.000000	0.000000	174.000000	62.000000	11.000000	0.000000
1.310000	55.430000	47.140000	702.000000	0.000000	174.000000	62.000000	17.000000	-8.000000
1.320000	55.560000	47.090000	700.000000	0.000000	174.000000	62.000000	13.000000	-5.000000
1.330000	55.660000	47.090000	699.000000	0.000000	174.000000	62.000000	10.000000	0.000000
1.340000	55.720000	47.040000	702.000000	0.000000	176.000000	62.000000	6.000000	-5.000000
1.350000	55.720000	47.040000	690.000000	0.000000	176.000000	62.000000	0.000000	0.000000
1.360000	55.720000	47.040000	696.000000	0.000000	176.000000	62.000000	0.000000	0.000000
1.370000	55.670000	47.040000	697.000000	0.000000	176.000000	62.000000	-5.000000	0.000000
1.380000	55.670000	47.040000	697.000000	0.000000	176.000000	62.000000	0.000000	0.000000
1.390000	55.600000	47.040000	697.000000	0.000000	176.000000	62.000000	-7.000000	0.000000
1.400000	55.540000	46.990000	696.000000	0.000000	176.000000	62.000000	-6.000000	-5.000000
1.410000	55.540000	46.920000	699.000000	0.000000	176.000000	62.000000	0.000000	-7.000000
1.420000	55.470000	46.840000	699.000000	0.000000	176.000000	62.000000	-7.000000	-8.000000
1.430000	55.470000	46.760000	703.000000	0.000000	176.000000	62.000000	0.000000	-8.000000
1.440000	55.470000	46.700000	711.000000	0.000000	176.000000	62.000000	0.000000	-6.000000
1.450000	55.470000	46.640000	724.000000	0.000000	176.000000	62.000000	0.000000	-6.000000
1.460000	55.470000	46.560000	725.000000	0.000000	176.000000	63.000000	0.000000	-8.000000
1.470000	55.470000	46.490000	720.000000	0.000000	176.000000	63.000000	0.000000	-7.000000
1.480000	55.470000	46.490000	720.000000	0.000000	176.000000	63.000000	0.000000	0.000000
1.490000	55.520000	46.430000	724.000000	0.000000	176.000000	63.000000	5.000000	-6.000000
1.500000	55.520000	46.430000	725.000000	0.000000	176.000000	63.000000	0.000000	0.000000
1.510000	55.520000	46.430000	725.000000	0.000000	176.000000	63.000000	0.000000	0.000000
1.520000	55.520000	46.430000	721.000000	0.000000	176.000000	63.000000	0.000000	0.000000
1.530000	55.520000	46.430000	733.000000	0.000000	176.000000	63.000000	0.000000	0.000000
1.540000	55.520000	46.430000	722.000000	0.000000	176.000000	63.000000	0.000000	0.000000
1.550000	55.520000	46.430000	700.000000	0.000000	176.000000	63.000000	0.000000	0.000000
1.560000	55.570000	46.430000	627.000000	0.000000	176.000000	63.000000	5.000000	0.000000
1.570000	55.570000	46.430000	496.000000	0.000000	176.000000	63.000000	0.000000	0.000000
1.580000	55.570000	46.520000	232.000000	0.000000	176.000000	63.000000	0.000000	9.000000
1.590000	55.570000	46.520000	0.000000	1.000000	176.000000	63.000000	0.000000	0.000000
1.600000	55.670000	46.670000	0.000000	0.000000	176.000000	63.000000	10.000000	15.000000
1.610000	55.670000	46.760000	0.000000	0.000000	176.000000	63.000000	0.000000	9.000000
1.620000	55.730000	46.850000	0.000000	0.000000	174.000000	63.000000	6.000000	9.000000
1.630000	55.780000	46.920000	0.000000	0.000000	174.000000	63.000000	5.000000	7.000000
1.640000	55.840000	46.970000	0.000000	0.000000	174.000000	63.000000	6.000000	5.000000
1.650000	55.890000	46.970000	0.000000	0.000000	174.000000	63.000000	5.000000	0.000000
1.660000	55.890000	46.970000	0.000000	0.000000	174.000000	63.000000	0.000000	0.000000
1.670000	55.890000	47.020000	0.000000	0.000000	174.000000	62.000000	0.000000	5.000000
1.680000	55.890000	47.020000	0.000000	0.000000	174.000000	62.000000	0.000000	0.000000
1.690000	55.830000	47.020000	0.000000	0.000000	174.000000	62.000000	-6.000000	0.000000
1.700000	55.780000	47.020000	0.000000	0.000000	175.000000	61.000000	-5.000000	0.000000
1.710000	55.780000	47.020000	0.000000	0.000000	175.000000	61.000000	0.000000	0.000000
1.720000	55.710000	46.960000	0.000000	0.000000	175.000000	61.000000	-7.000000	-6.000000
1.730000	55.710000	46.960000	0.000000	0.000000	175.000000	61.000000	0.000000	0.000000
1.740000	55.710000	46.960000	0.000000	0.000000	175.000000	61.000000	0.000000	0.000000
1.750000	55.710000	46.960000	0.000000	0.000000	175.000000	61.000000	0.000000	0.000000
1.760000	55.710000	46.960000	0.000000	0.000000	173.000000	61.000000	0.000000	0.000000
1.770000	55.710000	46.960000	0.000000	0.000000	173.000000	61.000000	0.000000	0.000000
1.780000	55.710000	46.910000	0.000000	0.000000	173.000000	62.000000	0.000000	-5.000000
1.790000	55.710000	46.910000	0.000000	0.000000	173.000000	62.000000	0.000000	0.000000
1.800000	55.710000	46.910000	0.000000	0.000000	173.000000	62.000000	0.000000	0.000000
1.810000	55.710000	46.910000	0.000000	0.000000	173.000000	62.000000	0.000000	0.000000
1.820000	55.710000	46.910000	0.000000	0.000000	173.000000	62.000000	0.000000	0.000000
1.830000	55.710000	46.910000	0.000000	0.000000	173.000000	62.000000	0.000000	0.000000
1.840000	55.710000	46.980000	0.000000	0.000000	173.000000	62.000000	0.000000	7.000000
1.850000	55.710000	47.030000	0.000000	0.000000	173.000000	62.000000	0.000000	5.000000
1.860000	55.710000	47.030000	0.000000	0.000000	173.000000	62.000000	0.000000	0.000000
1.870000	55.710000	47.030000	50.000000	1.000000	173.000000	62.000000	0.000000	0.000000
1.880000	55.710000	47.030000	139.000000	0.000000	173.000000	62.000000	0.000000	0.000000
1.890000	55.710000	47.030000	253.000000	0.000000	173.000000	62.000000	0.000000	0.000000
1.900000	55.710000	47.030000	327.000000	0.000000	173.000000	62.000000	0.000000	0.000000
1.910000	55.710000	47.030000	414.000000	0.000000	171.000000	62.000000	0.000000	0.000000
1.920000	55.380000	47.190000	469.000000	0.000000	171.000000	62.000000	-33.000000	16.000000
1.930000	55.240000	47.090000	522.000000	0.000000	171.000000	62.000000	-14.000000	-10.000000
1.940000	55.150000	47.010000	567.000000	0.000000	171.000000	62.000000	-9.000000	-8.000000
1.950000	55.070000	46.870000	606.000000	0.000000	173.000000	62.000000	-8.000000	-14.000000
1.960000	54.990000	46.720000	617.000000	0.000000	173.000000	62.000000	-8.000000	-15.000000
1.970000	54.990000	46.570000	641.000000	0.000000	173.000000	62.000000	0.000000	-15.000000
1.980000	54.990000	46.390000	675.000000	0.000000	172.000000	63.000000	0.000000	-18.000000
1.990000	54.990000	46.190000	694.000000	0.000000	172.000000	63.000000	0.000000	-20.000000
2.000000	55.120000	46.000000	710.000000	0.000000	174.000000	63.000000	13.000000	-19.000000
2.010000	55.280000	45.880000	737.000000	0.000000	174.000000	64.000000	16.000000	-12.000000
2.020000	55.590000	45.800000	763.000000	0.000000	174.000000	64.000000	31.000000	-8.000000
2.030000	55.980000	45.750000	767.000000	0.000000	176.000000	64.000000	39.000000	-5.000000
2.040000	56.380000	45.750000	780.000000	0.000000	176.000000	64.000000	40.000000	0.000000
2.050000	56.670000	45.800000	780.000000	0.000000	176.000000	64.000000	29.000000	5.000000
2.060000	56.880000	45.800000	776.000000	0.000000	176.000000	64.000000	21.000000	0.000000
2.070000	56.930000	45.800000	739.000000	0.000000	178.000000	64.000000	5.000000	0.000000
2.080000	56.930000	45.800000	630.000000	0.000000	178.000000	64.000000	0.000000	0.000000
2.090000	56.930000	45.880000	284.000000	0.000000	178.000000	64.000000	0.000000	8.000000
2.100000	56.930000	45.880000	0.000000	1.000000	178.000000	64.000000	0.000000	0.000000
2.110000	56.850000	46.030000	0.000000	0.000000	178.000000	64.000000	-8.000000	15.000000
2.120000	56.760000	46.130000	0.000000	0.000000	178.000000	64.000000	-9.000000	10.000000
2.130000	56.760000	46.240000	0.000000	0.000000	178.000000	64.000000	0.000000	11.000000
2.140000	56.850000	46.290000	0.000000	0.000000	178.000000	63.000000	9.000000	5.000000
2.150000	57.040000	46.340000	0.000000	0.000000	178.000000	63.000000	19.000000	5.000000
2.160000	57.300000	46.340000	0.000000	0.000000	178.000000	62.000000	26.000000	0.000000
2.170000	57.370000	46.430000	0.000000	0.000000	178.000000	62.000000	7.000000	9.000000
2.180000	57.370000	46.490000	0.000000	0.000000	178.000000	61.000000	0.000000	6.000000
2.190000	57.370000	46.560000	0.000000	0.000000	178.000000	61.000000	0.000000	7.000000
2.200000	57.290000	46.640000	0.000000	0.000000	178.000000	61.000000	-8.000000	8.000000
2.210000	57.240000	46.690000	0.000000	0.000000	178.000000	61.000000	-5.000000	5.000000
2.220000	57.240000	46.690000	232.000000	1.000000	178.000000	61.000000	0.000000	0.000000
2.230000	57.240000	46.690000	336.000000	0.000000	178.000000	62.000000	0.000000	0.000000
