t	x	y	pressure	penup	azimuth	inclination	v_x	v_y
0.000000	48.860000	15.890000	196.000000	1.000000	153.000000	56.000000	0.000000	0.000000
0.010000	48.860000	15.890000	219.000000	0.000000	153.000000	56.000000	0.000000	0.000000
0.020000	48.970000	15.590000	249.000000	0.000000	153.000000	56.000000	11.000000	-30.000000
0.030000	49.120000	15.410000	322.000000	0.000000	152.000000	57.000000	15.000000	-18.000000
0.040000	49.250000	15.020000	418.000000	0.000000	151.000000	58.000000	13.000000	-39.000000
0.050000	49.360000	14.500000	488.000000	0.000000	150.000000	58.000000	11.000000	-52.000000
0.060000	49.410000	13.890000	526.000000	0.000000	149.000000	59.000000	5.000000	-61.000000
0.070000	49.470000	13.310000	568.000000	0.000000	147.000000	61.000000	6.000000	-58.000000
0.080000	49.560000	12.720000	567.000000	0.000000	146.000000	62.000000	9.000000	-59.000000
0.090000	49.650000	12.280000	574.000000	0.000000	143.000000	63.000000	9.000000	-44.000000
0.100000	49.720000	11.960000	562.000000	0.000000	141.000000	64.000000	7.000000	-32.000000
0.110000	49.800000	11.760000	491.000000	0.000000	140.000000	65.000000	8.000000	-20.000000
0.120000	49.800000	11.760000	285.000000	0.000000	138.000000	65.000000	0.000000	0.000000
0.130000	49.800000	11.760000	0.000000	1.000000	137.000000	66.000000	0.000000	0.000000
0.140000	49.800000	12.270000	0.000000	0.000000	139.000000	67.000000	0.000000	51.000000
0.150000	49.490000	12.880000	0.000000	0.000000	139.000000	67.000000	-31.000000	61.000000
0.160000	49.080000	13.610000	0.000000	0.000000	140.000000	66.000000	-41.000000	73.000000
0.170000	48.490000	14.450000	0.000000	0.000000	142.000000	65.000000	-59.000000	84.000000
0.180000	47.810000	15.400000	0.000000	0.000000	143.000000	64.000000	-68.000000	95.000000
0.190000	47.060000	16.420000	0.000000	0.000000	148.000000	63.000000	-75.000000	102.000000
0.200000	46.660000	16.880000	0.000000	0.000000	149.000000	63.000000	-40.000000	46.000000
0.210000	46.500000	16.880000	0.000000	0.000000	151.000000	61.000000	-16.000000	0.000000
0.220000	46.500000	16.880000	541.000000	1.000000	152.000000	60.000000	0.000000	0.000000
0.230000	46.500000	16.880000	533.000000	0.000000	154.000000	58.000000	0.000000	0.000000
0.240000	46.500000	16.880000	529.000000	0.000000	157.000000	58.000000	0.000000	0.000000
0.250000	46.500000	16.880000	567.000000	0.000000	157.000000	58.000000	0.000000	0.000000
0.260000	46.930000	16.740000	624.000000	0.000000	159.000000	57.000000	43.000000	-14.000000
0.270000	47.340000	16.840000	643.000000	0.000000	158.000000	58.000000	41.000000	10.000000
0.280000	47.950000	16.980000	670.000000	0.000000	158.000000	58.000000	61.000000	14.000000
0.290000	48.690000	17.100000	667.000000	0.000000	156.000000	59.000000	74.000000	12.000000
0.300000	49.520000	17.200000	663.000000	0.000000	155.000000	60.000000	83.000000	10.000000
0.310000	50.280000	17.090000	650.000000	0.000000	152.000000	60.000000	76.000000	-11.000000
0.320000	51.000000	16.840000	645.000000	0.000000	152.000000	60.000000	72.000000	-25.000000
0.330000	51.370000	16.400000	645.000000	0.000000	150.000000	60.000000	37.000000	-44.000000
0.340000	51.460000	15.920000	637.000000	0.000000	150.000000	60.000000	9.000000	-48.000000
0.350000	51.370000	15.410000	659.000000	0.000000	150.000000	60.000000	-9.000000	-51.000000
0.360000	50.980000	14.900000	687.000000	0.000000	148.000000	60.000000	-39.000000	-51.000000
0.370000	50.400000	14.490000	697.000000	0.000000	147.000000	61.000000	-58.000000	-41.000000
0.380000	49.700000	14.180000	697.000000	0.000000	147.000000	61.000000	-70.000000	-31.000000
0.390000	49.030000	13.950000	711.000000	0.000000	147.000000	61.000000	-67.000000	-23.000000
0.400000	48.430000	13.950000	694.000000	0.000000	146.000000	62.000000	-60.000000	0.000000
0.410000	47.960000	13.950000	691.000000	0.000000	144.000000	62.000000	-47.000000	0.000000
0.420000	47.960000	13.950000	636.000000	0.000000	143.000000	63.000000	0.000000	0.000000
0.430000	47.960000	13.950000	622.000000	0.000000	141.000000	64.000000	0.000000	0.000000
0.440000	48.310000	14.160000	625.000000	0.000000	141.000000	64.000000	35.000000	21.000000
0.450000	48.880000	14.020000	619.000000	0.000000	140.000000	63.000000	57.000000	-14.000000
0.460000	49.580000	13.780000	622.000000	0.000000	140.000000	63.000000	70.000000	-24.000000
0.470000	50.230000	13.450000	630.000000	0.000000	140.000000	63.000000	65.000000	-33.000000
0.480000	50.730000	13.080000	631.000000	0.000000	140.000000	65.000000	50.000000	-37.000000
0.490000	51.130000	12.750000	634.000000	0.000000	140.000000	65.000000	40.000000	-33.000000
0.500000	51.400000	12.480000	633.000000	0.000000	140.000000	65.000000	27.000000	-27.000000
0.510000	51.650000	12.350000	611.000000	0.000000	138.000000	65.000000	25.000000	-13.000000
0.520000	51.880000	12.350000	504.000000	0.000000	140.000000	66.000000	23.000000	0.000000
0.530000	52.180000	12.480000	260.000000	0.000000	139.000000	67.000000	30.000000	13.000000
0.540000	52.180000	12.480000	0.000000	1.000000	139.000000	67.000000	0.000000	0.000000
0.550000	52.880000	13.060000	0.000000	0.000000	139.000000	67.000000	70.000000	58.000000
0.560000	53.170000	13.340000	0.000000	0.000000	139.000000	67.000000	29.000000	28.000000
0.570000	53.400000	13.510000	0.000000	0.000000	139.000000	67.000000	23.000000	17.000000
0.580000	53.400000	13.510000	139.000000	1.000000	139.000000	67.000000	0.000000	0.000000
0.590000	53.400000	13.510000	276.000000	0.000000	140.000000	67.000000	0.000000	0.000000
0.600000	53.420000	13.760000	373.000000	0.000000	142.000000	66.000000	2.000000	25.000000
0.610000	53.300000	13.850000	468.000000	0.000000	142.000000	66.000000	-12.000000	9.000000
0.620000	53.090000	13.950000	496.000000	0.000000	142.000000	66.000000	-21.000000	10.000000
0.630000	52.810000	14.000000	536.000000	0.000000	144.000000	66.000000	-28.000000	5.000000
0.640000	52.450000	14.000000	543.000000	0.000000	144.000000	66.000000	-36.000000	0.000000
0.650000	52.130000	13.890000	545.000000	0.000000	144.000000	66.000000	-32.000000	-11.000000
0.660000	51.900000	13.690000	546.000000	0.000000	144.000000	66.000000	-23.000000	-20.000000
0.670000	51.720000	13.360000	546.000000	0.000000	144.000000	66.000000	-18.000000	-33.000000
0.680000	51.770000	12.950000	539.000000	0.000000	142.000000	66.000000	5.000000	-41.000000
0.690000	51.960000	12.610000	537.000000	0.000000	140.000000	66.000000	19.000000	-34.000000
0.700000	52.290000	12.450000	532.000000	0.000000	140.000000	66.000000	33.000000	-16.000000
0.710000	52.660000	12.450000	526.000000	0.000000	139.000000	67.000000	37.000000	0.000000
0.720000	53.090000	12.450000	521.000000	0.000000	139.000000	67.000000	43.000000	0.000000
0.730000	53.340000	12.610000	518.000000	0.000000	137.000000	67.000000	25.000000	16.000000
0.740000	53.470000	12.770000	522.000000	0.000000	139.000000	68.000000	13.000000	16.000000
0.750000	53.470000	12.930000	518.000000	0.000000	139.000000	68.000000	0.000000	16.000000
0.760000	53.360000	13.080000	526.000000	0.000000	139.000000	68.000000	-11.000000	15.000000
0.770000	53.210000	13.180000	537.000000	0.000000	139.000000	68.000000	-15.000000	10.000000
0.780000	53.160000	13.230000	543.000000	0.000000	141.000000	68.000000	-5.000000	5.000000
0.790000	53.160000	13.230000	543.000000	0.000000	141.000000	68.000000	0.000000	0.000000
0.800000	53.210000	13.160000	540.000000	0.000000	142.000000	68.000000	5.000000	-7.000000
0.810000	53.420000	12.930000	530.000000	0.000000	142.000000	68.000000	21.000000	-23.000000
0.820000	53.720000	12.770000	520.000000	0.000000	142.000000	68.000000	30.000000	-16.000000
0.830000	54.040000	12.660000	481.000000	0.000000	142.000000	68.000000	32.000000	-11.000000
0.840000	54.330000	12.600000	428.000000	0.000000	142.000000	68.000000	29.000000	-6.000000
0.850000	54.590000	12.600000	329.000000	0.000000	142.000000	68.000000	26.000000	0.000000
0.860000	54.780000	12.600000	186.000000	0.000000	142.000000	68.000000	19.000000	0.000000
0.870000	54.920000	12.600000	22.000000	0.000000	142.000000	68.000000	14.000000	0.000000
0.880000	54.920000	12.600000	0.000000	1.000000	142.000000	68.000000	0.000000	0.000000
0.890000	55.220000	12.940000	0.000000	0.000000	142.000000	68.000000	30.000000	34.000000
0.900000	55.220000	12.940000	41.000000	1.000000	142.000000	68.000000	0.000000	0.000000
0.910000	55.430000	13.340000	161.000000	0.000000	145.000000	68.000000	21.000000	40.000000
0.920000	55.430000	13.510000	286.000000	0.000000	145.000000	68.000000	0.000000	17.000000
0.930000	55.430000	13.650000	344.000000	0.000000	145.000000	68.000000	0.000000	14.000000
0.940000	55.330000	13.780000	423.000000	0.000000	145.000000	68.000000	-10.000000	13.000000
0.950000	55.330000	13.780000	448.000000	0.000000	146.000000	67.000000	0.000000	0.000000
0.960000	55.010000	13.930000	453.000000	0.000000	146.000000	67.000000	-32.000000	15.000000
0.970000	54.700000	13.800000	465.000000	0.000000	146.000000	67.000000	-31.000000	-13.000000
0.980000	54.400000	13.550000	473.000000	0.000000	146.000000	67.000000	-30.000000	-25.000000
0.990000	54.130000	13.220000	477.000000	0.000000	146.000000	67.000000	-27.000000	-33.000000
1.000000	54.050000	12.840000	461.000000	0.000000	144.000000	67.000000	-8.000000	-38.000000
1.010000	54.100000	12.520000	441.000000	0.000000	142.000000	68.000000	5.000000	-32.000000
1.020000	54.310000	12.260000	423.000000	0.000000	142.000000	68.000000	21.000000	-26.000000
1.030000	54.570000	12.100000	391.000000	0.000000	142.000000	68.000000	26.000000	-16.000000
1.040000	54.890000	12.100000	346.000000	0.000000	141.000000	68.000000	32.000000	0.000000
1.050000	55.210000	12.210000	343.000000	0.000000	141.000000	68.000000	32.000000	11.000000
1.060000	55.390000	12.380000	353.000000	0.000000	141.000000	68.000000	18.000000	17.000000
1.070000	55.480000	12.590000	391.000000	0.000000	143.000000	69.000000	9.000000	21.000000
1.080000	55.480000	12.830000	415.000000	0.000000	143.000000	69.000000	0.000000	24.000000
1.090000	55.420000	12.940000	465.000000	0.000000	143.000000	69.000000	-6.000000	11.000000
1.100000	55.330000	13.020000	501.000000	0.000000	143.000000	69.000000	-9.000000	8.000000
1.110000	55.330000	13.020000	514.000000	0.000000	143.000000	69.000000	0.000000	0.000000
1.120000	55.380000	12.880000	522.000000	0.000000	143.000000	69.000000	5.000000	-14.000000
1.130000	55.380000	12.550000	519.000000	0.000000	143.000000	69.000000	0.000000	-33.000000
1.140000	55.500000	12.080000	510.000000	0.000000	143.000000	69.000000	12.000000	-47.000000
1.150000	55.610000	11.610000	507.000000	0.000000	143.000000	69.000000	11.000000	-47.000000
1.160000	55.740000	11.190000	504.000000	0.000000	141.000000	70.000000	13.000000	-42.000000
1.170000	55.850000	10.900000	502.000000	0.000000	141.000000	70.000000	11.000000	-29.000000
1.180000	55.850000	10.670000	502.000000	0.000000	141.000000	70.000000	0.000000	-23.000000
1.190000	55.850000	10.560000	515.000000	0.000000	141.000000	70.000000	0.000000	-11.000000
1.200000	55.850000	10.560000	512.000000	0.000000	141.000000	70.000000	0.000000	0.000000
1.210000	55.800000	10.620000	522.000000	0.000000	141.000000	70.000000	-5.000000	6.000000
1.220000	55.740000	10.820000	499.000000	0.000000	141.000000	70.000000	-6.000000	20.000000
1.230000	55.690000	11.180000	458.000000	0.000000	141.000000	70.000000	-5.000000	36.000000
1.240000	55.640000	11.640000	367.000000	0.000000	143.000000	70.000000	-5.000000	46.000000
1.250000	55.560000	12.270000	297.000000	0.000000	143.000000	70.000000	-8.000000	63.000000
1.260000	55.510000	12.850000	305.000000	0.000000	143.000000	70.000000	-5.000000	58.000000
1.270000	55.510000	13.410000	376.000000	0.000000	143.000000	70.000000	0.000000	56.000000
1.280000	55.510000	13.560000	440.000000	0.000000	143.000000	70.000000	0.000000	15.000000
1.290000	55.510000	13.560000	474.000000	0.000000	145.000000	70.000000	0.000000	0.000000
1.300000	55.450000	13.450000	481.000000	0.000000	143.000000	69.000000	-6.000000	-11.000000
1.310000	55.450000	13.280000	489.000000	0.000000	145.000000	68.000000	0.000000	-17.000000
1.320000	55.450000	13.100000	492.000000	0.000000	145.000000	68.000000	0.000000	-18.000000
1.330000	55.510000	12.880000	496.000000	0.000000	145.000000	68.000000	6.000000	-22.000000
1.340000	55.650000	12.670000	483.000000	0.000000	145.000000	68.000000	14.000000	-21.000000
1.350000	55.880000	12.460000	471.000000	0.000000	147.000000	69.000000	23.000000	-21.000000
1.360000	56.160000	12.350000	458.000000	0.000000	147.000000	69.000000	28.000000	-11.000000
1.370000	56.460000	12.350000	449.000000	0.000000	147.000000	69.000000	30.000000	0.000000
1.380000	56.780000	12.350000	414.000000	0.000000	145.000000	70.000000	32.000000	0.000000
1.390000	57.090000	12.510000	420.000000	0.000000	145.000000	70.000000	31.000000	16.000000
1.400000	57.270000	12.700000	418.000000	0.000000	148.000000	70.000000	18.000000	19.000000
1.410000	57.350000	12.840000	425.000000	0.000000	148.000000	70.000000	8.000000	14.000000
1.420000	57.350000	12.980000	440.000000	0.000000	148.000000	70.000000	0.000000	14.000000
1.430000	57.290000	13.110000	469.000000	0.000000	148.000000	70.000000	-6.000000	13.000000
1.440000	57.290000	13.190000	493.000000	0.000000	148.000000	70.000000	0.000000	8.000000
1.450000	57.290000	13.190000	494.000000	0.000000	152.000000	70.000000	0.000000	0.000000
1.460000	57.290000	13.190000	514.000000	0.000000	152.000000	70.000000	0.000000	0.000000
1.470000	57.290000	13.190000	519.000000	0.000000	152.000000	70.000000	0.000000	0.000000
1.480000	57.490000	12.790000	536.000000	0.000000	152.000000	70.000000	20.000000	-40.000000
1.490000	57.680000	12.600000	550.000000	0.000000	152.000000	70.000000	19.000000	-19.000000
1.500000	57.920000	12.430000	556.000000	0.000000	152.000000	70.000000	24.000000	-17.000000
1.510000	58.150000	12.370000	559.000000	0.000000	152.000000	70.000000	23.000000	-6.000000
1.520000	58.370000	12.370000	561.000000	0.000000	149.000000	69.000000	22.000000	0.000000
1.530000	58.600000	12.530000	553.000000	0.000000	145.000000	70.000000	23.000000	16.000000
1.540000	58.760000	12.690000	541.000000	0.000000	143.000000	69.000000	16.000000	16.000000
1.550000	58.870000	12.850000	512.000000	0.000000	143.000000	69.000000	11.000000	16.000000
1.560000	58.950000	13.030000	514.000000	0.000000	141.000000	68.000000	8.000000	18.000000
1.570000	58.950000	13.220000	522.000000	0.000000	139.000000	68.000000	0.000000	19.000000
1.580000	58.950000	13.310000	533.000000	0.000000	139.000000	67.000000	0.000000	9.000000
1.590000	58.950000	13.310000	540.000000	0.000000	139.000000	67.000000	0.000000	0.000000
1.600000	58.950000	13.160000	551.000000	0.000000	139.000000	67.000000	0.000000	-15.000000
1.610000	58.950000	12.960000	561.000000	0.000000	139.000000	67.000000	0.000000	-20.000000
1.620000	58.950000	12.740000	570.000000	0.000000	139.000000	67.000000	0.000000	-22.000000
1.630000	59.120000	12.470000	570.000000	0.000000	139.000000	67.000000	17.000000	-27.000000
1.640000	59.330000	12.290000	563.000000	0.000000	139.000000	67.000000	21.000000	-18.000000
1.650000	59.600000	12.170000	569.000000	0.000000	137.000000	67.000000	27.000000	-12.000000
1.660000	59.900000	12.170000	560.000000	0.000000	137.000000	67.000000	30.000000	0.000000
1.670000	60.230000	12.280000	561.000000	0.000000	137.000000	67.000000	33.000000	11.000000
1.680000	60.510000	12.460000	542.000000	0.000000	135.000000	68.000000	28.000000	18.000000
1.690000	60.680000	12.690000	533.000000	0.000000	137.000000	69.000000	17.000000	23.000000
1.700000	60.790000	12.940000	505.000000	0.000000	137.000000	69.000000	11.000000	25.000000
1.710000	60.790000	13.200000	489.000000	0.000000	137.000000	69.000000	0.000000	26.000000
1.720000	60.700000	13.430000	489.000000	0.000000	137.000000	69.000000	-9.000000	23.000000
1.730000	60.600000	13.650000	494.000000	0.000000	139.000000	68.000000	-10.000000	22.000000
1.740000	60.500000	13.700000	526.000000	0.000000	139.000000	68.000000	-10.000000	5.000000
1.750000	60.370000	13.630000	536.000000	0.000000	140.000000	67.000000	-13.000000	-7.000000
1.760000	60.230000	13.480000	564.000000	0.000000	140.000000	67.000000	-14.000000	-15.000000
1.770000	60.130000	13.210000	570.000000	0.000000	140.000000	67.000000	-10.000000	-27.000000
1.780000	60.040000	12.870000	563.000000	0.000000	142.000000	66.000000	-9.000000	-34.000000
1.790000	60.040000	12.560000	561.000000	0.000000	140.000000	67.000000	0.000000	-31.000000
1.800000	60.210000	12.270000	567.000000	0.000000	140.000000	67.000000	17.000000	-29.000000
1.810000	60.550000	12.140000	567.000000	0.000000	140.000000	67.000000	34.000000	-13.000000
1.820000	60.950000	12.140000	556.000000	0.000000	141.000000	68.000000	40.000000	0.000000
1.830000	61.460000	12.250000	542.000000	0.000000	141.000000	68.000000	51.000000	11.000000
1.840000	62.050000	12.510000	553.000000	0.000000	139.000000	69.000000	59.000000	26.000000
1.850000	62.660000	12.840000	550.000000	0.000000	139.000000	69.000000	61.000000	33.000000
1.860000	63.010000	13.240000	556.000000	0.000000	141.000000	70.000000	35.000000	40.000000
1.870000	63.180000	13.660000	563.000000	0.000000	143.000000	69.000000	17.000000	42.000000
1.880000	63.180000	14.100000	565.000000	0.000000	143.000000	69.000000	0.000000	44.000000
1.890000	63.060000	14.590000	560.000000	0.000000	147.000000	69.000000	-12.000000	49.000000
1.900000	62.800000	15.080000	569.000000	0.000000	148.000000	68.000000	-26.000000	49.000000
1.910000	62.530000	15.560000	577.000000	0.000000	150.000000	67.000000	-27.000000	48.000000
1.920000	62.290000	15.890000	613.000000	0.000000	151.000000	66.000000	-24.000000	33.000000
1.930000	62.060000	15.940000	636.000000	0.000000	152.000000	65.000000	-23.000000	5.000000
1.940000	61.920000	15.810000	673.000000	0.000000	153.000000	65.000000	-14.000000	-13.000000
1.950000	61.800000	15.440000	724.000000	0.000000	154.000000	64.000000	-12.000000	-37.000000
1.960000	61.730000	14.870000	740.000000	0.000000	154.000000	64.000000	-7.000000	-57.000000
1.970000	61.730000	14.170000	762.000000	0.000000	153.000000	63.000000	0.000000	-70.000000
1.980000	61.890000	13.600000	780.000000	0.000000	153.000000	63.000000	16.000000	-57.000000
1.990000	62.160000	13.100000	790.000000	0.000000	151.000000	64.000000	27.000000	-50.000000
2.000000	62.460000	12.660000	780.000000	0.000000	150.000000	65.000000	30.000000	-44.000000
2.010000	62.740000	12.430000	757.000000	0.000000	151.000000	66.000000	28.000000	-23.000000
2.020000	63.000000	12.320000	690.000000	0.000000	150.000000	67.000000	26.000000	-11.000000
2.030000	63.240000	12.320000	475.000000	0.000000	148.000000	68.000000	24.000000	0.000000
2.040000	63.240000	12.320000	0.000000	1.000000	147.000000	69.000000	0.000000	0.000000
2.050000	63.840000	12.780000	0.000000	0.000000	149.000000	69.000000	60.000000	46.000000
2.060000	64.250000	13.250000	0.000000	0.000000	149.000000	69.000000	41.000000	47.000000
2.070000	64.730000	13.910000	0.000000	0.000000	151.000000	68.000000	48.000000	66.000000
2.080000	65.380000	14.650000	0.000000	0.000000	154.000000	68.000000	65.000000	74.000000
2.090000	66.130000	15.450000	0.000000	0.000000	155.000000	67.000000	75.000000	80.000000
2.100000	67.060000	15.890000	0.000000	0.000000	160.000000	66.000000	93.000000	44.000000
2.110000	68.010000	16.100000	0.000000	0.000000	163.000000	64.000000	95.000000	21.000000
2.120000	68.740000	16.160000	0.000000	0.000000	165.000000	62.000000	73.000000	6.000000
2.130000	69.320000	16.110000	0.000000	0.000000	165.000000	61.000000	58.000000	-5.000000
2.140000	69.460000	16.060000	0.000000	0.000000	166.000000	59.000000	14.000000	-5.000000
2.150000	69.240000	16.000000	0.000000	0.000000	166.000000	59.000000	-22.000000	-6.000000
2.160000	69.240000	16.000000	420.000000	1.000000	167.000000	58.000000	0.000000	0.000000
2.170000	68.360000	16.000000	458.000000	0.000000	167.000000	58.000000	-88.000000	0.000000
2.180000	67.960000	16.160000	452.000000	0.000000	167.000000	58.000000	-40.000000	16.000000
2.190000	67.770000	16.220000	483.000000	0.000000	167.000000	58.000000	-19.000000	6.000000
2.200000	67.710000	16.170000	520.000000	0.000000	166.000000	59.000000	-6.000000	-5.000000
2.210000	67.790000	15.870000	535.000000	0.000000	168.000000	59.000000	8.000000	-30.000000
