t	x	y	pressure	penup	azimuth	inclination	v_x	v_y
0.000000	13.400000	86.480000	53.000000	1.000000	120.000000	64.000000	0.000000	0.000000
0.010000	13.460000	86.820000	149.000000	0.000000	120.000000	64.000000	6.000000	34.000000
0.020000	13.530000	86.980000	195.000000	0.000000	120.000000	64.000000	7.000000	16.000000
0.030000	13.640000	87.150000	257.000000	0.000000	117.000000	63.000000	11.000000	17.000000
0.040000	13.830000	87.240000	312.000000	0.000000	117.000000	63.000000	19.000000	9.000000
0.050000	14.080000	87.310000	363.000000	0.000000	117.000000	63.000000	25.000000	7.000000
0.060000	14.410000	87.310000	394.000000	0.000000	117.000000	63.000000	33.000000	0.000000
0.070000	14.750000	87.360000	447.000000	0.000000	116.000000	63.000000	34.000000	5.000000
0.080000	15.090000	87.360000	477.000000	0.000000	116.000000	63.000000	34.000000	0.000000
0.090000	15.350000	87.360000	512.000000	0.000000	116.000000	63.000000	26.000000	0.000000
0.100000	15.550000	87.120000	567.000000	0.000000	115.000000	62.000000	20.000000	-24.000000
0.110000	15.700000	86.830000	595.000000	0.000000	115.000000	62.000000	15.000000	-29.000000
0.120000	15.700000	86.330000	611.000000	0.000000	115.000000	62.000000	0.000000	-50.000000
0.130000	15.560000	85.660000	628.000000	0.000000	115.000000	62.000000	-14.000000	-67.000000
0.140000	15.280000	84.890000	636.000000	0.000000	115.000000	62.000000	-28.000000	-77.000000
0.150000	14.980000	84.160000	653.000000	0.000000	115.000000	62.000000	-30.000000	-73.000000
0.160000	14.670000	83.520000	658.000000	0.000000	117.000000	61.000000	-31.000000	-64.000000
0.170000	14.340000	82.930000	655.000000	0.000000	117.000000	61.000000	-33.000000	-59.000000
0.180000	14.100000	82.540000	662.000000	0.000000	117.000000	61.000000	-24.000000	-39.000000
0.190000	14.100000	82.540000	665.000000	0.000000	118.000000	60.000000	0.000000	0.000000
0.200000	13.810000	82.370000	656.000000	0.000000	118.000000	60.000000	-29.000000	-17.000000
0.210000	13.810000	82.440000	655.000000	0.000000	117.000000	59.000000	0.000000	7.000000
0.220000	13.810000	82.540000	655.000000	0.000000	116.000000	58.000000	0.000000	10.000000
0.230000	13.810000	82.650000	650.000000	0.000000	116.000000	58.000000	0.000000	11.000000
0.240000	13.810000	82.650000	643.000000	0.000000	116.000000	58.000000	0.000000	0.000000
0.250000	13.810000	82.650000	638.000000	0.000000	115.000000	58.000000	0.000000	0.000000
0.260000	13.810000	82.650000	638.000000	0.000000	115.000000	58.000000	0.000000	0.000000
0.270000	13.890000	82.650000	641.000000	0.000000	115.000000	58.000000	8.000000	0.000000
0.280000	13.960000	82.650000	643.000000	0.000000	115.000000	58.000000	7.000000	0.000000
0.290000	13.960000	82.650000	655.000000	0.000000	115.000000	58.000000	0.000000	0.000000
0.300000	14.050000	82.580000	655.000000	0.000000	115.000000	58.000000	9.000000	-7.000000
0.310000	14.110000	82.580000	653.000000	0.000000	115.000000	58.000000	6.000000	0.000000
0.320000	14.110000	82.580000	646.000000	0.000000	115.000000	58.000000	0.000000	0.000000
0.330000	14.110000	82.580000	641.000000	0.000000	115.000000	58.000000	0.000000	0.000000
0.340000	14.110000	82.580000	640.000000	0.000000	115.000000	58.000000	0.000000	0.000000
0.350000	14.110000	82.580000	640.000000	0.000000	115.000000	58.000000	0.000000	0.000000
0.360000	14.110000	82.580000	641.000000	0.000000	115.000000	58.000000	0.000000	0.000000
0.370000	14.110000	82.580000	653.000000	0.000000	115.000000	58.000000	0.000000	0.000000
0.380000	14.110000	82.580000	659.000000	0.000000	115.000000	58.000000	0.000000	0.000000
0.390000	14.110000	82.580000	659.000000	0.000000	115.000000	58.000000	0.000000	0.000000
0.400000	14.110000	82.580000	662.000000	0.000000	115.000000	58.000000	0.000000	0.000000
0.410000	14.110000	82.580000	662.000000	0.000000	115.000000	58.000000	0.000000	0.000000
0.420000	14.110000	82.580000	664.000000	0.000000	115.000000	58.000000	0.000000	0.000000
0.430000	14.110000	82.580000	664.000000	0.000000	115.000000	58.000000	0.000000	0.000000
0.440000	14.110000	82.580000	668.000000	0.000000	115.000000	58.000000	0.000000	0.000000
0.450000	14.110000	82.580000	662.000000	0.000000	115.000000	58.000000	0.000000	0.000000
0.460000	14.110000	82.580000	662.000000	0.000000	115.000000	58.000000	0.000000	0.000000
0.470000	14.110000	82.580000	659.000000	0.000000	115.000000	58.000000	0.000000	0.000000
0.480000	14.110000	82.580000	659.000000	0.000000	115.000000	58.000000	0.000000	0.000000
0.490000	14.110000	82.580000	658.000000	0.000000	115.000000	58.000000	0.000000	0.000000
0.500000	14.110000	82.580000	658.000000	0.000000	115.000000	58.000000	0.000000	0.000000
0.510000	14.110000	82.580000	659.000000	0.000000	115.000000	58.000000	0.000000	0.000000
0.520000	14.110000	82.580000	662.000000	0.000000	115.000000	58.000000	0.000000	0.000000
0.530000	14.110000	82.580000	662.000000	0.000000	115.000000	58.000000	0.000000	0.000000
0.540000	14.110000	82.580000	673.000000	0.000000	115.000000	58.000000	0.000000	0.000000
0.550000	14.110000	82.580000	664.000000	0.000000	115.000000	58.000000	0.000000	0.000000
0.560000	14.110000	82.580000	668.000000	0.000000	115.000000	58.000000	0.000000	0.000000
0.570000	14.110000	82.580000	668.000000	0.000000	115.000000	58.000000	0.000000	0.000000
0.580000	14.110000	82.580000	678.000000	0.000000	116.000000	58.000000	0.000000	0.000000
0.590000	14.350000	82.270000	699.000000	0.000000	116.000000	58.000000	24.000000	-31.000000
0.600000	14.620000	81.900000	708.000000	0.000000	116.000000	58.000000	27.000000	-37.000000
0.610000	14.900000	81.690000	728.000000	0.000000	117.000000	59.000000	28.000000	-21.000000
0.620000	15.190000	81.480000	756.000000	0.000000	117.000000	59.000000	29.000000	-21.000000
0.630000	15.490000	81.250000	780.000000	0.000000	117.000000	59.000000	30.000000	-23.000000
0.640000	15.720000	80.980000	814.000000	0.000000	117.000000	59.000000	23.000000	-27.000000
0.650000	15.920000	80.690000	829.000000	0.000000	118.000000	60.000000	20.000000	-29.000000
0.660000	16.080000	80.530000	827.000000	0.000000	118.000000	60.000000	16.000000	-16.000000
0.670000	16.150000	80.410000	824.000000	0.000000	118.000000	60.000000	7.000000	-12.000000
0.680000	16.150000	80.310000	783.000000	0.000000	117.000000	59.000000	0.000000	-10.000000
0.690000	16.200000	80.310000	716.000000	0.000000	117.000000	59.000000	5.000000	0.000000
0.700000	16.200000	80.310000	425.000000	0.000000	115.000000	60.000000	0.000000	0.000000
0.710000	16.200000	80.310000	0.000000	1.000000	114.000000	59.000000	0.000000	0.000000
0.720000	15.900000	80.480000	0.000000	0.000000	114.000000	59.000000	-30.000000	17.000000
0.730000	15.670000	80.680000	0.000000	0.000000	113.000000	60.000000	-23.000000	20.000000
0.740000	15.400000	80.990000	0.000000	0.000000	113.000000	60.000000	-27.000000	31.000000
0.750000	15.300000	81.300000	0.000000	0.000000	114.000000	61.000000	-10.000000	31.000000
0.760000	15.300000	81.590000	0.000000	0.000000	115.000000	63.000000	0.000000	29.000000
0.770000	15.300000	81.850000	0.000000	0.000000	116.000000	64.000000	0.000000	26.000000
0.780000	15.570000	82.100000	0.000000	0.000000	114.000000	64.000000	27.000000	25.000000
0.790000	15.890000	82.320000	0.000000	0.000000	113.000000	63.000000	32.000000	22.000000
0.800000	16.410000	82.560000	0.000000	0.000000	112.000000	62.000000	52.000000	24.000000
0.810000	16.700000	82.560000	0.000000	0.000000	110.000000	60.000000	29.000000	0.000000
0.820000	16.840000	82.490000	0.000000	0.000000	109.000000	59.000000	14.000000	-7.000000
0.830000	16.840000	82.280000	0.000000	0.000000	107.000000	57.000000	0.000000	-21.000000
0.840000	16.780000	82.350000	0.000000	0.000000	107.000000	56.000000	-6.000000	7.000000
0.850000	16.730000	82.600000	0.000000	0.000000	106.000000	54.000000	-5.000000	25.000000
0.860000	16.670000	82.920000	0.000000	0.000000	105.000000	53.000000	-6.000000	32.000000
0.870000	16.670000	83.250000	0.000000	0.000000	106.000000	53.000000	0.000000	33.000000
0.880000	16.670000	83.580000	0.000000	0.000000	106.000000	53.000000	0.000000	33.000000
0.890000	16.810000	83.690000	0.000000	0.000000	108.000000	54.000000	14.000000	11.000000
0.900000	16.920000	83.620000	0.000000	0.000000	108.000000	54.000000	11.000000	-7.000000
0.910000	17.000000	83.430000	0.000000	0.000000	108.000000	54.000000	8.000000	-19.000000
0.920000	17.000000	83.190000	0.000000	0.000000	110.000000	53.000000	0.000000	-24.000000
0.930000	17.000000	82.930000	0.000000	0.000000	110.000000	53.000000	0.000000	-26.000000
0.940000	17.000000	82.770000	0.000000	0.000000	110.000000	54.000000	0.000000	-16.000000
0.950000	17.000000	82.690000	0.000000	0.000000	110.000000	54.000000	0.000000	-8.000000
0.960000	17.000000	82.690000	0.000000	0.000000	110.000000	54.000000	0.000000	0.000000
0.970000	17.070000	82.690000	0.000000	0.000000	111.000000	55.000000	7.000000	0.000000
0.980000	17.070000	82.770000	0.000000	0.000000	111.000000	55.000000	0.000000	8.000000
0.990000	17.070000	82.880000	0.000000	0.000000	110.000000	55.000000	0.000000	11.000000
1.000000	17.130000	82.990000	0.000000	0.000000	110.000000	55.000000	6.000000	11.000000
1.010000	17.130000	83.060000	0.000000	0.000000	110.000000	55.000000	0.000000	7.000000
1.020000	17.130000	83.110000	0.000000	0.000000	110.000000	55.000000	0.000000	5.000000
1.030000	17.130000	83.110000	0.000000	0.000000	110.000000	55.000000	0.000000	0.000000
1.040000	17.200000	83.050000	0.000000	0.000000	110.000000	55.000000	7.000000	-6.000000
1.050000	17.200000	82.950000	0.000000	0.000000	110.000000	55.000000	0.000000	-10.000000
1.060000	17.150000	82.850000	0.000000	0.000000	110.000000	55.000000	-5.000000	-10.000000
1.070000	17.080000	82.730000	0.000000	0.000000	112.000000	56.000000	-7.000000	-12.000000
1.080000	17.010000	82.650000	0.000000	0.000000	110.000000	56.000000	-7.000000	-8.000000
1.090000	17.010000	82.590000	0.000000	0.000000	110.000000	56.000000	0.000000	-6.000000
1.100000	17.010000	82.590000	0.000000	0.000000	110.000000	56.000000	0.000000	0.000000
1.110000	17.010000	82.500000	0.000000	0.000000	111.000000	57.000000	0.000000	-9.000000
1.120000	17.010000	82.500000	0.000000	0.000000	111.000000	57.000000	0.000000	0.000000
1.130000	16.920000	82.450000	0.000000	0.000000	111.000000	57.000000	-9.000000	-5.000000
1.140000	16.920000	82.450000	0.000000	0.000000	112.000000	58.000000	0.000000	0.000000
1.150000	17.000000	82.450000	0.000000	0.000000	112.000000	58.000000	8.000000	0.000000
1.160000	17.060000	82.450000	0.000000	0.000000	113.000000	59.000000	6.000000	0.000000
1.170000	17.140000	82.500000	0.000000	0.000000	113.000000	59.000000	8.000000	5.000000
1.180000	17.210000	82.550000	0.000000	0.000000	113.000000	59.000000	7.000000	5.000000
1.190000	17.210000	82.550000	0.000000	0.000000	113.000000	59.000000	0.000000	0.000000
1.200000	17.270000	82.550000	0.000000	0.000000	113.000000	59.000000	6.000000	0.000000
1.210000	17.270000	82.490000	0.000000	0.000000	113.000000	59.000000	0.000000	-6.000000
1.220000	17.270000	82.440000	0.000000	0.000000	113.000000	59.000000	0.000000	-5.000000
1.230000	17.270000	82.380000	0.000000	0.000000	113.000000	59.000000	0.000000	-6.000000
1.240000	17.270000	82.310000	0.000000	0.000000	113.000000	60.000000	0.000000	-7.000000
1.250000	17.270000	82.240000	0.000000	0.000000	113.000000	60.000000	0.000000	-7.000000
1.260000	17.270000	82.180000	0.000000	0.000000	113.000000	60.000000	0.000000	-6.000000
1.270000	17.340000	82.110000	0.000000	0.000000	113.000000	60.000000	7.000000	-7.000000
1.280000	17.410000	82.110000	0.000000	0.000000	113.000000	60.000000	7.000000	0.000000
1.290000	17.510000	82.110000	0.000000	0.000000	113.000000	60.000000	10.000000	0.000000
1.300000	17.620000	82.210000	0.000000	0.000000	113.000000	60.000000	11.000000	10.000000
1.310000	17.780000	82.280000	0.000000	0.000000	113.000000	60.000000	16.000000	7.000000
1.320000	17.780000	82.330000	0.000000	0.000000	113.000000	60.000000	0.000000	5.000000
1.330000	17.730000	82.380000	0.000000	0.000000	113.000000	60.000000	-5.000000	5.000000
1.340000	17.780000	82.380000	0.000000	0.000000	113.000000	60.000000	5.000000	0.000000
1.350000	17.780000	82.380000	0.000000	0.000000	114.000000	61.000000	0.000000	0.000000
1.360000	17.880000	82.450000	0.000000	0.000000	114.000000	61.000000	10.000000	7.000000
1.370000	17.970000	82.450000	0.000000	0.000000	114.000000	61.000000	9.000000	0.000000
1.380000	18.050000	82.510000	0.000000	0.000000	114.000000	61.000000	8.000000	6.000000
1.390000	18.160000	82.580000	0.000000	0.000000	114.000000	61.000000	11.000000	7.000000
1.400000	18.240000	82.690000	0.000000	0.000000	114.000000	61.000000	8.000000	11.000000
1.410000	18.340000	82.740000	0.000000	0.000000	114.000000	61.000000	10.000000	5.000000
1.420000	18.340000	82.740000	0.000000	0.000000	116.000000	60.000000	0.000000	0.000000
1.430000	18.340000	82.740000	24.000000	1.000000	116.000000	60.000000	0.000000	0.000000
1.440000	18.340000	82.740000	94.000000	0.000000	116.000000	60.000000	0.000000	0.000000
1.450000	18.340000	82.740000	161.000000	0.000000	116.000000	60.000000	0.000000	0.000000
1.460000	18.340000	82.740000	207.000000	0.000000	116.000000	60.000000	0.000000	0.000000
1.470000	18.340000	82.740000	267.000000	0.000000	118.000000	60.000000	0.000000	0.000000
1.480000	18.340000	82.740000	309.000000	0.000000	118.000000	60.000000	0.000000	0.000000
1.490000	18.030000	82.900000	364.000000	0.000000	119.000000	61.000000	-31.000000	16.000000
1.500000	17.950000	82.960000	396.000000	0.000000	119.000000	61.000000	-8.000000	6.000000
1.510000	17.850000	82.960000	389.000000	0.000000	119.000000	61.000000	-10.000000	0.000000
1.520000	17.700000	82.960000	430.000000	0.000000	119.000000	61.000000	-15.000000	0.000000
1.530000	17.510000	82.960000	456.000000	0.000000	119.000000	61.000000	-19.000000	0.000000
1.540000	17.350000	82.960000	465.000000	0.000000	119.000000	61.000000	-16.000000	0.000000
1.550000	17.150000	82.890000	477.000000	0.000000	119.000000	61.000000	-20.000000	-7.000000
1.560000	16.920000	82.710000	480.000000	0.000000	118.000000	60.000000	-23.000000	-18.000000
1.570000	16.770000	82.460000	483.000000	0.000000	118.000000	60.000000	-15.000000	-25.000000
1.580000	16.630000	82.180000	483.000000	0.000000	117.000000	59.000000	-14.000000	-28.000000
1.590000	16.630000	81.910000	477.000000	0.000000	117.000000	59.000000	0.000000	-27.000000
1.600000	16.730000	81.690000	472.000000	0.000000	117.000000	59.000000	10.000000	-22.000000
1.610000	16.870000	81.510000	467.000000	0.000000	116.000000	58.000000	14.000000	-18.000000
1.620000	17.030000	81.510000	475.000000	0.000000	116.000000	58.000000	16.000000	0.000000
1.630000	17.240000	81.430000	475.000000	0.000000	116.000000	58.000000	21.000000	-8.000000
1.640000	17.470000	81.430000	477.000000	0.000000	116.000000	58.000000	23.000000	0.000000
1.650000	17.680000	81.560000	481.000000	0.000000	116.000000	58.000000	21.000000	13.000000
1.660000	17.840000	81.710000	485.000000	0.000000	117.000000	59.000000	16.000000	15.000000
1.670000	17.970000	81.900000	495.000000	0.000000	117.000000	59.000000	13.000000	19.000000
1.680000	18.040000	82.130000	492.000000	0.000000	118.000000	60.000000	7.000000	23.000000
1.690000	18.040000	82.340000	499.000000	0.000000	118.000000	60.000000	0.000000	21.000000
1.700000	18.040000	82.540000	512.000000	0.000000	118.000000	60.000000	0.000000	20.000000
1.710000	18.040000	82.540000	529.000000	0.000000	119.000000	61.000000	0.000000	0.000000
1.720000	17.980000	82.440000	541.000000	0.000000	119.000000	61.000000	-6.000000	-10.000000
1.730000	17.980000	82.190000	543.000000	0.000000	119.000000	61.000000	0.000000	-25.000000
1.740000	17.980000	81.890000	545.000000	0.000000	119.000000	61.000000	0.000000	-30.000000
1.750000	17.980000	81.570000	548.000000	0.000000	119.000000	61.000000	0.000000	-32.000000
1.760000	18.170000	81.340000	543.000000	0.000000	119.000000	61.000000	19.000000	-23.000000
1.770000	18.330000	81.200000	542.000000	0.000000	118.000000	60.000000	16.000000	-14.000000
1.780000	18.480000	81.120000	488.000000	0.000000	118.000000	60.000000	15.000000	-8.000000
1.790000	18.710000	81.120000	282.000000	0.000000	118.000000	60.000000	23.000000	0.000000
1.800000	18.710000	81.120000	0.000000	1.000000	118.000000	60.000000	0.000000	0.000000
1.810000	19.150000	81.510000	0.000000	0.000000	115.000000	60.000000	44.000000	39.000000
1.820000	19.150000	81.870000	0.000000	0.000000	115.000000	60.000000	0.000000	36.000000
1.830000	19.150000	82.290000	0.000000	0.000000	115.000000	60.000000	0.000000	42.000000
1.840000	19.090000	82.740000	0.000000	0.000000	114.000000	59.000000	-6.000000	45.000000
1.850000	19.090000	82.970000	0.000000	0.000000	114.000000	59.000000	0.000000	23.000000
1.860000	19.090000	82.970000	0.000000	0.000000	114.000000	59.000000	0.000000	0.000000
1.870000	19.200000	82.860000	0.000000	0.000000	113.000000	58.000000	11.000000	-11.000000
1.880000	19.310000	82.760000	0.000000	0.000000	113.000000	58.000000	11.000000	-10.000000
1.890000	19.440000	82.700000	0.000000	0.000000	113.000000	58.000000	13.000000	-6.000000
1.900000	19.580000	82.700000	0.000000	0.000000	113.000000	57.000000	14.000000	0.000000
1.910000	19.730000	82.700000	0.000000	0.000000	113.000000	57.000000	15.000000	0.000000
1.920000	19.870000	82.700000	0.000000	0.000000	113.000000	57.000000	14.000000	0.000000
1.930000	20.000000	82.750000	0.000000	0.000000	113.000000	57.000000	13.000000	5.000000
1.940000	20.110000	82.750000	0.000000	0.000000	113.000000	57.000000	11.000000	0.000000
1.950000	20.110000	82.750000	0.000000	0.000000	113.000000	57.000000	0.000000	0.000000
1.960000	20.110000	82.750000	0.000000	0.000000	113.000000	57.000000	0.000000	0.000000
1.970000	20.110000	82.750000	0.000000	0.000000	113.000000	58.000000	0.000000	0.000000
1.980000	20.110000	82.750000	0.000000	0.000000	113.000000	58.000000	0.000000	0.000000
1.990000	20.110000	82.750000	0.000000	0.000000	113.000000	58.000000	0.000000	0.000000
2.000000	20.110000	82.750000	0.000000	0.000000	113.000000	58.000000	0.000000	0.000000
2.010000	20.110000	82.750000	0.000000	0.000000	114.000000	59.000000	0.000000	0.000000
2.020000	20.110000	82.750000	8.000000	0.000000	114.000000	59.000000	0.000000	0.000000
2.030000	19.950000	83.000000	68.000000	1.000000	114.000000	59.000000	0.000000	0.000000
2.040000	20.020000	83.060000	139.000000	0.000000	114.000000	59.000000	7.000000	6.000000
2.050000	20.020000	83.060000	218.000000	0.000000	114.000000	59.000000	0.000000	0.000000
2.060000	20.020000	83.110000	311.000000	0.000000	114.000000	59.000000	0.000000	5.000000
2.070000	20.020000	83.110000	398.000000	0.000000	114.000000	59.000000	0.000000	0.000000
2.080000	20.020000	83.110000	465.000000	0.000000	114.000000	59.000000	0.000000	0.000000
2.090000	20.020000	83.110000	526.000000	0.000000	114.000000	59.000000	0.000000	0.000000
2.100000	20.020000	83.110000	572.000000	0.000000	114.000000	59.000000	0.000000	0.000000
2.110000	20.020000	83.110000	611.000000	0.000000	114.000000	59.000000	0.000000	0.000000
2.120000	20.020000	83.160000	650.000000	0.000000	114.000000	59.000000	0.000000	5.000000
2.130000	19.950000	83.160000	668.000000	0.000000	114.000000	59.000000	-7.000000	0.000000
2.140000	19.900000	83.160000	667.000000	0.000000	114.000000	59.000000	-5.000000	0.000000
2.150000	19.760000	83.160000	671.000000	0.000000	114.000000	59.000000	-14.000000	0.000000
2.160000	19.540000	83.030000	664.000000	0.000000	116.000000	58.000000	-22.000000	-13.000000
2.170000	19.260000	82.860000	661.000000	0.000000	116.000000	58.000000	-28.000000	-17.000000
2.180000	18.980000	82.650000	644.000000	0.000000	116.000000	58.000000	-28.000000	-21.000000
2.190000	18.720000	82.410000	656.000000	0.000000	116.000000	58.000000	-26.000000	-24.000000
2.200000	18.530000	82.130000	662.000000	0.000000	116.000000	58.000000	-19.000000	-28.000000
2.210000	18.530000	81.830000	659.000000	0.000000	116.000000	58.000000	0.000000	-30.000000
2.220000	18.530000	81.600000	661.000000	0.000000	116.000000	58.000000	0.000000	-23.000000
2.230000	18.680000	81.420000	662.000000	0.000000	115.000000	58.000000	15.000000	-18.000000
2.240000	18.830000	81.250000	661.000000	0.000000	115.000000	58.000000	15.000000	-17.000000
