t	x	y	pressure	penup	azimuth	inclination	v_x	v_y
0.000000	49.680000	32.780000	193.000000	1.000000	151.000000	63.000000	0.000000	0.000000
0.010000	49.680000	32.780000	262.000000	0.000000	151.000000	63.000000	0.000000	0.000000
0.020000	49.680000	32.780000	322.000000	0.000000	151.000000	63.000000	0.000000	0.000000
0.030000	49.680000	32.780000	468.000000	0.000000	151.000000	63.000000	0.000000	0.000000
0.040000	49.680000	32.780000	564.000000	0.000000	151.000000	63.000000	0.000000	0.000000
0.050000	49.680000	32.780000	613.000000	0.000000	151.000000	63.000000	0.000000	0.000000
0.060000	49.680000	32.780000	673.000000	0.000000	151.000000	63.000000	0.000000	0.000000
0.070000	49.520000	32.300000	724.000000	0.000000	149.000000	63.000000	-16.000000	-48.000000
0.080000	49.470000	31.760000	736.000000	0.000000	149.000000	63.000000	-5.000000	-54.000000
0.090000	49.380000	31.200000	743.000000	0.000000	149.000000	63.000000	-9.000000	-56.000000
0.100000	49.380000	30.630000	749.000000	0.000000	149.000000	63.000000	0.000000	-57.000000
0.110000	49.380000	30.060000	737.000000	0.000000	148.000000	63.000000	0.000000	-57.000000
0.120000	49.380000	29.620000	703.000000	0.000000	148.000000	63.000000	0.000000	-44.000000
0.130000	49.440000	29.260000	613.000000	0.000000	146.000000	63.000000	6.000000	-36.000000
0.140000	49.500000	29.110000	445.000000	0.000000	146.000000	63.000000	6.000000	-15.000000
0.150000	49.500000	29.110000	8.000000	1.000000	146.000000	63.000000	0.000000	0.000000
0.160000	49.500000	29.110000	0.000000	0.000000	146.000000	63.000000	0.000000	0.000000
0.170000	49.310000	29.690000	0.000000	0.000000	145.000000	64.000000	-19.000000	58.000000
0.180000	49.010000	30.200000	0.000000	0.000000	145.000000	64.000000	-30.000000	51.000000
0.190000	48.620000	30.790000	0.000000	0.000000	145.000000	64.000000	-39.000000	59.000000
0.200000	48.110000	31.490000	0.000000	0.000000	145.000000	64.000000	-51.000000	70.000000
0.210000	47.560000	32.110000	0.000000	0.000000	145.000000	64.000000	-55.000000	62.000000
0.220000	46.970000	32.670000	0.000000	0.000000	146.000000	63.000000	-59.000000	56.000000
0.230000	46.580000	33.520000	0.000000	0.000000	146.000000	63.000000	-39.000000	85.000000
0.240000	46.390000	33.800000	0.000000	0.000000	146.000000	63.000000	-19.000000	28.000000
0.250000	46.390000	33.800000	522.000000	1.000000	147.000000	62.000000	0.000000	0.000000
0.260000	46.390000	33.800000	581.000000	0.000000	147.000000	62.000000	0.000000	0.000000
0.270000	46.390000	33.800000	581.000000	0.000000	147.000000	62.000000	0.000000	0.000000
0.280000	46.390000	33.800000	643.000000	0.000000	144.000000	62.000000	0.000000	0.000000
0.290000	46.390000	33.800000	710.000000	0.000000	144.000000	62.000000	0.000000	0.000000
0.300000	46.800000	33.970000	740.000000	0.000000	144.000000	62.000000	41.000000	17.000000
0.310000	47.490000	34.100000	757.000000	0.000000	144.000000	62.000000	69.000000	13.000000
0.320000	48.450000	34.180000	779.000000	0.000000	144.000000	62.000000	96.000000	8.000000
0.330000	49.420000	34.240000	784.000000	0.000000	144.000000	62.000000	97.000000	6.000000
0.340000	50.330000	34.240000	782.000000	0.000000	146.000000	63.000000	91.000000	0.000000
0.350000	51.200000	34.080000	767.000000	0.000000	146.000000	63.000000	87.000000	-16.000000
0.360000	51.860000	33.820000	765.000000	0.000000	146.000000	63.000000	66.000000	-26.000000
0.370000	52.190000	33.410000	760.000000	0.000000	148.000000	63.000000	33.000000	-41.000000
0.380000	52.300000	32.980000	767.000000	0.000000	148.000000	63.000000	11.000000	-43.000000
0.390000	52.060000	32.520000	788.000000	0.000000	148.000000	63.000000	-24.000000	-46.000000
0.400000	51.560000	32.030000	790.000000	0.000000	148.000000	63.000000	-50.000000	-49.000000
0.410000	50.880000	31.550000	809.000000	0.000000	148.000000	63.000000	-68.000000	-48.000000
0.420000	50.030000	31.200000	818.000000	0.000000	148.000000	63.000000	-85.000000	-35.000000
0.430000	49.180000	30.930000	825.000000	0.000000	148.000000	63.000000	-85.000000	-27.000000
0.440000	48.580000	30.870000	817.000000	0.000000	148.000000	63.000000	-60.000000	-6.000000
0.450000	48.140000	30.920000	805.000000	0.000000	146.000000	63.000000	-44.000000	5.000000
0.460000	47.940000	31.050000	788.000000	0.000000	146.000000	63.000000	-20.000000	13.000000
0.470000	47.940000	31.050000	759.000000	0.000000	146.000000	62.000000	0.000000	0.000000
0.480000	48.160000	31.050000	753.000000	0.000000	146.000000	62.000000	22.000000	0.000000
0.490000	48.620000	30.960000	760.000000	0.000000	146.000000	62.000000	46.000000	-9.000000
0.500000	49.090000	30.790000	750.000000	0.000000	143.000000	62.000000	47.000000	-17.000000
0.510000	49.580000	30.540000	757.000000	0.000000	143.000000	62.000000	49.000000	-25.000000
0.520000	49.950000	30.300000	762.000000	0.000000	143.000000	62.000000	37.000000	-24.000000
0.530000	50.250000	30.050000	767.000000	0.000000	144.000000	62.000000	30.000000	-25.000000
0.540000	50.600000	29.870000	759.000000	0.000000	144.000000	62.000000	35.000000	-18.000000
0.550000	50.930000	29.720000	727.000000	0.000000	144.000000	62.000000	33.000000	-15.000000
0.560000	51.260000	29.720000	611.000000	0.000000	145.000000	64.000000	33.000000	0.000000
0.570000	51.600000	29.720000	98.000000	0.000000	145.000000	64.000000	34.000000	0.000000
0.580000	51.600000	29.720000	0.000000	1.000000	145.000000	64.000000	0.000000	0.000000
0.590000	52.510000	29.980000	0.000000	0.000000	145.000000	64.000000	91.000000	26.000000
0.600000	52.910000	30.170000	0.000000	0.000000	146.000000	64.000000	40.000000	19.000000
0.610000	53.260000	30.370000	0.000000	0.000000	146.000000	64.000000	35.000000	20.000000
0.620000	53.660000	30.490000	0.000000	0.000000	146.000000	64.000000	40.000000	12.000000
0.630000	53.980000	30.580000	0.000000	0.000000	146.000000	64.000000	32.000000	9.000000
0.640000	54.140000	30.580000	0.000000	0.000000	146.000000	64.000000	16.000000	0.000000
0.650000	54.200000	30.580000	0.000000	0.000000	146.000000	64.000000	6.000000	0.000000
0.660000	54.200000	30.580000	516.000000	1.000000	148.000000	65.000000	0.000000	0.000000
0.670000	53.790000	30.590000	540.000000	0.000000	148.000000	65.000000	-41.000000	1.000000
0.680000	53.430000	30.730000	563.000000	0.000000	148.000000	65.000000	-36.000000	14.000000
0.690000	53.090000	30.860000	586.000000	0.000000	148.000000	65.000000	-34.000000	13.000000
0.700000	52.760000	30.950000	605.000000	0.000000	148.000000	65.000000	-33.000000	9.000000
0.710000	52.600000	31.020000	538.000000	0.000000	150.000000	64.000000	-16.000000	7.000000
0.720000	52.540000	31.020000	499.000000	0.000000	150.000000	64.000000	-6.000000	0.000000
0.730000	52.400000	30.860000	486.000000	0.000000	150.000000	64.000000	-14.000000	-16.000000
0.740000	52.280000	30.630000	467.000000	0.000000	150.000000	64.000000	-12.000000	-23.000000
0.750000	52.160000	30.300000	475.000000	0.000000	150.000000	64.000000	-12.000000	-33.000000
0.760000	52.110000	30.010000	480.000000	0.000000	150.000000	64.000000	-5.000000	-29.000000
0.770000	52.110000	29.750000	491.000000	0.000000	146.000000	64.000000	0.000000	-26.000000
0.780000	52.190000	29.620000	491.000000	0.000000	146.000000	64.000000	8.000000	-13.000000
0.790000	52.370000	29.620000	485.000000	0.000000	146.000000	64.000000	18.000000	0.000000
0.800000	52.650000	29.620000	474.000000	0.000000	146.000000	64.000000	28.000000	0.000000
0.810000	53.020000	29.820000	441.000000	0.000000	146.000000	64.000000	37.000000	20.000000
0.820000	53.320000	30.030000	435.000000	0.000000	146.000000	64.000000	30.000000	21.000000
0.830000	53.580000	30.250000	449.000000	0.000000	146.000000	64.000000	26.000000	22.000000
0.840000	53.730000	30.320000	490.000000	0.000000	148.000000	65.000000	15.000000	7.000000
0.850000	53.790000	30.320000	509.000000	0.000000	148.000000	65.000000	6.000000	0.000000
0.860000	53.790000	30.320000	522.000000	0.000000	148.000000	65.000000	0.000000	0.000000
0.870000	53.790000	30.260000	514.000000	0.000000	148.000000	65.000000	0.000000	-6.000000
0.880000	53.940000	30.150000	466.000000	0.000000	148.000000	65.000000	15.000000	-11.000000
0.890000	54.130000	30.040000	399.000000	0.000000	148.000000	65.000000	19.000000	-11.000000
0.900000	54.390000	30.040000	246.000000	0.000000	150.000000	65.000000	26.000000	0.000000
0.910000	54.390000	30.040000	0.000000	1.000000	150.000000	65.000000	0.000000	0.000000
0.920000	55.170000	30.170000	0.000000	0.000000	150.000000	65.000000	78.000000	13.000000
0.930000	55.560000	30.300000	0.000000	0.000000	150.000000	65.000000	39.000000	13.000000
0.940000	55.840000	30.430000	0.000000	0.000000	150.000000	65.000000	28.000000	13.000000
0.950000	55.840000	30.430000	158.000000	1.000000	152.000000	65.000000	0.000000	0.000000
0.960000	56.040000	30.680000	282.000000	0.000000	152.000000	65.000000	20.000000	25.000000
0.970000	56.040000	30.780000	394.000000	0.000000	152.000000	65.000000	0.000000	10.000000
0.980000	55.950000	30.850000	486.000000	0.000000	152.000000	65.000000	-9.000000	7.000000
0.990000	55.840000	30.960000	493.000000	0.000000	152.000000	65.000000	-11.000000	11.000000
1.000000	55.680000	31.080000	491.000000	0.000000	153.000000	65.000000	-16.000000	12.000000
1.010000	55.490000	31.140000	446.000000	0.000000	153.000000	65.000000	-19.000000	6.000000
1.020000	55.260000	31.140000	438.000000	0.000000	153.000000	65.000000	-23.000000	0.000000
1.030000	55.010000	31.020000	438.000000	0.000000	153.000000	65.000000	-25.000000	-12.000000
1.040000	54.740000	30.770000	448.000000	0.000000	153.000000	65.000000	-27.000000	-25.000000
1.050000	54.560000	30.450000	439.000000	0.000000	153.000000	65.000000	-18.000000	-32.000000
1.060000	54.560000	30.140000	449.000000	0.000000	153.000000	65.000000	0.000000	-31.000000
1.070000	54.630000	29.920000	440.000000	0.000000	153.000000	65.000000	7.000000	-22.000000
1.080000	54.830000	29.760000	441.000000	0.000000	152.000000	65.000000	20.000000	-16.000000
1.090000	55.150000	29.760000	423.000000	0.000000	152.000000	65.000000	32.000000	0.000000
1.100000	55.560000	29.870000	413.000000	0.000000	152.000000	65.000000	41.000000	11.000000
1.110000	55.880000	30.090000	396.000000	0.000000	150.000000	65.000000	32.000000	22.000000
1.120000	56.060000	30.310000	407.000000	0.000000	152.000000	65.000000	18.000000	22.000000
1.130000	56.140000	30.500000	427.000000	0.000000	152.000000	65.000000	8.000000	19.000000
1.140000	56.140000	30.620000	469.000000	0.000000	152.000000	65.000000	0.000000	12.000000
1.150000	56.020000	30.670000	501.000000	0.000000	152.000000	65.000000	-12.000000	5.000000
1.160000	55.900000	30.670000	512.000000	0.000000	152.000000	65.000000	-12.000000	0.000000
1.170000	55.900000	30.510000	530.000000	0.000000	152.000000	65.000000	0.000000	-16.000000
1.180000	55.900000	30.250000	535.000000	0.000000	153.000000	65.000000	0.000000	-26.000000
1.190000	56.020000	29.860000	530.000000	0.000000	153.000000	65.000000	12.000000	-39.000000
1.200000	56.210000	29.470000	535.000000	0.000000	153.000000	65.000000	19.000000	-39.000000
1.210000	56.410000	29.110000	540.000000	0.000000	152.000000	65.000000	20.000000	-36.000000
1.220000	56.600000	28.760000	546.000000	0.000000	152.000000	65.000000	19.000000	-35.000000
1.230000	56.690000	28.470000	537.000000	0.000000	152.000000	65.000000	9.000000	-29.000000
1.240000	56.690000	28.340000	553.000000	0.000000	153.000000	67.000000	0.000000	-13.000000
1.250000	56.690000	28.340000	578.000000	0.000000	153.000000	67.000000	0.000000	0.000000
1.260000	56.690000	28.340000	595.000000	0.000000	153.000000	67.000000	0.000000	0.000000
1.270000	56.690000	28.420000	591.000000	0.000000	153.000000	67.000000	0.000000	8.000000
1.280000	56.580000	28.590000	577.000000	0.000000	153.000000	67.000000	-11.000000	17.000000
1.290000	56.490000	28.940000	545.000000	0.000000	153.000000	67.000000	-9.000000	35.000000
1.300000	56.410000	29.370000	510.000000	0.000000	153.000000	67.000000	-8.000000	43.000000
1.310000	56.320000	29.860000	468.000000	0.000000	153.000000	67.000000	-9.000000	49.000000
1.320000	56.230000	30.560000	468.000000	0.000000	153.000000	67.000000	-9.000000	70.000000
1.330000	56.150000	30.990000	512.000000	0.000000	153.000000	67.000000	-8.000000	43.000000
1.340000	56.150000	31.240000	537.000000	0.000000	154.000000	66.000000	0.000000	25.000000
1.350000	56.100000	31.240000	569.000000	0.000000	154.000000	66.000000	-5.000000	0.000000
1.360000	56.100000	31.240000	585.000000	0.000000	152.000000	65.000000	0.000000	0.000000
1.370000	56.100000	31.180000	595.000000	0.000000	153.000000	65.000000	0.000000	-6.000000
1.380000	56.100000	31.030000	599.000000	0.000000	153.000000	65.000000	0.000000	-15.000000
1.390000	56.200000	30.820000	600.000000	0.000000	153.000000	65.000000	10.000000	-21.000000
1.400000	56.340000	30.590000	603.000000	0.000000	154.000000	64.000000	14.000000	-23.000000
1.410000	56.560000	30.330000	600.000000	0.000000	153.000000	65.000000	22.000000	-26.000000
1.420000	56.830000	30.220000	592.000000	0.000000	155.000000	65.000000	27.000000	-11.000000
1.430000	57.180000	30.220000	591.000000	0.000000	155.000000	65.000000	35.000000	0.000000
1.440000	57.570000	30.340000	566.000000	0.000000	155.000000	65.000000	39.000000	12.000000
1.450000	57.880000	30.490000	536.000000	0.000000	155.000000	65.000000	31.000000	15.000000
1.460000	58.030000	30.660000	527.000000	0.000000	157.000000	65.000000	15.000000	17.000000
1.470000	58.030000	30.660000	515.000000	0.000000	157.000000	65.000000	0.000000	0.000000
1.480000	58.080000	30.930000	522.000000	0.000000	155.000000	65.000000	5.000000	27.000000
1.490000	58.080000	31.040000	529.000000	0.000000	155.000000	65.000000	0.000000	11.000000
1.500000	58.030000	31.040000	543.000000	0.000000	153.000000	65.000000	-5.000000	0.000000
1.510000	58.030000	30.980000	551.000000	0.000000	154.000000	64.000000	0.000000	-6.000000
1.520000	58.030000	30.900000	563.000000	0.000000	153.000000	63.000000	0.000000	-8.000000
1.530000	58.130000	30.760000	591.000000	0.000000	151.000000	63.000000	10.000000	-14.000000
1.540000	58.260000	30.570000	588.000000	0.000000	151.000000	63.000000	13.000000	-19.000000
1.550000	58.420000	30.430000	611.000000	0.000000	151.000000	63.000000	16.000000	-14.000000
1.560000	58.590000	30.320000	619.000000	0.000000	149.000000	63.000000	17.000000	-11.000000
1.570000	58.790000	30.220000	630.000000	0.000000	150.000000	64.000000	20.000000	-10.000000
1.580000	58.980000	30.220000	637.000000	0.000000	150.000000	64.000000	19.000000	0.000000
1.590000	59.180000	30.310000	630.000000	0.000000	150.000000	64.000000	20.000000	9.000000
1.600000	59.400000	30.430000	594.000000	0.000000	150.000000	64.000000	22.000000	12.000000
1.610000	59.620000	30.640000	560.000000	0.000000	151.000000	64.000000	22.000000	21.000000
1.620000	59.820000	30.900000	540.000000	0.000000	151.000000	64.000000	20.000000	26.000000
1.630000	59.940000	31.080000	530.000000	0.000000	151.000000	64.000000	12.000000	18.000000
1.640000	60.000000	31.130000	536.000000	0.000000	151.000000	64.000000	6.000000	5.000000
1.650000	60.000000	31.130000	561.000000	0.000000	153.000000	65.000000	0.000000	0.000000
1.660000	60.000000	30.970000	589.000000	0.000000	153.000000	65.000000	0.000000	-16.000000
1.670000	60.000000	30.850000	606.000000	0.000000	154.000000	64.000000	0.000000	-12.000000
1.680000	60.130000	30.720000	619.000000	0.000000	154.000000	64.000000	13.000000	-13.000000
1.690000	60.260000	30.590000	628.000000	0.000000	154.000000	64.000000	13.000000	-13.000000
1.700000	60.430000	30.540000	630.000000	0.000000	154.000000	64.000000	17.000000	-5.000000
1.710000	60.720000	30.540000	631.000000	0.000000	154.000000	64.000000	29.000000	0.000000
1.720000	61.090000	30.540000	622.000000	0.000000	154.000000	64.000000	37.000000	0.000000
1.730000	61.450000	30.680000	619.000000	0.000000	156.000000	64.000000	36.000000	14.000000
1.740000	61.810000	30.860000	613.000000	0.000000	156.000000	64.000000	36.000000	18.000000
1.750000	62.080000	31.030000	611.000000	0.000000	156.000000	64.000000	27.000000	17.000000
1.760000	62.280000	31.190000	592.000000	0.000000	158.000000	64.000000	20.000000	16.000000
1.770000	62.380000	31.320000	586.000000	0.000000	158.000000	64.000000	10.000000	13.000000
1.780000	62.380000	31.490000	551.000000	0.000000	158.000000	64.000000	0.000000	17.000000
1.790000	62.380000	31.630000	540.000000	0.000000	158.000000	64.000000	0.000000	14.000000
1.800000	62.280000	31.790000	515.000000	0.000000	158.000000	64.000000	-10.000000	16.000000
1.810000	62.130000	31.920000	522.000000	0.000000	158.000000	64.000000	-15.000000	13.000000
1.820000	61.960000	31.870000	544.000000	0.000000	159.000000	64.000000	-17.000000	-5.000000
1.830000	61.810000	31.710000	572.000000	0.000000	159.000000	64.000000	-15.000000	-16.000000
1.840000	61.700000	31.420000	610.000000	0.000000	158.000000	64.000000	-11.000000	-29.000000
1.850000	61.650000	31.120000	661.000000	0.000000	158.000000	64.000000	-5.000000	-30.000000
1.860000	61.650000	30.820000	675.000000	0.000000	158.000000	64.000000	0.000000	-30.000000
1.870000	61.770000	30.600000	697.000000	0.000000	158.000000	64.000000	12.000000	-22.000000
1.880000	61.950000	30.430000	708.000000	0.000000	158.000000	64.000000	18.000000	-17.000000
1.890000	62.190000	30.430000	727.000000	0.000000	158.000000	64.000000	24.000000	0.000000
1.900000	62.540000	30.430000	727.000000	0.000000	158.000000	64.000000	35.000000	0.000000
1.910000	62.960000	30.530000	719.000000	0.000000	158.000000	64.000000	42.000000	10.000000
1.920000	63.310000	30.720000	691.000000	0.000000	160.000000	65.000000	35.000000	19.000000
1.930000	63.660000	31.000000	670.000000	0.000000	160.000000	65.000000	35.000000	28.000000
1.940000	63.980000	31.350000	638.000000	0.000000	160.000000	65.000000	32.000000	35.000000
1.950000	64.240000	31.820000	636.000000	0.000000	162.000000	65.000000	26.000000	47.000000
1.960000	64.480000	32.360000	636.000000	0.000000	162.000000	65.000000	24.000000	54.000000
1.970000	64.570000	32.960000	616.000000	0.000000	165.000000	65.000000	9.000000	60.000000
1.980000	64.480000	33.640000	603.000000	0.000000	165.000000	65.000000	-9.000000	68.000000
1.990000	64.260000	34.300000	616.000000	0.000000	165.000000	65.000000	-22.000000	66.000000
2.000000	63.980000	34.660000	642.000000	0.000000	165.000000	65.000000	-28.000000	36.000000
2.010000	63.720000	34.830000	649.000000	0.000000	165.000000	65.000000	-26.000000	17.000000
2.020000	63.520000	34.770000	696.000000	0.000000	165.000000	65.000000	-20.000000	-6.000000
2.030000	63.380000	34.470000	737.000000	0.000000	165.000000	65.000000	-14.000000	-30.000000
2.040000	63.330000	34.000000	785.000000	0.000000	165.000000	65.000000	-5.000000	-47.000000
2.050000	63.330000	33.300000	829.000000	0.000000	165.000000	65.000000	0.000000	-70.000000
2.060000	63.510000	32.600000	860.000000	0.000000	165.000000	65.000000	18.000000	-70.000000
2.070000	63.710000	31.950000	881.000000	0.000000	165.000000	65.000000	20.000000	-65.000000
2.080000	63.970000	31.410000	900.000000	0.000000	165.000000	65.000000	26.000000	-54.000000
2.090000	64.230000	30.930000	900.000000	0.000000	165.000000	65.000000	26.000000	-48.000000
2.100000	64.470000	30.630000	893.000000	0.000000	165.000000	65.000000	24.000000	-30.000000
2.110000	64.670000	30.470000	861.000000	0.000000	165.000000	65.000000	20.000000	-16.000000
2.120000	64.790000	30.400000	779.000000	0.000000	165.000000	65.000000	12.000000	-7.000000
2.130000	64.850000	30.400000	530.000000	0.000000	165.000000	65.000000	6.000000	0.000000
2.140000	64.850000	30.400000	0.000000	1.000000	167.000000	65.000000	0.000000	0.000000
2.150000	65.390000	30.970000	0.000000	0.000000	167.000000	65.000000	54.000000	57.000000
2.160000	65.720000	31.460000	0.000000	0.000000	167.000000	65.000000	33.000000	49.000000
2.170000	66.040000	32.200000	0.000000	0.000000	167.000000	65.000000	32.000000	74.000000
2.180000	66.650000	33.100000	0.000000	0.000000	167.000000	65.000000	61.000000	90.000000
2.190000	67.310000	33.840000	0.000000	0.000000	169.000000	65.000000	66.000000	74.000000
2.200000	68.080000	34.200000	0.000000	0.000000	169.000000	65.000000	77.000000	36.000000
2.210000	68.890000	34.320000	0.000000	0.000000	170.000000	64.000000	81.000000	12.000000
