t	x	y	pressure	penup	azimuth	inclination	v_x	v_y
0.000000	51.840000	13.170000	245.000000	1.000000	131.000000	60.000000	0.000000	0.000000
0.010000	52.220000	13.690000	265.000000	0.000000	132.000000	60.000000	38.000000	52.000000
0.020000	52.150000	13.690000	314.000000	0.000000	131.000000	61.000000	-7.000000	0.000000
0.030000	52.150000	13.550000	388.000000	0.000000	132.000000	61.000000	0.000000	-14.000000
0.040000	52.220000	13.290000	466.000000	0.000000	130.000000	62.000000	7.000000	-26.000000
0.050000	52.160000	12.760000	490.000000	0.000000	130.000000	62.000000	-6.000000	-53.000000
0.060000	52.020000	12.060000	494.000000	0.000000	129.000000	63.000000	-14.000000	-70.000000
0.070000	51.560000	11.060000	526.000000	0.000000	127.000000	63.000000	-46.000000	-100.000000
0.080000	51.090000	10.180000	543.000000	0.000000	127.000000	63.000000	-47.000000	-88.000000
0.090000	50.620000	9.370000	543.000000	0.000000	127.000000	63.000000	-47.000000	-81.000000
0.100000	50.210000	8.840000	561.000000	0.000000	127.000000	63.000000	-41.000000	-53.000000
0.110000	49.980000	8.560000	595.000000	0.000000	127.000000	63.000000	-23.000000	-28.000000
0.120000	49.870000	8.440000	617.000000	0.000000	127.000000	63.000000	-11.000000	-12.000000
0.130000	49.810000	8.520000	617.000000	0.000000	127.000000	63.000000	-6.000000	8.000000
0.140000	49.760000	8.910000	637.000000	0.000000	129.000000	63.000000	-5.000000	39.000000
0.150000	49.760000	9.510000	653.000000	0.000000	129.000000	63.000000	0.000000	60.000000
0.160000	49.890000	10.360000	664.000000	0.000000	127.000000	63.000000	13.000000	85.000000
0.170000	50.030000	11.520000	659.000000	0.000000	126.000000	62.000000	14.000000	116.000000
0.180000	50.170000	12.880000	664.000000	0.000000	126.000000	62.000000	14.000000	136.000000
0.190000	50.420000	14.030000	670.000000	0.000000	124.000000	62.000000	25.000000	115.000000
0.200000	50.700000	14.860000	675.000000	0.000000	124.000000	62.000000	28.000000	83.000000
0.210000	51.020000	15.470000	675.000000	0.000000	124.000000	62.000000	32.000000	61.000000
0.220000	51.370000	15.870000	678.000000	0.000000	125.000000	60.000000	35.000000	40.000000
0.230000	51.700000	16.000000	681.000000	0.000000	126.000000	60.000000	33.000000	13.000000
0.240000	52.020000	16.000000	693.000000	0.000000	129.000000	60.000000	32.000000	0.000000
0.250000	52.550000	15.740000	722.000000	0.000000	131.000000	60.000000	53.000000	-26.000000
0.260000	53.230000	15.230000	737.000000	0.000000	132.000000	59.000000	68.000000	-51.000000
0.270000	54.010000	14.520000	757.000000	0.000000	134.000000	60.000000	78.000000	-71.000000
0.280000	54.700000	13.550000	787.000000	0.000000	134.000000	60.000000	69.000000	-97.000000
0.290000	55.240000	12.440000	791.000000	0.000000	135.000000	60.000000	54.000000	-111.000000
0.300000	55.680000	11.240000	808.000000	0.000000	134.000000	61.000000	44.000000	-120.000000
0.310000	56.020000	10.420000	815.000000	0.000000	133.000000	62.000000	34.000000	-82.000000
0.320000	56.240000	9.790000	830.000000	0.000000	132.000000	63.000000	22.000000	-63.000000
0.330000	56.380000	9.300000	840.000000	0.000000	132.000000	64.000000	14.000000	-49.000000
0.340000	56.380000	8.930000	864.000000	0.000000	130.000000	65.000000	0.000000	-37.000000
0.350000	56.220000	8.670000	903.000000	0.000000	130.000000	65.000000	-16.000000	-26.000000
0.360000	55.940000	8.480000	905.000000	0.000000	130.000000	65.000000	-28.000000	-19.000000
0.370000	55.280000	8.260000	927.000000	0.000000	130.000000	65.000000	-66.000000	-22.000000
0.380000	54.410000	8.260000	932.000000	0.000000	130.000000	65.000000	-87.000000	0.000000
0.390000	53.400000	8.410000	923.000000	0.000000	132.000000	64.000000	-101.000000	15.000000
0.400000	51.990000	8.650000	923.000000	0.000000	132.000000	64.000000	-141.000000	24.000000
0.410000	50.540000	9.130000	941.000000	0.000000	130.000000	63.000000	-145.000000	48.000000
0.420000	49.070000	9.760000	951.000000	0.000000	127.000000	63.000000	-147.000000	63.000000
0.430000	47.950000	10.120000	947.000000	0.000000	126.000000	62.000000	-112.000000	36.000000
0.440000	47.220000	10.290000	955.000000	0.000000	126.000000	62.000000	-73.000000	17.000000
0.450000	46.760000	10.290000	953.000000	0.000000	123.000000	62.000000	-46.000000	0.000000
0.460000	46.660000	10.400000	934.000000	0.000000	123.000000	62.000000	-10.000000	11.000000
0.470000	46.860000	10.400000	951.000000	0.000000	121.000000	63.000000	20.000000	0.000000
0.480000	47.270000	10.400000	938.000000	0.000000	120.000000	62.000000	41.000000	0.000000
0.490000	48.620000	10.400000	956.000000	0.000000	120.000000	62.000000	135.000000	0.000000
0.500000	50.820000	10.400000	978.000000	0.000000	121.000000	63.000000	220.000000	0.000000
0.510000	53.590000	10.490000	1006.000000	0.000000	121.000000	63.000000	277.000000	9.000000
0.520000	57.030000	10.640000	1023.000000	0.000000	122.000000	63.000000	344.000000	15.000000
0.530000	60.820000	10.780000	1023.000000	0.000000	122.000000	63.000000	379.000000	14.000000
0.540000	64.850000	11.150000	1000.000000	0.000000	124.000000	64.000000	403.000000	37.000000
0.550000	68.530000	11.680000	915.000000	0.000000	125.000000	65.000000	368.000000	53.000000
0.560000	71.740000	11.910000	753.000000	0.000000	126.000000	66.000000	321.000000	23.000000
0.570000	74.640000	11.910000	465.000000	0.000000	130.000000	66.000000	290.000000	0.000000
0.580000	74.640000	11.910000	0.000000	1.000000	131.000000	67.000000	0.000000	0.000000
0.590000	79.590000	11.750000	0.000000	0.000000	137.000000	67.000000	495.000000	-16.000000
0.600000	81.680000	11.750000	0.000000	0.000000	140.000000	67.000000	209.000000	0.000000
0.610000	83.100000	11.900000	0.000000	0.000000	144.000000	67.000000	142.000000	15.000000
0.620000	83.970000	12.020000	0.000000	0.000000	147.000000	65.000000	87.000000	12.000000
0.630000	84.460000	12.210000	0.000000	0.000000	151.000000	64.000000	49.000000	19.000000
0.640000	84.860000	12.450000	0.000000	0.000000	155.000000	62.000000	40.000000	24.000000
0.650000	84.650000	12.520000	0.000000	0.000000	158.000000	60.000000	-21.000000	7.000000
0.660000	84.040000	12.590000	0.000000	0.000000	161.000000	57.000000	-61.000000	7.000000
0.670000	83.660000	12.650000	0.000000	0.000000	160.000000	55.000000	-38.000000	6.000000
0.680000	82.950000	12.780000	0.000000	0.000000	161.000000	52.000000	-71.000000	13.000000
0.690000	82.950000	12.780000	0.000000	0.000000	161.000000	52.000000	0.000000	0.000000
0.700000	61.330000	16.180000	0.000000	0.000000	158.000000	58.000000	-2162.000000	340.000000
0.710000	61.330000	16.180000	0.000000	0.000000	153.000000	65.000000	0.000000	0.000000
0.720000	60.960000	16.090000	0.000000	0.000000	148.000000	70.000000	-37.000000	-9.000000
0.730000	60.330000	15.930000	0.000000	0.000000	135.000000	76.000000	-63.000000	-16.000000
0.740000	60.010000	15.710000	0.000000	0.000000	135.000000	72.000000	-32.000000	-22.000000
0.750000	59.840000	15.360000	0.000000	0.000000	135.000000	68.000000	-17.000000	-35.000000
0.760000	59.770000	14.920000	0.000000	0.000000	135.000000	64.000000	-7.000000	-44.000000
0.770000	60.020000	14.710000	0.000000	0.000000	135.000000	60.000000	25.000000	-21.000000
0.780000	60.020000	14.500000	0.000000	0.000000	134.000000	57.000000	0.000000	-21.000000
0.790000	59.960000	14.300000	0.000000	0.000000	134.000000	55.000000	-6.000000	-20.000000
0.800000	59.870000	14.070000	0.000000	0.000000	133.000000	53.000000	-9.000000	-23.000000
0.810000	59.560000	13.840000	0.000000	0.000000	133.000000	52.000000	-31.000000	-23.000000
0.820000	59.110000	13.730000	0.000000	0.000000	133.000000	53.000000	-45.000000	-11.000000
0.830000	58.880000	13.730000	0.000000	0.000000	131.000000	54.000000	-23.000000	0.000000
0.840000	58.680000	13.730000	0.000000	0.000000	131.000000	54.000000	-20.000000	0.000000
0.850000	58.550000	13.860000	0.000000	0.000000	131.000000	55.000000	-13.000000	13.000000
0.860000	58.550000	13.960000	0.000000	0.000000	130.000000	55.000000	0.000000	10.000000
0.870000	58.740000	14.030000	0.000000	0.000000	130.000000	56.000000	19.000000	7.000000
0.880000	58.910000	14.080000	0.000000	0.000000	128.000000	57.000000	17.000000	5.000000
0.890000	59.070000	14.080000	0.000000	0.000000	128.000000	58.000000	16.000000	0.000000
0.900000	59.210000	14.140000	0.000000	0.000000	127.000000	59.000000	14.000000	6.000000
0.910000	59.410000	14.190000	0.000000	0.000000	126.000000	60.000000	20.000000	5.000000
0.920000	59.410000	14.190000	170.000000	1.000000	125.000000	60.000000	0.000000	0.000000
0.930000	59.410000	14.190000	242.000000	0.000000	126.000000	61.000000	0.000000	0.000000
0.940000	59.520000	14.490000	241.000000	0.000000	124.000000	62.000000	11.000000	30.000000
0.950000	59.360000	14.490000	294.000000	0.000000	124.000000	63.000000	-16.000000	0.000000
0.960000	59.290000	14.490000	336.000000	0.000000	124.000000	63.000000	-7.000000	0.000000
0.970000	59.220000	14.420000	371.000000	0.000000	124.000000	64.000000	-7.000000	-7.000000
0.980000	59.080000	14.340000	369.000000	0.000000	124.000000	64.000000	-14.000000	-8.000000
0.990000	58.900000	14.130000	448.000000	0.000000	124.000000	64.000000	-18.000000	-21.000000
1.000000	58.560000	13.830000	515.000000	0.000000	122.000000	65.000000	-34.000000	-30.000000
1.010000	58.270000	13.500000	543.000000	0.000000	122.000000	65.000000	-29.000000	-33.000000
1.020000	58.010000	13.000000	563.000000	0.000000	122.000000	65.000000	-26.000000	-50.000000
1.030000	57.740000	12.400000	567.000000	0.000000	119.000000	64.000000	-27.000000	-60.000000
1.040000	57.600000	11.820000	566.000000	0.000000	119.000000	64.000000	-14.000000	-58.000000
1.050000	57.670000	11.480000	569.000000	0.000000	116.000000	64.000000	7.000000	-34.000000
1.060000	57.870000	11.310000	605.000000	0.000000	114.000000	64.000000	20.000000	-17.000000
1.070000	58.200000	11.310000	638.000000	0.000000	114.000000	64.000000	33.000000	0.000000
1.080000	58.570000	11.690000	713.000000	0.000000	112.000000	64.000000	37.000000	38.000000
1.090000	59.000000	12.260000	748.000000	0.000000	112.000000	64.000000	43.000000	57.000000
1.100000	59.360000	12.930000	765.000000	0.000000	112.000000	64.000000	36.000000	67.000000
1.110000	59.690000	13.620000	782.000000	0.000000	112.000000	64.000000	33.000000	69.000000
1.120000	59.950000	14.320000	787.000000	0.000000	111.000000	64.000000	26.000000	70.000000
1.130000	60.170000	14.940000	799.000000	0.000000	111.000000	64.000000	22.000000	62.000000
1.140000	60.360000	15.520000	808.000000	0.000000	113.000000	63.000000	19.000000	58.000000
1.150000	60.450000	16.010000	820.000000	0.000000	115.000000	62.000000	9.000000	49.000000
1.160000	60.450000	16.450000	832.000000	0.000000	117.000000	61.000000	0.000000	44.000000
1.170000	60.450000	16.580000	832.000000	0.000000	120.000000	60.000000	0.000000	13.000000
1.180000	60.450000	16.530000	829.000000	0.000000	122.000000	60.000000	0.000000	-5.000000
1.190000	60.390000	16.350000	829.000000	0.000000	124.000000	60.000000	-6.000000	-18.000000
1.200000	60.390000	15.780000	817.000000	0.000000	125.000000	59.000000	0.000000	-57.000000
1.210000	60.290000	14.920000	815.000000	0.000000	127.000000	59.000000	-10.000000	-86.000000
1.220000	60.130000	13.860000	814.000000	0.000000	125.000000	59.000000	-16.000000	-106.000000
1.230000	60.130000	12.790000	818.000000	0.000000	124.000000	60.000000	0.000000	-107.000000
1.240000	60.130000	11.710000	824.000000	0.000000	122.000000	60.000000	0.000000	-108.000000
1.250000	60.060000	10.820000	832.000000	0.000000	122.000000	61.000000	-7.000000	-89.000000
1.260000	59.980000	10.060000	829.000000	0.000000	118.000000	62.000000	-8.000000	-76.000000
1.270000	59.930000	9.640000	817.000000	0.000000	116.000000	63.000000	-5.000000	-42.000000
1.280000	59.880000	9.400000	817.000000	0.000000	116.000000	64.000000	-5.000000	-24.000000
1.290000	59.880000	9.270000	818.000000	0.000000	114.000000	64.000000	0.000000	-13.000000
1.300000	59.800000	9.270000	815.000000	0.000000	113.000000	65.000000	-8.000000	0.000000
1.310000	59.800000	9.350000	817.000000	0.000000	113.000000	65.000000	0.000000	8.000000
1.320000	59.890000	9.560000	815.000000	0.000000	113.000000	65.000000	9.000000	21.000000
1.330000	60.020000	9.890000	824.000000	0.000000	113.000000	65.000000	13.000000	33.000000
1.340000	60.250000	10.340000	830.000000	0.000000	113.000000	65.000000	23.000000	45.000000
1.350000	60.480000	10.760000	825.000000	0.000000	113.000000	65.000000	23.000000	42.000000
1.360000	60.710000	11.270000	830.000000	0.000000	110.000000	66.000000	23.000000	51.000000
1.370000	60.940000	11.840000	836.000000	0.000000	110.000000	66.000000	23.000000	57.000000
1.380000	61.110000	12.230000	845.000000	0.000000	110.000000	66.000000	17.000000	39.000000
1.390000	61.240000	12.580000	854.000000	0.000000	110.000000	66.000000	13.000000	35.000000
1.400000	61.240000	12.750000	867.000000	0.000000	110.000000	65.000000	0.000000	17.000000
1.410000	61.320000	12.820000	860.000000	0.000000	110.000000	65.000000	8.000000	7.000000
1.420000	61.390000	12.940000	861.000000	0.000000	110.000000	65.000000	7.000000	12.000000
1.430000	61.390000	12.940000	866.000000	0.000000	110.000000	65.000000	0.000000	0.000000
1.440000	61.390000	12.940000	872.000000	0.000000	109.000000	64.000000	0.000000	0.000000
1.450000	61.390000	12.940000	869.000000	0.000000	109.000000	64.000000	0.000000	0.000000
1.460000	61.390000	12.880000	864.000000	0.000000	109.000000	64.000000	0.000000	-6.000000
1.470000	61.390000	12.880000	863.000000	0.000000	111.000000	64.000000	0.000000	0.000000
1.480000	61.390000	12.880000	864.000000	0.000000	111.000000	64.000000	0.000000	0.000000
1.490000	61.390000	12.330000	861.000000	0.000000	111.000000	64.000000	0.000000	-55.000000
1.500000	61.490000	11.930000	857.000000	0.000000	112.000000	64.000000	10.000000	-40.000000
1.510000	61.600000	11.680000	864.000000	0.000000	110.000000	65.000000	11.000000	-25.000000
1.520000	61.700000	11.510000	854.000000	0.000000	110.000000	65.000000	10.000000	-17.000000
1.530000	61.770000	11.400000	855.000000	0.000000	110.000000	65.000000	7.000000	-11.000000
1.540000	61.840000	11.400000	858.000000	0.000000	110.000000	65.000000	7.000000	0.000000
1.550000	61.960000	11.530000	860.000000	0.000000	110.000000	65.000000	12.000000	13.000000
1.560000	62.080000	11.690000	863.000000	0.000000	110.000000	65.000000	12.000000	16.000000
1.570000	62.180000	11.980000	869.000000	0.000000	110.000000	65.000000	10.000000	29.000000
1.580000	62.230000	12.250000	854.000000	0.000000	110.000000	65.000000	5.000000	27.000000
1.590000	62.280000	12.480000	854.000000	0.000000	110.000000	65.000000	5.000000	23.000000
1.600000	62.340000	12.660000	860.000000	0.000000	110.000000	65.000000	6.000000	18.000000
1.610000	62.390000	12.780000	861.000000	0.000000	110.000000	65.000000	5.000000	12.000000
1.620000	62.390000	12.830000	861.000000	0.000000	110.000000	65.000000	0.000000	5.000000
1.630000	62.390000	12.830000	857.000000	0.000000	110.000000	65.000000	0.000000	0.000000
1.640000	62.390000	12.750000	866.000000	0.000000	110.000000	65.000000	0.000000	-8.000000
1.650000	62.390000	12.670000	866.000000	0.000000	110.000000	65.000000	0.000000	-8.000000
1.660000	62.390000	12.480000	861.000000	0.000000	112.000000	64.000000	0.000000	-19.000000
1.670000	62.460000	12.230000	860.000000	0.000000	112.000000	64.000000	7.000000	-25.000000
1.680000	62.510000	12.000000	849.000000	0.000000	112.000000	64.000000	5.000000	-23.000000
1.690000	62.600000	11.860000	843.000000	0.000000	110.000000	65.000000	9.000000	-14.000000
1.700000	62.680000	11.770000	840.000000	0.000000	110.000000	65.000000	8.000000	-9.000000
1.710000	62.760000	11.770000	840.000000	0.000000	110.000000	65.000000	8.000000	0.000000
1.720000	62.880000	11.820000	857.000000	0.000000	110.000000	65.000000	12.000000	5.000000
1.730000	63.020000	11.950000	864.000000	0.000000	110.000000	66.000000	14.000000	13.000000
1.740000	63.220000	12.250000	854.000000	0.000000	110.000000	66.000000	20.000000	30.000000
1.750000	63.370000	12.660000	858.000000	0.000000	110.000000	66.000000	15.000000	41.000000
1.760000	63.470000	13.150000	863.000000	0.000000	110.000000	66.000000	10.000000	49.000000
1.770000	63.600000	13.680000	872.000000	0.000000	110.000000	66.000000	13.000000	53.000000
1.780000	63.660000	14.250000	879.000000	0.000000	113.000000	65.000000	6.000000	57.000000
1.790000	63.660000	14.850000	879.000000	0.000000	114.000000	66.000000	0.000000	60.000000
1.800000	63.710000	15.330000	888.000000	0.000000	116.000000	66.000000	5.000000	48.000000
1.810000	63.760000	15.760000	888.000000	0.000000	118.000000	65.000000	5.000000	43.000000
1.820000	63.760000	16.100000	891.000000	0.000000	122.000000	65.000000	0.000000	34.000000
1.830000	63.760000	16.380000	897.000000	0.000000	124.000000	64.000000	0.000000	28.000000
1.840000	63.760000	16.510000	899.000000	0.000000	127.000000	63.000000	0.000000	13.000000
1.850000	63.760000	16.510000	893.000000	0.000000	129.000000	63.000000	0.000000	0.000000
1.860000	63.760000	16.510000	881.000000	0.000000	130.000000	62.000000	0.000000	0.000000
1.870000	63.760000	16.440000	873.000000	0.000000	132.000000	61.000000	0.000000	-7.000000
1.880000	63.760000	16.290000	873.000000	0.000000	132.000000	61.000000	0.000000	-15.000000
1.890000	63.760000	15.840000	873.000000	0.000000	134.000000	61.000000	0.000000	-45.000000
1.900000	63.680000	15.200000	869.000000	0.000000	132.000000	61.000000	-8.000000	-64.000000
1.910000	63.610000	14.540000	866.000000	0.000000	132.000000	61.000000	-7.000000	-66.000000
1.920000	63.610000	13.870000	863.000000	0.000000	130.000000	62.000000	0.000000	-67.000000
1.930000	63.610000	13.170000	857.000000	0.000000	127.000000	63.000000	0.000000	-70.000000
1.940000	63.610000	12.650000	858.000000	0.000000	125.000000	64.000000	0.000000	-52.000000
1.950000	63.730000	12.230000	854.000000	0.000000	122.000000	65.000000	12.000000	-42.000000
1.960000	63.860000	11.940000	869.000000	0.000000	120.000000	65.000000	13.000000	-29.000000
1.970000	63.950000	11.790000	861.000000	0.000000	116.000000	66.000000	9.000000	-15.000000
1.980000	64.020000	11.730000	855.000000	0.000000	114.000000	66.000000	7.000000	-6.000000
1.990000	64.070000	11.730000	852.000000	0.000000	114.000000	66.000000	5.000000	0.000000
2.000000	64.120000	11.730000	852.000000	0.000000	111.000000	67.000000	5.000000	0.000000
2.010000	64.180000	11.730000	854.000000	0.000000	110.000000	66.000000	6.000000	0.000000
2.020000	64.260000	11.850000	858.000000	0.000000	110.000000	66.000000	8.000000	12.000000
2.030000	64.370000	12.080000	860.000000	0.000000	111.000000	67.000000	11.000000	23.000000
2.040000	64.500000	12.380000	860.000000	0.000000	111.000000	67.000000	13.000000	30.000000
2.050000	64.640000	12.640000	864.000000	0.000000	111.000000	67.000000	14.000000	26.000000
2.060000	64.750000	12.910000	866.000000	0.000000	111.000000	67.000000	11.000000	27.000000
2.070000	64.860000	13.180000	870.000000	0.000000	111.000000	67.000000	11.000000	27.000000
2.080000	64.860000	13.290000	869.000000	0.000000	111.000000	67.000000	0.000000	11.000000
2.090000	64.860000	13.290000	870.000000	0.000000	111.000000	67.000000	0.000000	0.000000
2.100000	64.910000	13.400000	870.000000	0.000000	111.000000	67.000000	5.000000	11.000000
2.110000	64.910000	13.470000	869.000000	0.000000	111.000000	67.000000	0.000000	7.000000
2.120000	64.960000	13.520000	870.000000	0.000000	114.000000	66.000000	5.000000	5.000000
2.130000	64.960000	13.520000	867.000000	0.000000	114.000000	66.000000	0.000000	0.000000
2.140000	64.960000	13.520000	863.000000	0.000000	114.000000	66.000000	0.000000	0.000000
2.150000	64.960000	13.520000	861.000000	0.000000	114.000000	66.000000	0.000000	0.000000
2.160000	64.960000	13.470000	860.000000	0.000000	114.000000	66.000000	0.000000	-5.000000
2.170000	64.960000	13.330000	854.000000	0.000000	114.000000	66.000000	0.000000	-14.000000
2.180000	64.960000	13.130000	853.000000	0.000000	116.000000	66.000000	0.000000	-20.000000
2.190000	64.960000	12.880000	864.000000	0.000000	116.000000	66.000000	0.000000	-25.000000
2.200000	64.960000	12.680000	861.000000	0.000000	114.000000	66.000000	0.000000	-20.000000
2.210000	64.960000	12.520000	863.000000	0.000000	114.000000	66.000000	0.000000	-16.000000
