t	x	y	pressure	penup	azimuth	inclination	v_x	v_y
0.000000	54.670000	65.190000	103.000000	1.000000	138.000000	59.000000	0.000000	0.000000
0.010000	54.870000	65.470000	134.000000	0.000000	136.000000	60.000000	20.000000	28.000000
0.020000	54.930000	65.640000	206.000000	0.000000	138.000000	60.000000	6.000000	17.000000
0.030000	54.980000	65.800000	301.000000	0.000000	138.000000	60.000000	5.000000	16.000000
0.040000	55.120000	65.960000	367.000000	0.000000	138.000000	60.000000	14.000000	16.000000
0.050000	55.250000	66.110000	418.000000	0.000000	138.000000	60.000000	13.000000	15.000000
0.060000	55.320000	66.180000	464.000000	0.000000	138.000000	60.000000	7.000000	7.000000
0.070000	55.320000	66.180000	522.000000	0.000000	138.000000	60.000000	0.000000	0.000000
0.080000	55.320000	66.180000	542.000000	0.000000	138.000000	60.000000	0.000000	0.000000
0.090000	55.320000	66.180000	560.000000	0.000000	138.000000	60.000000	0.000000	0.000000
0.100000	55.320000	66.010000	585.000000	0.000000	139.000000	61.000000	0.000000	-17.000000
0.110000	55.200000	65.700000	605.000000	0.000000	139.000000	61.000000	-12.000000	-31.000000
0.120000	54.920000	65.140000	610.000000	0.000000	139.000000	61.000000	-28.000000	-56.000000
0.130000	54.510000	64.470000	617.000000	0.000000	139.000000	61.000000	-41.000000	-67.000000
0.140000	54.030000	63.720000	636.000000	0.000000	138.000000	60.000000	-48.000000	-75.000000
0.150000	53.560000	63.060000	644.000000	0.000000	138.000000	60.000000	-47.000000	-66.000000
0.160000	53.260000	62.570000	661.000000	0.000000	138.000000	60.000000	-30.000000	-49.000000
0.170000	53.070000	62.200000	664.000000	0.000000	138.000000	59.000000	-19.000000	-37.000000
0.180000	53.070000	62.080000	682.000000	0.000000	138.000000	59.000000	0.000000	-12.000000
0.190000	53.070000	62.080000	697.000000	0.000000	138.000000	59.000000	0.000000	0.000000
0.200000	53.070000	62.080000	696.000000	0.000000	136.000000	58.000000	0.000000	0.000000
0.210000	53.370000	62.630000	730.000000	0.000000	136.000000	58.000000	30.000000	55.000000
0.220000	53.750000	63.300000	758.000000	0.000000	135.000000	59.000000	38.000000	67.000000
0.230000	54.240000	64.140000	759.000000	0.000000	135.000000	59.000000	49.000000	84.000000
0.240000	54.750000	65.140000	767.000000	0.000000	135.000000	59.000000	51.000000	100.000000
0.250000	55.280000	66.140000	768.000000	0.000000	135.000000	59.000000	53.000000	100.000000
0.260000	55.660000	67.140000	779.000000	0.000000	136.000000	60.000000	38.000000	100.000000
0.270000	55.930000	67.750000	791.000000	0.000000	136.000000	60.000000	27.000000	61.000000
0.280000	56.020000	68.060000	806.000000	0.000000	136.000000	60.000000	9.000000	31.000000
0.290000	56.090000	68.170000	815.000000	0.000000	138.000000	60.000000	7.000000	11.000000
0.300000	56.140000	68.170000	814.000000	0.000000	138.000000	60.000000	5.000000	0.000000
0.310000	56.230000	68.010000	823.000000	0.000000	141.000000	60.000000	9.000000	-16.000000
0.320000	56.350000	67.700000	818.000000	0.000000	141.000000	60.000000	12.000000	-31.000000
0.330000	56.530000	66.980000	836.000000	0.000000	141.000000	60.000000	18.000000	-72.000000
0.340000	56.890000	66.220000	854.000000	0.000000	141.000000	60.000000	36.000000	-76.000000
0.350000	57.370000	65.410000	854.000000	0.000000	142.000000	59.000000	48.000000	-81.000000
0.360000	57.780000	64.600000	873.000000	0.000000	141.000000	60.000000	41.000000	-81.000000
0.370000	58.070000	63.930000	879.000000	0.000000	141.000000	60.000000	29.000000	-67.000000
0.380000	58.270000	63.340000	884.000000	0.000000	141.000000	60.000000	20.000000	-59.000000
0.390000	58.350000	62.890000	897.000000	0.000000	141.000000	60.000000	8.000000	-45.000000
0.400000	58.350000	62.620000	896.000000	0.000000	141.000000	60.000000	0.000000	-27.000000
0.410000	58.300000	62.480000	909.000000	0.000000	139.000000	60.000000	-5.000000	-14.000000
0.420000	58.230000	62.400000	840.000000	0.000000	139.000000	60.000000	-7.000000	-8.000000
0.430000	57.990000	62.400000	710.000000	0.000000	139.000000	60.000000	-24.000000	0.000000
0.440000	57.630000	62.450000	149.000000	0.000000	138.000000	59.000000	-36.000000	5.000000
0.450000	57.630000	62.450000	0.000000	1.000000	139.000000	60.000000	0.000000	0.000000
0.460000	56.820000	62.450000	0.000000	0.000000	139.000000	60.000000	-81.000000	0.000000
0.470000	56.370000	62.380000	0.000000	0.000000	139.000000	60.000000	-45.000000	-7.000000
0.480000	55.940000	62.250000	0.000000	0.000000	139.000000	61.000000	-43.000000	-13.000000
0.490000	55.690000	62.310000	0.000000	0.000000	139.000000	61.000000	-25.000000	6.000000
0.500000	55.550000	62.310000	0.000000	0.000000	139.000000	61.000000	-14.000000	0.000000
0.510000	55.550000	62.310000	0.000000	0.000000	139.000000	61.000000	0.000000	0.000000
0.520000	55.220000	62.910000	0.000000	0.000000	139.000000	61.000000	-33.000000	60.000000
0.530000	54.610000	63.270000	0.000000	0.000000	139.000000	61.000000	-61.000000	36.000000
0.540000	54.070000	63.480000	0.000000	0.000000	138.000000	60.000000	-54.000000	21.000000
0.550000	53.460000	63.610000	0.000000	0.000000	138.000000	60.000000	-61.000000	13.000000
0.560000	52.810000	63.610000	0.000000	0.000000	138.000000	59.000000	-65.000000	0.000000
0.570000	52.170000	63.450000	0.000000	0.000000	136.000000	58.000000	-64.000000	-16.000000
0.580000	51.730000	63.340000	0.000000	0.000000	135.000000	58.000000	-44.000000	-11.000000
0.590000	51.410000	63.280000	0.000000	0.000000	135.000000	58.000000	-32.000000	-6.000000
0.600000	51.410000	63.280000	465.000000	1.000000	135.000000	58.000000	0.000000	0.000000
0.610000	51.410000	63.280000	456.000000	0.000000	132.000000	58.000000	0.000000	0.000000
0.620000	51.410000	63.280000	496.000000	0.000000	134.000000	58.000000	0.000000	0.000000
0.630000	51.410000	63.280000	546.000000	0.000000	134.000000	58.000000	0.000000	0.000000
0.640000	51.410000	63.280000	610.000000	0.000000	134.000000	58.000000	0.000000	0.000000
0.650000	51.750000	63.570000	675.000000	0.000000	135.000000	59.000000	34.000000	29.000000
0.660000	52.560000	63.650000	742.000000	0.000000	135.000000	59.000000	81.000000	8.000000
0.670000	53.950000	63.650000	815.000000	0.000000	136.000000	60.000000	139.000000	0.000000
0.680000	55.730000	63.650000	908.000000	0.000000	136.000000	60.000000	178.000000	0.000000
0.690000	58.490000	63.710000	982.000000	0.000000	136.000000	60.000000	276.000000	6.000000
0.700000	61.600000	63.790000	982.000000	0.000000	138.000000	60.000000	311.000000	8.000000
0.710000	64.950000	63.900000	981.000000	0.000000	138.000000	60.000000	335.000000	11.000000
0.720000	68.420000	64.160000	941.000000	0.000000	139.000000	61.000000	347.000000	26.000000
0.730000	71.580000	64.160000	812.000000	0.000000	141.000000	61.000000	316.000000	0.000000
0.740000	74.520000	64.050000	319.000000	0.000000	143.000000	62.000000	294.000000	-11.000000
0.750000	74.520000	64.050000	0.000000	1.000000	143.000000	62.000000	0.000000	0.000000
0.760000	78.260000	63.690000	0.000000	0.000000	146.000000	63.000000	374.000000	-36.000000
0.770000	79.250000	63.690000	0.000000	0.000000	146.000000	63.000000	99.000000	0.000000
0.780000	79.490000	63.890000	0.000000	0.000000	148.000000	63.000000	24.000000	20.000000
0.790000	79.490000	64.050000	0.000000	0.000000	148.000000	63.000000	0.000000	16.000000
0.800000	79.280000	64.190000	0.000000	0.000000	146.000000	63.000000	-21.000000	14.000000
0.810000	79.080000	64.930000	0.000000	0.000000	146.000000	62.000000	-20.000000	74.000000
0.820000	78.840000	65.490000	0.000000	0.000000	144.000000	60.000000	-24.000000	56.000000
0.830000	78.580000	65.940000	0.000000	0.000000	140.000000	58.000000	-26.000000	45.000000
0.840000	78.380000	66.340000	0.000000	0.000000	140.000000	56.000000	-20.000000	40.000000
0.850000	77.970000	66.960000	0.000000	0.000000	141.000000	55.000000	-41.000000	62.000000
0.860000	77.420000	67.720000	0.000000	0.000000	143.000000	53.000000	-55.000000	76.000000
0.870000	76.550000	68.210000	0.000000	0.000000	148.000000	53.000000	-87.000000	49.000000
0.880000	75.500000	68.700000	0.000000	0.000000	153.000000	52.000000	-105.000000	49.000000
0.890000	74.340000	68.980000	0.000000	0.000000	155.000000	51.000000	-116.000000	28.000000
0.900000	72.530000	69.130000	0.000000	0.000000	159.000000	50.000000	-181.000000	15.000000
0.910000	70.900000	68.910000	0.000000	0.000000	160.000000	50.000000	-163.000000	-22.000000
0.920000	69.400000	68.640000	0.000000	0.000000	160.000000	50.000000	-150.000000	-27.000000
0.930000	68.050000	68.320000	0.000000	0.000000	160.000000	50.000000	-135.000000	-32.000000
0.940000	67.000000	68.020000	0.000000	0.000000	158.000000	51.000000	-105.000000	-30.000000
0.950000	66.140000	67.780000	0.000000	0.000000	156.000000	51.000000	-86.000000	-24.000000
0.960000	65.420000	67.550000	0.000000	0.000000	153.000000	53.000000	-72.000000	-23.000000
0.970000	64.900000	67.320000	0.000000	0.000000	151.000000	54.000000	-52.000000	-23.000000
0.980000	64.500000	67.110000	0.000000	0.000000	148.000000	57.000000	-40.000000	-21.000000
0.990000	64.340000	66.940000	0.000000	0.000000	147.000000	58.000000	-16.000000	-17.000000
1.000000	64.280000	66.790000	0.000000	0.000000	146.000000	60.000000	-6.000000	-15.000000
1.010000	64.280000	66.720000	0.000000	0.000000	145.000000	60.000000	0.000000	-7.000000
1.020000	64.210000	66.570000	0.000000	0.000000	144.000000	60.000000	-7.000000	-15.000000
1.030000	63.960000	66.360000	0.000000	0.000000	141.000000	60.000000	-25.000000	-21.000000
1.040000	63.590000	66.360000	0.000000	0.000000	139.000000	60.000000	-37.000000	0.000000
1.050000	63.280000	66.220000	0.000000	0.000000	138.000000	60.000000	-31.000000	-14.000000
1.060000	63.000000	66.170000	0.000000	0.000000	138.000000	60.000000	-28.000000	-5.000000
1.070000	62.940000	66.170000	0.000000	0.000000	135.000000	60.000000	-6.000000	0.000000
1.080000	63.020000	66.310000	0.000000	0.000000	135.000000	60.000000	8.000000	14.000000
1.090000	63.140000	66.500000	0.000000	0.000000	136.000000	61.000000	12.000000	19.000000
1.100000	63.140000	66.500000	137.000000	1.000000	135.000000	62.000000	0.000000	0.000000
1.110000	63.510000	66.920000	213.000000	0.000000	135.000000	62.000000	37.000000	42.000000
1.120000	63.560000	67.090000	267.000000	0.000000	133.000000	62.000000	5.000000	17.000000
1.130000	63.500000	67.190000	391.000000	0.000000	133.000000	62.000000	-6.000000	10.000000
1.140000	63.500000	67.260000	478.000000	0.000000	132.000000	63.000000	0.000000	7.000000
1.150000	63.370000	67.330000	544.000000	0.000000	132.000000	63.000000	-13.000000	7.000000
1.160000	63.240000	67.330000	570.000000	0.000000	133.000000	63.000000	-13.000000	0.000000
1.170000	63.020000	67.330000	595.000000	0.000000	133.000000	63.000000	-22.000000	0.000000
1.180000	62.640000	67.230000	616.000000	0.000000	133.000000	63.000000	-38.000000	-10.000000
1.190000	62.150000	66.920000	638.000000	0.000000	135.000000	63.000000	-49.000000	-31.000000
1.200000	61.600000	66.480000	641.000000	0.000000	135.000000	63.000000	-55.000000	-44.000000
1.210000	61.080000	65.830000	652.000000	0.000000	135.000000	63.000000	-52.000000	-65.000000
1.220000	60.660000	65.170000	656.000000	0.000000	135.000000	63.000000	-42.000000	-66.000000
1.230000	60.550000	64.520000	659.000000	0.000000	135.000000	63.000000	-11.000000	-65.000000
1.240000	60.630000	64.120000	687.000000	0.000000	135.000000	63.000000	8.000000	-40.000000
1.250000	61.010000	63.860000	733.000000	0.000000	137.000000	62.000000	38.000000	-26.000000
1.260000	61.450000	63.860000	768.000000	0.000000	137.000000	62.000000	44.000000	0.000000
1.270000	61.990000	64.120000	805.000000	0.000000	137.000000	62.000000	54.000000	26.000000
1.280000	62.580000	64.480000	819.000000	0.000000	137.000000	62.000000	59.000000	36.000000
1.290000	63.170000	65.180000	854.000000	0.000000	135.000000	62.000000	59.000000	70.000000
1.300000	63.570000	65.930000	870.000000	0.000000	133.000000	62.000000	40.000000	75.000000
1.310000	63.860000	66.710000	882.000000	0.000000	133.000000	62.000000	29.000000	78.000000
1.320000	63.960000	67.440000	905.000000	0.000000	133.000000	62.000000	10.000000	73.000000
1.330000	63.960000	67.910000	905.000000	0.000000	133.000000	62.000000	0.000000	47.000000
1.340000	63.960000	68.200000	926.000000	0.000000	132.000000	61.000000	0.000000	29.000000
1.350000	63.960000	68.200000	923.000000	0.000000	135.000000	62.000000	0.000000	0.000000
1.360000	63.960000	68.200000	914.000000	0.000000	135.000000	62.000000	0.000000	0.000000
1.370000	63.960000	68.080000	915.000000	0.000000	135.000000	62.000000	0.000000	-12.000000
1.380000	63.960000	67.550000	914.000000	0.000000	135.000000	62.000000	0.000000	-53.000000
1.390000	63.880000	66.750000	896.000000	0.000000	136.000000	61.000000	-8.000000	-80.000000
1.400000	63.730000	65.900000	900.000000	0.000000	136.000000	61.000000	-15.000000	-85.000000
1.410000	63.600000	64.900000	906.000000	0.000000	136.000000	61.000000	-13.000000	-100.000000
1.420000	63.470000	63.790000	903.000000	0.000000	135.000000	62.000000	-13.000000	-111.000000
1.430000	63.190000	62.690000	899.000000	0.000000	135.000000	62.000000	-28.000000	-110.000000
1.440000	62.790000	61.840000	902.000000	0.000000	135.000000	62.000000	-40.000000	-85.000000
1.450000	62.660000	61.150000	897.000000	0.000000	132.000000	61.000000	-13.000000	-69.000000
1.460000	62.540000	60.910000	902.000000	0.000000	132.000000	61.000000	-12.000000	-24.000000
1.470000	62.460000	60.910000	905.000000	0.000000	131.000000	61.000000	-8.000000	0.000000
1.480000	62.520000	60.990000	905.000000	0.000000	131.000000	61.000000	6.000000	8.000000
1.490000	62.660000	61.250000	906.000000	0.000000	129.000000	61.000000	14.000000	26.000000
1.500000	63.050000	61.760000	897.000000	0.000000	128.000000	61.000000	39.000000	51.000000
1.510000	63.490000	62.450000	897.000000	0.000000	128.000000	61.000000	44.000000	69.000000
1.520000	63.930000	63.150000	897.000000	0.000000	128.000000	61.000000	44.000000	70.000000
1.530000	64.350000	63.840000	905.000000	0.000000	129.000000	61.000000	42.000000	69.000000
1.540000	64.800000	64.450000	911.000000	0.000000	129.000000	61.000000	45.000000	61.000000
1.550000	65.100000	65.010000	918.000000	0.000000	129.000000	61.000000	30.000000	56.000000
1.560000	65.310000	65.320000	926.000000	0.000000	130.000000	62.000000	21.000000	31.000000
1.570000	65.390000	65.590000	942.000000	0.000000	130.000000	62.000000	8.000000	27.000000
1.580000	65.390000	65.660000	933.000000	0.000000	130.000000	62.000000	0.000000	7.000000
1.590000	65.390000	65.660000	951.000000	0.000000	130.000000	62.000000	0.000000	0.000000
1.600000	65.390000	65.600000	944.000000	0.000000	130.000000	62.000000	0.000000	-6.000000
1.610000	65.390000	65.600000	938.000000	0.000000	130.000000	62.000000	0.000000	0.000000
1.620000	65.390000	65.500000	935.000000	0.000000	130.000000	62.000000	0.000000	-10.000000
1.630000	65.390000	65.380000	933.000000	0.000000	130.000000	62.000000	0.000000	-12.000000
1.640000	65.330000	65.180000	933.000000	0.000000	130.000000	62.000000	-6.000000	-20.000000
1.650000	65.330000	64.860000	933.000000	0.000000	130.000000	62.000000	0.000000	-32.000000
1.660000	65.220000	64.470000	932.000000	0.000000	133.000000	62.000000	-11.000000	-39.000000
1.670000	65.170000	64.170000	923.000000	0.000000	133.000000	62.000000	-5.000000	-30.000000
1.680000	65.170000	64.040000	914.000000	0.000000	133.000000	62.000000	0.000000	-13.000000
1.690000	65.220000	64.040000	914.000000	0.000000	133.000000	62.000000	5.000000	0.000000
1.700000	65.330000	64.040000	920.000000	0.000000	133.000000	62.000000	11.000000	0.000000
1.710000	65.500000	64.120000	923.000000	0.000000	133.000000	62.000000	17.000000	8.000000
1.720000	65.650000	64.210000	921.000000	0.000000	133.000000	62.000000	15.000000	9.000000
1.730000	65.780000	64.390000	917.000000	0.000000	133.000000	62.000000	13.000000	18.000000
1.740000	65.900000	64.640000	921.000000	0.000000	133.000000	62.000000	12.000000	25.000000
1.750000	65.990000	64.950000	930.000000	0.000000	133.000000	62.000000	9.000000	31.000000
1.760000	66.060000	65.090000	930.000000	0.000000	133.000000	62.000000	7.000000	14.000000
1.770000	66.060000	65.190000	932.000000	0.000000	133.000000	62.000000	0.000000	10.000000
1.780000	66.060000	65.190000	930.000000	0.000000	133.000000	62.000000	0.000000	0.000000
1.790000	66.060000	65.190000	923.000000	0.000000	133.000000	62.000000	0.000000	0.000000
1.800000	66.060000	65.070000	915.000000	0.000000	133.000000	62.000000	0.000000	-12.000000
1.810000	66.060000	64.960000	912.000000	0.000000	133.000000	62.000000	0.000000	-11.000000
1.820000	66.060000	64.810000	911.000000	0.000000	133.000000	62.000000	0.000000	-15.000000
1.830000	66.140000	64.670000	912.000000	0.000000	133.000000	62.000000	8.000000	-14.000000
1.840000	66.280000	64.540000	909.000000	0.000000	133.000000	62.000000	14.000000	-13.000000
1.850000	66.430000	64.540000	914.000000	0.000000	132.000000	63.000000	15.000000	0.000000
1.860000	66.580000	64.610000	927.000000	0.000000	132.000000	63.000000	15.000000	7.000000
1.870000	66.720000	64.800000	935.000000	0.000000	132.000000	63.000000	14.000000	19.000000
1.880000	66.910000	65.120000	935.000000	0.000000	132.000000	63.000000	19.000000	32.000000
1.890000	67.090000	65.520000	945.000000	0.000000	132.000000	63.000000	18.000000	40.000000
1.900000	67.230000	65.880000	950.000000	0.000000	132.000000	63.000000	14.000000	36.000000
1.910000	67.340000	66.280000	935.000000	0.000000	132.000000	63.000000	11.000000	40.000000
1.920000	67.430000	66.720000	938.000000	0.000000	132.000000	63.000000	9.000000	44.000000
1.930000	67.480000	67.130000	941.000000	0.000000	133.000000	63.000000	5.000000	41.000000
1.940000	67.480000	67.540000	946.000000	0.000000	133.000000	63.000000	0.000000	41.000000
1.950000	67.480000	67.850000	944.000000	0.000000	133.000000	63.000000	0.000000	31.000000
1.960000	67.480000	68.100000	950.000000	0.000000	133.000000	63.000000	0.000000	25.000000
1.970000	67.480000	68.200000	950.000000	0.000000	135.000000	63.000000	0.000000	10.000000
1.980000	67.480000	68.320000	952.000000	0.000000	137.000000	63.000000	0.000000	12.000000
1.990000	67.480000	68.460000	956.000000	0.000000	138.000000	63.000000	0.000000	14.000000
2.000000	67.530000	68.570000	955.000000	0.000000	138.000000	63.000000	5.000000	11.000000
2.010000	67.530000	68.630000	952.000000	0.000000	140.000000	62.000000	0.000000	6.000000
2.020000	67.530000	68.630000	946.000000	0.000000	140.000000	62.000000	0.000000	0.000000
2.030000	67.530000	68.570000	941.000000	0.000000	140.000000	62.000000	0.000000	-6.000000
2.040000	67.480000	68.280000	940.000000	0.000000	141.000000	61.000000	-5.000000	-29.000000
2.050000	67.480000	67.850000	937.000000	0.000000	140.000000	62.000000	0.000000	-43.000000
2.060000	67.400000	67.250000	934.000000	0.000000	140.000000	62.000000	-8.000000	-60.000000
2.070000	67.340000	66.640000	933.000000	0.000000	140.000000	62.000000	-6.000000	-61.000000
2.080000	67.340000	66.040000	951.000000	0.000000	138.000000	63.000000	0.000000	-60.000000
2.090000	67.340000	65.550000	951.000000	0.000000	138.000000	63.000000	0.000000	-49.000000
2.100000	67.340000	65.140000	951.000000	0.000000	137.000000	62.000000	0.000000	-41.000000
2.110000	67.340000	64.850000	948.000000	0.000000	135.000000	63.000000	0.000000	-29.000000
2.120000	67.460000	64.650000	944.000000	0.000000	135.000000	63.000000	12.000000	-20.000000
2.130000	67.570000	64.510000	944.000000	0.000000	135.000000	63.000000	11.000000	-14.000000
2.140000	67.690000	64.510000	937.000000	0.000000	132.000000	63.000000	12.000000	0.000000
2.150000	67.810000	64.510000	935.000000	0.000000	132.000000	63.000000	12.000000	0.000000
2.160000	67.920000	64.640000	937.000000	0.000000	133.000000	63.000000	11.000000	13.000000
2.170000	67.920000	64.640000	941.000000	0.000000	133.000000	63.000000	0.000000	0.000000
2.180000	68.180000	65.120000	946.000000	0.000000	133.000000	63.000000	26.000000	48.000000
2.190000	68.300000	65.390000	950.000000	0.000000	133.000000	63.000000	12.000000	27.000000
2.200000	68.370000	65.600000	953.000000	0.000000	133.000000	63.000000	7.000000	21.000000
2.210000	68.420000	65.730000	955.000000	0.000000	133.000000	63.000000	5.000000	13.000000
