t	x	y	pressure	penup	azimuth	inclination	v_x	v_y
0.000000	53.560000	45.800000	1.000000	1.000000	90.000000	61.000000	0.000000	0.000000
0.010000	53.560000	45.800000	32.000000	1.000000	90.000000	61.000000	0.000000	0.000000
0.020000	53.560000	45.800000	32.000000	0.000000	90.000000	62.000000	0.000000	0.000000
0.030000	53.560000	45.800000	8.000000	1.000000	90.000000	62.000000	0.000000	0.000000
0.040000	53.560000	45.800000	0.000000	0.000000	90.000000	62.000000	0.000000	0.000000
0.050000	53.950000	45.870000	0.000000	0.000000	90.000000	62.000000	39.000000	7.000000
0.060000	54.140000	45.870000	0.000000	0.000000	90.000000	62.000000	19.000000	0.000000
0.070000	54.320000	45.870000	0.000000	0.000000	90.000000	62.000000	18.000000	0.000000
0.080000	54.500000	45.870000	0.000000	0.000000	90.000000	63.000000	18.000000	0.000000
0.090000	54.640000	45.870000	0.000000	0.000000	90.000000	63.000000	14.000000	0.000000
0.100000	54.750000	45.940000	0.000000	0.000000	90.000000	63.000000	11.000000	7.000000
0.110000	54.830000	45.940000	0.000000	0.000000	90.000000	64.000000	8.000000	0.000000
0.120000	54.930000	46.040000	0.000000	0.000000	90.000000	64.000000	10.000000	10.000000
0.130000	55.030000	46.130000	0.000000	0.000000	90.000000	64.000000	10.000000	9.000000
0.140000	55.160000	46.330000	0.000000	0.000000	90.000000	65.000000	13.000000	20.000000
0.150000	55.290000	46.610000	0.000000	0.000000	90.000000	65.000000	13.000000	28.000000
0.160000	55.420000	46.940000	0.000000	0.000000	92.000000	65.000000	13.000000	33.000000
0.170000	55.510000	47.240000	0.000000	0.000000	94.000000	65.000000	9.000000	30.000000
0.180000	55.580000	47.540000	0.000000	0.000000	94.000000	65.000000	7.000000	30.000000
0.190000	55.670000	47.910000	0.000000	0.000000	97.000000	66.000000	9.000000	37.000000
0.200000	55.760000	48.340000	0.000000	0.000000	97.000000	66.000000	9.000000	43.000000
0.210000	55.760000	48.690000	0.000000	0.000000	97.000000	66.000000	0.000000	35.000000
0.220000	55.900000	49.020000	0.000000	0.000000	94.000000	66.000000	14.000000	33.000000
0.230000	56.120000	49.320000	0.000000	0.000000	95.000000	67.000000	22.000000	30.000000
0.240000	56.330000	49.660000	0.000000	0.000000	92.000000	67.000000	21.000000	34.000000
0.250000	56.530000	50.030000	0.000000	0.000000	90.000000	68.000000	20.000000	37.000000
0.260000	56.750000	50.480000	0.000000	0.000000	90.000000	68.000000	22.000000	45.000000
0.270000	56.950000	50.970000	0.000000	0.000000	87.000000	69.000000	20.000000	49.000000
0.280000	57.120000	51.520000	0.000000	0.000000	87.000000	69.000000	17.000000	55.000000
0.290000	57.290000	52.110000	0.000000	0.000000	87.000000	69.000000	17.000000	59.000000
0.300000	57.290000	52.730000	0.000000	0.000000	87.000000	69.000000	0.000000	62.000000
0.310000	57.240000	53.310000	0.000000	0.000000	90.000000	70.000000	-5.000000	58.000000
0.320000	57.240000	54.080000	0.000000	0.000000	93.000000	71.000000	0.000000	77.000000
0.330000	57.120000	54.990000	0.000000	0.000000	96.000000	72.000000	-12.000000	91.000000
0.340000	57.010000	55.930000	0.000000	0.000000	106.000000	72.000000	-11.000000	94.000000
0.350000	56.800000	57.120000	0.000000	0.000000	112.000000	72.000000	-21.000000	119.000000
0.360000	56.410000	58.480000	0.000000	0.000000	115.000000	71.000000	-39.000000	136.000000
0.370000	55.890000	60.030000	0.000000	0.000000	118.000000	70.000000	-52.000000	155.000000
0.380000	55.110000	61.550000	0.000000	0.000000	119.000000	68.000000	-78.000000	152.000000
0.390000	54.260000	63.230000	0.000000	0.000000	119.000000	66.000000	-85.000000	168.000000
0.400000	53.360000	65.020000	0.000000	0.000000	119.000000	63.000000	-90.000000	179.000000
0.410000	52.340000	66.730000	0.000000	0.000000	119.000000	60.000000	-102.000000	171.000000
0.420000	51.110000	68.390000	0.000000	0.000000	117.000000	55.000000	-123.000000	166.000000
0.430000	49.730000	69.420000	0.000000	0.000000	117.000000	51.000000	-138.000000	103.000000
0.440000	48.930000	70.040000	0.000000	0.000000	114.000000	46.000000	-80.000000	62.000000
0.450000	48.470000	70.040000	0.000000	0.000000	112.000000	43.000000	-46.000000	0.000000
0.460000	48.240000	69.290000	0.000000	0.000000	110.000000	39.000000	-23.000000	-75.000000
0.470000	48.190000	68.050000	0.000000	0.000000	109.000000	36.000000	-5.000000	-124.000000
0.480000	48.310000	66.410000	0.000000	0.000000	108.000000	35.000000	12.000000	-164.000000
0.490000	48.550000	64.570000	0.000000	0.000000	107.000000	34.000000	24.000000	-184.000000
0.500000	48.980000	62.610000	0.000000	0.000000	105.000000	34.000000	43.000000	-196.000000
0.510000	49.440000	60.920000	0.000000	0.000000	104.000000	34.000000	46.000000	-169.000000
0.520000	49.920000	59.230000	0.000000	0.000000	103.000000	36.000000	48.000000	-169.000000
0.530000	50.790000	57.490000	0.000000	0.000000	103.000000	37.000000	87.000000	-174.000000
0.540000	51.850000	55.720000	0.000000	0.000000	103.000000	40.000000	106.000000	-177.000000
0.550000	53.030000	53.950000	0.000000	0.000000	103.000000	42.000000	118.000000	-177.000000
0.560000	53.950000	52.180000	0.000000	0.000000	102.000000	45.000000	92.000000	-177.000000
0.570000	54.530000	50.610000	0.000000	0.000000	100.000000	49.000000	58.000000	-157.000000
0.580000	54.870000	49.180000	0.000000	0.000000	99.000000	52.000000	34.000000	-143.000000
0.590000	55.050000	47.820000	0.000000	0.000000	97.000000	54.000000	18.000000	-136.000000
0.600000	55.160000	46.760000	0.000000	0.000000	96.000000	56.000000	11.000000	-106.000000
0.610000	55.210000	45.910000	0.000000	0.000000	95.000000	58.000000	5.000000	-85.000000
0.620000	55.280000	45.290000	0.000000	0.000000	93.000000	60.000000	7.000000	-62.000000
0.630000	55.280000	44.850000	0.000000	0.000000	92.000000	61.000000	0.000000	-44.000000
0.640000	55.280000	44.520000	0.000000	0.000000	90.000000	62.000000	0.000000	-33.000000
0.650000	55.210000	44.350000	0.000000	0.000000	90.000000	63.000000	-7.000000	-17.000000
0.660000	54.990000	44.210000	0.000000	0.000000	90.000000	63.000000	-22.000000	-14.000000
0.670000	54.760000	44.090000	0.000000	0.000000	92.000000	63.000000	-23.000000	-12.000000
0.680000	54.520000	43.870000	0.000000	0.000000	92.000000	63.000000	-24.000000	-22.000000
0.690000	54.250000	43.640000	0.000000	0.000000	92.000000	62.000000	-27.000000	-23.000000
0.700000	54.010000	43.400000	0.000000	0.000000	90.000000	62.000000	-24.000000	-24.000000
0.710000	53.830000	43.180000	0.000000	0.000000	90.000000	62.000000	-18.000000	-22.000000
0.720000	53.690000	43.010000	0.000000	0.000000	90.000000	62.000000	-14.000000	-17.000000
0.730000	53.560000	42.900000	0.000000	0.000000	90.000000	61.000000	-13.000000	-11.000000
0.740000	53.460000	42.850000	0.000000	0.000000	88.000000	61.000000	-10.000000	-5.000000
0.750000	53.350000	42.800000	0.000000	0.000000	88.000000	61.000000	-11.000000	-5.000000
0.760000	53.240000	42.740000	0.000000	0.000000	88.000000	60.000000	-11.000000	-6.000000
0.770000	53.240000	42.740000	0.000000	0.000000	88.000000	60.000000	0.000000	0.000000
0.780000	53.240000	42.740000	0.000000	0.000000	88.000000	60.000000	0.000000	0.000000
0.790000	52.970000	42.490000	0.000000	0.000000	88.000000	59.000000	-27.000000	-25.000000
0.800000	52.880000	42.490000	0.000000	0.000000	88.000000	59.000000	-9.000000	0.000000
0.810000	52.780000	42.650000	0.000000	0.000000	88.000000	59.000000	-10.000000	16.000000
0.820000	52.720000	42.960000	0.000000	0.000000	88.000000	59.000000	-6.000000	31.000000
0.830000	52.720000	43.450000	0.000000	0.000000	88.000000	59.000000	0.000000	49.000000
0.840000	52.720000	43.950000	0.000000	0.000000	88.000000	59.000000	0.000000	50.000000
0.850000	52.720000	44.430000	0.000000	0.000000	88.000000	59.000000	0.000000	48.000000
0.860000	52.720000	44.910000	0.000000	0.000000	88.000000	59.000000	0.000000	48.000000
0.870000	52.770000	45.470000	0.000000	0.000000	88.000000	59.000000	5.000000	56.000000
0.880000	52.820000	46.080000	0.000000	0.000000	90.000000	59.000000	5.000000	61.000000
0.890000	52.930000	46.900000	0.000000	0.000000	90.000000	60.000000	11.000000	82.000000
0.900000	53.080000	47.840000	0.000000	0.000000	90.000000	60.000000	15.000000	94.000000
0.910000	53.230000	48.980000	0.000000	0.000000	90.000000	60.000000	15.000000	114.000000
0.920000	53.370000	50.190000	0.000000	0.000000	92.000000	60.000000	14.000000	121.000000
0.930000	53.370000	50.190000	103.000000	1.000000	95.000000	60.000000	0.000000	0.000000
0.940000	53.700000	52.430000	205.000000	0.000000	97.000000	61.000000	33.000000	224.000000
0.950000	53.900000	53.080000	327.000000	0.000000	99.000000	61.000000	20.000000	65.000000
0.960000	54.020000	53.510000	440.000000	0.000000	101.000000	61.000000	12.000000	43.000000
0.970000	54.090000	53.710000	537.000000	0.000000	102.000000	60.000000	7.000000	20.000000
0.980000	54.090000	53.710000	605.000000	0.000000	104.000000	60.000000	0.000000	0.000000
0.990000	54.090000	53.650000	649.000000	0.000000	106.000000	60.000000	0.000000	-6.000000
1.000000	54.090000	53.520000	696.000000	0.000000	107.000000	61.000000	0.000000	-13.000000
1.010000	54.090000	53.330000	731.000000	0.000000	108.000000	61.000000	0.000000	-19.000000
1.020000	54.010000	52.850000	780.000000	0.000000	108.000000	61.000000	-8.000000	-48.000000
1.030000	53.880000	52.200000	823.000000	0.000000	108.000000	61.000000	-13.000000	-65.000000
1.040000	53.750000	51.490000	831.000000	0.000000	108.000000	61.000000	-13.000000	-71.000000
1.050000	53.520000	50.610000	843.000000	0.000000	108.000000	61.000000	-23.000000	-88.000000
1.060000	53.220000	49.620000	857.000000	0.000000	107.000000	61.000000	-30.000000	-99.000000
1.070000	52.900000	48.540000	894.000000	0.000000	107.000000	61.000000	-32.000000	-108.000000
1.080000	52.540000	47.370000	893.000000	0.000000	105.000000	61.000000	-36.000000	-117.000000
1.090000	52.150000	46.130000	897.000000	0.000000	103.000000	61.000000	-39.000000	-124.000000
1.100000	51.800000	45.020000	903.000000	0.000000	101.000000	62.000000	-35.000000	-111.000000
1.110000	51.480000	44.090000	911.000000	0.000000	97.000000	61.000000	-32.000000	-93.000000
1.120000	51.210000	43.290000	918.000000	0.000000	95.000000	61.000000	-27.000000	-80.000000
1.130000	51.030000	42.670000	926.000000	0.000000	94.000000	61.000000	-18.000000	-62.000000
1.140000	50.920000	42.360000	927.000000	0.000000	92.000000	61.000000	-11.000000	-31.000000
1.150000	50.870000	42.250000	927.000000	0.000000	90.000000	60.000000	-5.000000	-11.000000
1.160000	50.870000	42.310000	932.000000	0.000000	90.000000	60.000000	0.000000	6.000000
1.170000	50.870000	42.420000	932.000000	0.000000	90.000000	60.000000	0.000000	11.000000
1.180000	51.080000	43.050000	939.000000	0.000000	90.000000	60.000000	21.000000	63.000000
1.190000	51.340000	44.000000	938.000000	0.000000	88.000000	60.000000	26.000000	95.000000
1.200000	51.650000	45.020000	941.000000	0.000000	90.000000	60.000000	31.000000	102.000000
1.210000	52.060000	46.150000	942.000000	0.000000	90.000000	60.000000	41.000000	113.000000
1.220000	52.540000	47.350000	948.000000	0.000000	90.000000	60.000000	48.000000	120.000000
1.230000	52.950000	48.800000	937.000000	0.000000	90.000000	61.000000	41.000000	145.000000
1.240000	53.370000	50.090000	935.000000	0.000000	92.000000	61.000000	42.000000	129.000000
1.250000	53.760000	51.280000	951.000000	0.000000	94.000000	61.000000	39.000000	119.000000
1.260000	53.990000	52.380000	934.000000	0.000000	97.000000	62.000000	23.000000	110.000000
1.270000	54.120000	53.180000	940.000000	0.000000	99.000000	62.000000	13.000000	80.000000
1.280000	54.200000	53.770000	944.000000	0.000000	101.000000	62.000000	8.000000	59.000000
1.290000	54.270000	53.920000	962.000000	0.000000	103.000000	61.000000	7.000000	15.000000
1.300000	54.320000	54.020000	985.000000	0.000000	105.000000	62.000000	5.000000	10.000000
1.310000	54.320000	54.080000	977.000000	0.000000	107.000000	62.000000	0.000000	6.000000
1.320000	54.320000	54.080000	997.000000	0.000000	107.000000	62.000000	0.000000	0.000000
1.330000	54.320000	54.080000	977.000000	0.000000	109.000000	62.000000	0.000000	0.000000
1.340000	54.320000	53.990000	994.000000	0.000000	109.000000	62.000000	0.000000	-9.000000
1.350000	54.320000	53.640000	988.000000	0.000000	109.000000	62.000000	0.000000	-35.000000
1.360000	54.320000	53.090000	982.000000	0.000000	109.000000	62.000000	0.000000	-55.000000
1.370000	54.320000	52.500000	979.000000	0.000000	109.000000	62.000000	0.000000	-59.000000
1.380000	54.210000	51.650000	977.000000	0.000000	109.000000	62.000000	-11.000000	-85.000000
1.390000	54.070000	50.640000	980.000000	0.000000	109.000000	62.000000	-14.000000	-101.000000
1.400000	53.950000	49.540000	980.000000	0.000000	107.000000	62.000000	-12.000000	-110.000000
1.410000	53.870000	48.440000	962.000000	0.000000	107.000000	62.000000	-8.000000	-110.000000
1.420000	53.870000	47.670000	933.000000	0.000000	107.000000	62.000000	0.000000	-77.000000
1.430000	54.010000	47.130000	915.000000	0.000000	105.000000	62.000000	14.000000	-54.000000
1.440000	54.230000	46.950000	896.000000	0.000000	104.000000	62.000000	22.000000	-18.000000
1.450000	54.530000	47.030000	900.000000	0.000000	102.000000	63.000000	30.000000	8.000000
1.460000	54.870000	47.290000	890.000000	0.000000	100.000000	63.000000	34.000000	26.000000
1.470000	55.190000	47.670000	888.000000	0.000000	98.000000	63.000000	32.000000	38.000000
1.480000	55.490000	48.030000	888.000000	0.000000	98.000000	63.000000	30.000000	36.000000
1.490000	55.770000	48.190000	888.000000	0.000000	96.000000	63.000000	28.000000	16.000000
1.500000	55.900000	48.190000	897.000000	0.000000	96.000000	63.000000	13.000000	0.000000
1.510000	55.900000	48.240000	906.000000	0.000000	96.000000	64.000000	0.000000	5.000000
1.520000	55.960000	48.240000	896.000000	0.000000	98.000000	64.000000	6.000000	0.000000
1.530000	55.960000	48.180000	900.000000	0.000000	98.000000	64.000000	0.000000	-6.000000
1.540000	55.900000	48.120000	903.000000	0.000000	98.000000	64.000000	-6.000000	-6.000000
1.550000	55.900000	48.040000	912.000000	0.000000	98.000000	64.000000	0.000000	-8.000000
1.560000	55.900000	47.770000	921.000000	0.000000	98.000000	64.000000	0.000000	-27.000000
1.570000	55.900000	47.380000	945.000000	0.000000	99.000000	65.000000	0.000000	-39.000000
1.580000	55.900000	46.750000	940.000000	0.000000	99.000000	65.000000	0.000000	-63.000000
1.590000	55.900000	46.170000	938.000000	0.000000	96.000000	65.000000	0.000000	-58.000000
1.600000	55.770000	45.620000	964.000000	0.000000	96.000000	65.000000	-13.000000	-55.000000
1.610000	55.680000	45.050000	967.000000	0.000000	94.000000	65.000000	-9.000000	-57.000000
1.620000	55.630000	44.500000	971.000000	0.000000	94.000000	65.000000	-5.000000	-55.000000
1.630000	55.630000	43.960000	965.000000	0.000000	92.000000	65.000000	0.000000	-54.000000
1.640000	55.630000	43.530000	968.000000	0.000000	92.000000	65.000000	0.000000	-43.000000
1.650000	55.680000	43.090000	968.000000	0.000000	90.000000	65.000000	5.000000	-44.000000
1.660000	55.780000	42.720000	968.000000	0.000000	90.000000	65.000000	10.000000	-37.000000
1.670000	55.890000	42.400000	968.000000	0.000000	90.000000	65.000000	11.000000	-32.000000
1.680000	56.020000	42.180000	968.000000	0.000000	90.000000	65.000000	13.000000	-22.000000
1.690000	56.070000	42.060000	964.000000	0.000000	90.000000	65.000000	5.000000	-12.000000
1.700000	56.070000	42.000000	958.000000	0.000000	90.000000	66.000000	0.000000	-6.000000
1.710000	56.070000	42.000000	959.000000	0.000000	90.000000	66.000000	0.000000	0.000000
1.720000	55.980000	42.000000	958.000000	0.000000	90.000000	66.000000	-9.000000	0.000000
1.730000	55.880000	42.100000	958.000000	0.000000	90.000000	66.000000	-10.000000	10.000000
1.740000	55.460000	42.340000	952.000000	0.000000	90.000000	66.000000	-42.000000	24.000000
1.750000	55.050000	42.440000	956.000000	0.000000	90.000000	66.000000	-41.000000	10.000000
1.760000	54.610000	42.440000	949.000000	0.000000	90.000000	66.000000	-44.000000	0.000000
1.770000	54.180000	42.440000	949.000000	0.000000	90.000000	66.000000	-43.000000	0.000000
1.780000	53.770000	42.350000	950.000000	0.000000	90.000000	66.000000	-41.000000	-9.000000
1.790000	53.100000	42.190000	953.000000	0.000000	90.000000	66.000000	-67.000000	-16.000000
1.800000	52.360000	41.930000	955.000000	0.000000	90.000000	65.000000	-74.000000	-26.000000
1.810000	51.570000	41.600000	968.000000	0.000000	90.000000	65.000000	-79.000000	-33.000000
1.820000	50.980000	41.390000	974.000000	0.000000	90.000000	65.000000	-59.000000	-21.000000
1.830000	50.620000	41.270000	974.000000	0.000000	90.000000	64.000000	-36.000000	-12.000000
1.840000	50.410000	41.210000	982.000000	0.000000	90.000000	64.000000	-21.000000	-6.000000
1.850000	50.360000	41.210000	980.000000	0.000000	92.000000	64.000000	-5.000000	0.000000
1.860000	50.360000	41.210000	980.000000	0.000000	92.000000	63.000000	0.000000	0.000000
1.870000	50.360000	41.280000	983.000000	0.000000	92.000000	63.000000	0.000000	7.000000
1.880000	50.360000	41.280000	983.000000	0.000000	92.000000	63.000000	0.000000	0.000000
1.890000	50.360000	41.370000	983.000000	0.000000	92.000000	63.000000	0.000000	9.000000
1.900000	50.430000	41.420000	983.000000	0.000000	92.000000	62.000000	7.000000	5.000000
1.910000	50.480000	41.530000	985.000000	0.000000	92.000000	62.000000	5.000000	11.000000
1.920000	50.530000	41.610000	991.000000	0.000000	92.000000	62.000000	5.000000	8.000000
1.930000	50.530000	41.610000	991.000000	0.000000	92.000000	62.000000	0.000000	0.000000
1.940000	50.530000	41.610000	989.000000	0.000000	92.000000	62.000000	0.000000	0.000000
1.950000	50.530000	41.610000	977.000000	0.000000	92.000000	62.000000	0.000000	0.000000
1.960000	50.530000	41.610000	964.000000	0.000000	92.000000	62.000000	0.000000	0.000000
1.970000	50.530000	41.610000	946.000000	0.000000	92.000000	62.000000	0.000000	0.000000
1.980000	50.530000	41.610000	930.000000	0.000000	92.000000	62.000000	0.000000	0.000000
1.990000	50.530000	41.610000	870.000000	0.000000	92.000000	62.000000	0.000000	0.000000
2.000000	50.530000	41.610000	751.000000	0.000000	92.000000	62.000000	0.000000	0.000000
2.010000	50.530000	41.610000	610.000000	0.000000	92.000000	62.000000	0.000000	0.000000
2.020000	50.730000	41.800000	210.000000	0.000000	92.000000	62.000000	20.000000	19.000000
2.030000	50.730000	41.800000	0.000000	1.000000	92.000000	62.000000	0.000000	0.000000
2.040000	51.560000	42.900000	0.000000	0.000000	92.000000	63.000000	83.000000	110.000000
2.050000	52.060000	43.430000	0.000000	0.000000	92.000000	63.000000	50.000000	53.000000
2.060000	52.560000	43.990000	0.000000	0.000000	92.000000	63.000000	50.000000	56.000000
2.070000	53.140000	44.550000	0.000000	0.000000	92.000000	63.000000	58.000000	56.000000
2.080000	53.960000	45.110000	0.000000	0.000000	92.000000	63.000000	82.000000	56.000000
2.090000	54.950000	45.570000	0.000000	0.000000	94.000000	63.000000	99.000000	46.000000
2.100000	55.780000	45.990000	0.000000	0.000000	96.000000	64.000000	83.000000	42.000000
2.110000	56.620000	46.390000	0.000000	0.000000	98.000000	64.000000	84.000000	40.000000
2.120000	57.750000	46.680000	0.000000	0.000000	102.000000	63.000000	113.000000	29.000000
2.130000	59.060000	46.960000	0.000000	0.000000	104.000000	63.000000	131.000000	28.000000
2.140000	60.100000	47.180000	0.000000	0.000000	108.000000	63.000000	104.000000	22.000000
2.150000	60.890000	47.280000	0.000000	0.000000	110.000000	63.000000	79.000000	10.000000
2.160000	61.520000	47.280000	0.000000	0.000000	111.000000	61.000000	63.000000	0.000000
2.170000	61.850000	47.280000	0.000000	0.000000	111.000000	61.000000	33.000000	0.000000
2.180000	61.850000	47.080000	0.000000	0.000000	112.000000	60.000000	0.000000	-20.000000
2.190000	61.640000	46.830000	0.000000	0.000000	112.000000	60.000000	-21.000000	-25.000000
2.200000	61.270000	46.530000	0.000000	0.000000	109.000000	60.000000	-37.000000	-30.000000
2.210000	60.840000	46.250000	0.000000	0.000000	109.000000	60.000000	-43.000000	-28.000000
2.220000	60.380000	45.980000	0.000000	0.000000	108.000000	60.000000	-46.000000	-27.000000
2.230000	59.970000	45.650000	0.000000	0.000000	107.000000	61.000000	-41.000000	-33.000000
2.240000	59.560000	45.340000	0.000000	0.000000	105.000000	61.000000	-41.000000	-31.000000
