t	x	y	pressure	penup	azimuth	inclination	v_x	v_y
0.000000	55.850000	49.400000	3.000000	1.000000	132.000000	61.000000	0.000000	0.000000
0.010000	55.850000	49.400000	58.000000	1.000000	132.000000	61.000000	0.000000	0.000000
0.020000	55.850000	49.400000	53.000000	0.000000	132.000000	61.000000	0.000000	0.000000
0.030000	55.980000	49.680000	106.000000	0.000000	132.000000	61.000000	13.000000	28.000000
0.040000	56.070000	49.790000	153.000000	0.000000	134.000000	61.000000	9.000000	11.000000
0.050000	56.130000	49.900000	176.000000	0.000000	135.000000	62.000000	6.000000	11.000000
0.060000	56.190000	49.970000	205.000000	0.000000	135.000000	62.000000	6.000000	7.000000
0.070000	56.260000	50.040000	251.000000	0.000000	136.000000	61.000000	7.000000	7.000000
0.080000	56.320000	50.100000	280.000000	0.000000	136.000000	61.000000	6.000000	6.000000
0.090000	56.320000	50.160000	307.000000	0.000000	136.000000	61.000000	0.000000	6.000000
0.100000	56.380000	50.160000	348.000000	0.000000	136.000000	61.000000	6.000000	0.000000
0.110000	56.380000	50.160000	379.000000	0.000000	136.000000	61.000000	0.000000	0.000000
0.120000	56.380000	50.160000	392.000000	0.000000	136.000000	61.000000	0.000000	0.000000
0.130000	56.330000	50.160000	415.000000	0.000000	136.000000	61.000000	-5.000000	0.000000
0.140000	56.260000	50.010000	431.000000	0.000000	138.000000	60.000000	-7.000000	-15.000000
0.150000	56.150000	49.570000	440.000000	0.000000	136.000000	61.000000	-11.000000	-44.000000
0.160000	55.820000	48.940000	468.000000	0.000000	136.000000	61.000000	-33.000000	-63.000000
0.170000	55.380000	47.680000	473.000000	0.000000	136.000000	61.000000	-44.000000	-126.000000
0.180000	54.870000	46.440000	489.000000	0.000000	135.000000	62.000000	-51.000000	-124.000000
0.190000	54.340000	45.220000	514.000000	0.000000	133.000000	62.000000	-53.000000	-122.000000
0.200000	53.830000	44.150000	521.000000	0.000000	130.000000	62.000000	-51.000000	-107.000000
0.210000	53.500000	43.390000	540.000000	0.000000	129.000000	63.000000	-33.000000	-76.000000
0.220000	53.280000	42.850000	545.000000	0.000000	127.000000	63.000000	-22.000000	-54.000000
0.230000	53.280000	42.740000	560.000000	0.000000	124.000000	63.000000	0.000000	-11.000000
0.240000	53.280000	42.810000	580.000000	0.000000	122.000000	63.000000	0.000000	7.000000
0.250000	53.390000	42.990000	613.000000	0.000000	120.000000	64.000000	11.000000	18.000000
0.260000	53.670000	43.590000	625.000000	0.000000	119.000000	63.000000	28.000000	60.000000
0.270000	54.060000	44.580000	653.000000	0.000000	119.000000	63.000000	39.000000	99.000000
0.280000	54.590000	45.820000	647.000000	0.000000	119.000000	63.000000	53.000000	124.000000
0.290000	55.150000	47.190000	645.000000	0.000000	119.000000	63.000000	56.000000	137.000000
0.300000	55.760000	48.600000	638.000000	0.000000	122.000000	63.000000	61.000000	141.000000
0.310000	56.410000	50.030000	644.000000	0.000000	122.000000	63.000000	65.000000	143.000000
0.320000	56.840000	50.790000	644.000000	0.000000	124.000000	63.000000	43.000000	76.000000
0.330000	57.130000	51.190000	643.000000	0.000000	129.000000	63.000000	29.000000	40.000000
0.340000	57.350000	51.340000	643.000000	0.000000	132.000000	63.000000	22.000000	15.000000
0.350000	57.590000	51.190000	652.000000	0.000000	133.000000	62.000000	24.000000	-15.000000
0.360000	57.850000	50.750000	658.000000	0.000000	137.000000	62.000000	26.000000	-44.000000
0.370000	58.230000	50.130000	662.000000	0.000000	138.000000	61.000000	38.000000	-62.000000
0.380000	58.540000	49.360000	670.000000	0.000000	138.000000	61.000000	31.000000	-77.000000
0.390000	58.790000	48.500000	673.000000	0.000000	138.000000	61.000000	25.000000	-86.000000
0.400000	58.980000	47.590000	711.000000	0.000000	138.000000	61.000000	19.000000	-91.000000
0.410000	58.980000	46.840000	746.000000	0.000000	135.000000	62.000000	0.000000	-75.000000
0.420000	58.790000	46.100000	787.000000	0.000000	133.000000	62.000000	-19.000000	-74.000000
0.430000	58.500000	45.390000	796.000000	0.000000	132.000000	63.000000	-29.000000	-71.000000
0.440000	58.030000	44.840000	818.000000	0.000000	129.000000	63.000000	-47.000000	-55.000000
0.450000	57.430000	44.370000	821.000000	0.000000	127.000000	63.000000	-60.000000	-47.000000
0.460000	56.750000	44.240000	834.000000	0.000000	125.000000	64.000000	-68.000000	-13.000000
0.470000	55.800000	44.240000	848.000000	0.000000	125.000000	64.000000	-95.000000	0.000000
0.480000	54.680000	44.440000	861.000000	0.000000	124.000000	64.000000	-112.000000	20.000000
0.490000	53.390000	44.840000	882.000000	0.000000	124.000000	64.000000	-129.000000	40.000000
0.500000	52.330000	45.220000	909.000000	0.000000	120.000000	64.000000	-106.000000	38.000000
0.510000	51.430000	45.550000	917.000000	0.000000	120.000000	64.000000	-90.000000	33.000000
0.520000	51.070000	45.720000	915.000000	0.000000	120.000000	64.000000	-36.000000	17.000000
0.530000	50.970000	45.790000	909.000000	0.000000	117.000000	63.000000	-10.000000	7.000000
0.540000	51.030000	45.790000	890.000000	0.000000	117.000000	63.000000	6.000000	0.000000
0.550000	51.400000	45.660000	864.000000	0.000000	116.000000	63.000000	37.000000	-13.000000
0.560000	52.400000	45.490000	864.000000	0.000000	116.000000	63.000000	100.000000	-17.000000
0.570000	53.820000	45.490000	861.000000	0.000000	116.000000	63.000000	142.000000	0.000000
0.580000	56.280000	45.630000	915.000000	0.000000	116.000000	63.000000	246.000000	14.000000
0.590000	59.990000	46.250000	949.000000	0.000000	116.000000	63.000000	371.000000	62.000000
0.600000	64.520000	47.270000	959.000000	0.000000	117.000000	63.000000	453.000000	102.000000
0.610000	69.600000	48.550000	937.000000	0.000000	120.000000	64.000000	508.000000	128.000000
0.620000	74.200000	49.590000	863.000000	0.000000	124.000000	64.000000	460.000000	104.000000
0.630000	78.490000	50.050000	662.000000	0.000000	130.000000	65.000000	429.000000	46.000000
0.640000	78.490000	50.050000	0.000000	1.000000	133.000000	65.000000	0.000000	0.000000
0.650000	84.250000	49.670000	0.000000	0.000000	138.000000	65.000000	576.000000	-38.000000
0.660000	86.290000	49.160000	0.000000	0.000000	142.000000	65.000000	204.000000	-51.000000
0.670000	87.330000	48.770000	0.000000	0.000000	146.000000	66.000000	104.000000	-39.000000
0.680000	88.010000	48.470000	0.000000	0.000000	148.000000	67.000000	68.000000	-30.000000
0.690000	88.440000	48.270000	0.000000	0.000000	150.000000	67.000000	43.000000	-20.000000
0.700000	88.630000	48.270000	0.000000	0.000000	151.000000	68.000000	19.000000	0.000000
0.710000	88.530000	48.420000	0.000000	0.000000	152.000000	70.000000	-10.000000	15.000000
0.720000	88.240000	48.610000	0.000000	0.000000	153.000000	71.000000	-29.000000	19.000000
0.730000	87.720000	49.010000	0.000000	0.000000	152.000000	73.000000	-52.000000	40.000000
0.740000	86.910000	49.560000	0.000000	0.000000	154.000000	74.000000	-81.000000	55.000000
0.750000	85.900000	50.130000	0.000000	0.000000	152.000000	75.000000	-101.000000	57.000000
0.760000	84.650000	50.670000	0.000000	0.000000	149.000000	75.000000	-125.000000	54.000000
0.770000	83.020000	51.150000	0.000000	0.000000	146.000000	74.000000	-163.000000	48.000000
0.780000	81.140000	51.590000	0.000000	0.000000	143.000000	74.000000	-188.000000	44.000000
0.790000	78.780000	52.020000	0.000000	0.000000	137.000000	71.000000	-236.000000	43.000000
0.800000	76.710000	52.230000	0.000000	0.000000	133.000000	69.000000	-207.000000	21.000000
0.810000	74.820000	52.470000	0.000000	0.000000	132.000000	65.000000	-189.000000	24.000000
0.820000	72.900000	52.730000	0.000000	0.000000	128.000000	61.000000	-192.000000	26.000000
0.830000	70.750000	52.880000	0.000000	0.000000	128.000000	58.000000	-215.000000	15.000000
0.840000	68.440000	52.970000	0.000000	0.000000	127.000000	55.000000	-231.000000	9.000000
0.850000	66.530000	52.970000	0.000000	0.000000	129.000000	53.000000	-191.000000	0.000000
0.860000	65.070000	52.840000	0.000000	0.000000	130.000000	53.000000	-146.000000	-13.000000
0.870000	63.910000	52.530000	0.000000	0.000000	131.000000	54.000000	-116.000000	-31.000000
0.880000	62.970000	52.090000	0.000000	0.000000	133.000000	53.000000	-94.000000	-44.000000
0.890000	62.370000	51.690000	0.000000	0.000000	133.000000	53.000000	-60.000000	-40.000000
0.900000	62.000000	51.460000	0.000000	0.000000	134.000000	54.000000	-37.000000	-23.000000
0.910000	61.440000	51.350000	0.000000	0.000000	136.000000	55.000000	-56.000000	-11.000000
0.920000	61.210000	51.100000	0.000000	0.000000	136.000000	56.000000	-23.000000	-25.000000
0.930000	61.210000	51.020000	0.000000	0.000000	138.000000	57.000000	0.000000	-8.000000
0.940000	61.210000	51.020000	0.000000	0.000000	138.000000	57.000000	0.000000	0.000000
0.950000	61.150000	51.120000	0.000000	0.000000	136.000000	56.000000	-6.000000	10.000000
0.960000	61.060000	51.210000	0.000000	0.000000	135.000000	55.000000	-9.000000	9.000000
0.970000	60.910000	51.320000	0.000000	0.000000	135.000000	55.000000	-15.000000	11.000000
0.980000	60.610000	51.370000	0.000000	0.000000	135.000000	54.000000	-30.000000	5.000000
0.990000	60.340000	51.370000	0.000000	0.000000	135.000000	53.000000	-27.000000	0.000000
1.000000	60.090000	51.140000	0.000000	0.000000	134.000000	52.000000	-25.000000	-23.000000
1.010000	60.090000	50.740000	0.000000	0.000000	135.000000	52.000000	0.000000	-40.000000
1.020000	60.390000	50.220000	0.000000	0.000000	135.000000	52.000000	30.000000	-52.000000
1.030000	60.860000	49.660000	0.000000	0.000000	135.000000	52.000000	47.000000	-56.000000
1.040000	61.300000	49.040000	0.000000	0.000000	135.000000	52.000000	44.000000	-62.000000
1.050000	61.640000	48.550000	0.000000	0.000000	135.000000	53.000000	34.000000	-49.000000
1.060000	61.910000	48.140000	0.000000	0.000000	133.000000	54.000000	27.000000	-41.000000
1.070000	62.120000	48.040000	0.000000	0.000000	131.000000	56.000000	21.000000	-10.000000
1.080000	62.290000	48.240000	0.000000	0.000000	130.000000	58.000000	17.000000	20.000000
1.090000	62.430000	48.630000	0.000000	0.000000	127.000000	59.000000	14.000000	39.000000
1.100000	62.600000	48.940000	0.000000	0.000000	125.000000	60.000000	17.000000	31.000000
1.110000	62.810000	49.190000	0.000000	0.000000	123.000000	61.000000	21.000000	25.000000
1.120000	63.100000	49.580000	0.000000	0.000000	123.000000	61.000000	29.000000	39.000000
1.130000	63.100000	49.580000	148.000000	1.000000	123.000000	61.000000	0.000000	0.000000
1.140000	63.530000	50.390000	187.000000	0.000000	126.000000	61.000000	43.000000	81.000000
1.150000	63.530000	50.580000	205.000000	0.000000	126.000000	61.000000	0.000000	19.000000
1.160000	63.530000	50.690000	274.000000	0.000000	128.000000	61.000000	0.000000	11.000000
1.170000	63.530000	50.690000	341.000000	0.000000	131.000000	61.000000	0.000000	0.000000
1.180000	63.530000	50.690000	372.000000	0.000000	131.000000	61.000000	0.000000	0.000000
1.190000	63.210000	50.830000	422.000000	0.000000	131.000000	61.000000	-32.000000	14.000000
1.200000	62.910000	50.830000	473.000000	0.000000	132.000000	60.000000	-30.000000	0.000000
1.210000	62.560000	50.550000	540.000000	0.000000	132.000000	60.000000	-35.000000	-28.000000
1.220000	62.190000	50.160000	554.000000	0.000000	132.000000	60.000000	-37.000000	-39.000000
1.230000	61.810000	49.600000	570.000000	0.000000	132.000000	60.000000	-38.000000	-56.000000
1.240000	61.500000	48.960000	592.000000	0.000000	131.000000	61.000000	-31.000000	-64.000000
1.250000	61.430000	48.270000	591.000000	0.000000	131.000000	61.000000	-7.000000	-69.000000
1.260000	61.530000	47.800000	588.000000	0.000000	129.000000	60.000000	10.000000	-47.000000
1.270000	61.760000	47.570000	603.000000	0.000000	128.000000	61.000000	23.000000	-23.000000
1.280000	62.140000	47.500000	647.000000	0.000000	126.000000	61.000000	38.000000	-7.000000
1.290000	62.630000	47.660000	690.000000	0.000000	125.000000	60.000000	49.000000	16.000000
1.300000	63.080000	48.160000	736.000000	0.000000	123.000000	61.000000	45.000000	50.000000
1.310000	63.430000	48.900000	757.000000	0.000000	123.000000	61.000000	35.000000	74.000000
1.320000	63.710000	49.680000	776.000000	0.000000	124.000000	62.000000	28.000000	78.000000
1.330000	63.940000	50.560000	783.000000	0.000000	124.000000	62.000000	23.000000	88.000000
1.340000	64.080000	51.510000	799.000000	0.000000	126.000000	61.000000	14.000000	95.000000
1.350000	64.160000	52.090000	827.000000	0.000000	127.000000	62.000000	8.000000	58.000000
1.360000	64.160000	52.260000	842.000000	0.000000	129.000000	61.000000	0.000000	17.000000
1.370000	64.100000	52.170000	830.000000	0.000000	131.000000	61.000000	-6.000000	-9.000000
1.380000	64.100000	52.030000	828.000000	0.000000	132.000000	60.000000	0.000000	-14.000000
1.390000	64.100000	51.570000	828.000000	0.000000	132.000000	60.000000	0.000000	-46.000000
1.400000	64.040000	50.890000	817.000000	0.000000	134.000000	60.000000	-6.000000	-68.000000
1.410000	63.960000	50.000000	818.000000	0.000000	134.000000	60.000000	-8.000000	-89.000000
1.420000	63.960000	49.060000	817.000000	0.000000	132.000000	60.000000	0.000000	-94.000000
1.430000	63.760000	48.030000	832.000000	0.000000	132.000000	60.000000	-20.000000	-103.000000
1.440000	63.520000	47.030000	809.000000	0.000000	131.000000	61.000000	-24.000000	-100.000000
1.450000	63.290000	46.280000	806.000000	0.000000	129.000000	61.000000	-23.000000	-75.000000
1.460000	63.070000	45.660000	791.000000	0.000000	127.000000	62.000000	-22.000000	-62.000000
1.470000	62.900000	45.310000	788.000000	0.000000	124.000000	63.000000	-17.000000	-35.000000
1.480000	62.820000	45.180000	796.000000	0.000000	121.000000	63.000000	-8.000000	-13.000000
1.490000	62.820000	45.180000	796.000000	0.000000	119.000000	63.000000	0.000000	0.000000
1.500000	62.900000	45.370000	787.000000	0.000000	117.000000	63.000000	8.000000	19.000000
1.510000	63.090000	45.770000	796.000000	0.000000	115.000000	63.000000	19.000000	40.000000
1.520000	63.360000	46.330000	805.000000	0.000000	115.000000	63.000000	27.000000	56.000000
1.530000	63.630000	46.850000	824.000000	0.000000	113.000000	63.000000	27.000000	52.000000
1.540000	63.890000	47.360000	830.000000	0.000000	115.000000	63.000000	26.000000	51.000000
1.550000	64.170000	47.920000	830.000000	0.000000	115.000000	63.000000	28.000000	56.000000
1.560000	64.460000	48.530000	839.000000	0.000000	117.000000	63.000000	29.000000	61.000000
1.570000	64.730000	49.020000	860.000000	0.000000	117.000000	63.000000	27.000000	49.000000
1.580000	64.880000	49.300000	866.000000	0.000000	119.000000	63.000000	15.000000	28.000000
1.590000	64.940000	49.430000	854.000000	0.000000	121.000000	63.000000	6.000000	13.000000
1.600000	64.940000	49.430000	863.000000	0.000000	123.000000	62.000000	0.000000	0.000000
1.610000	64.940000	49.430000	872.000000	0.000000	126.000000	62.000000	0.000000	0.000000
1.620000	64.940000	49.430000	873.000000	0.000000	126.000000	62.000000	0.000000	0.000000
1.630000	64.940000	49.340000	870.000000	0.000000	127.000000	62.000000	0.000000	-9.000000
1.640000	64.940000	49.250000	872.000000	0.000000	127.000000	62.000000	0.000000	-9.000000
1.650000	64.940000	49.110000	870.000000	0.000000	127.000000	62.000000	0.000000	-14.000000
1.660000	65.030000	48.950000	869.000000	0.000000	129.000000	61.000000	9.000000	-16.000000
1.670000	65.080000	48.740000	866.000000	0.000000	127.000000	62.000000	5.000000	-21.000000
1.680000	65.130000	48.530000	857.000000	0.000000	127.000000	62.000000	5.000000	-21.000000
1.690000	65.190000	48.390000	854.000000	0.000000	127.000000	62.000000	6.000000	-14.000000
1.700000	65.190000	48.300000	861.000000	0.000000	127.000000	62.000000	0.000000	-9.000000
1.710000	65.240000	48.220000	845.000000	0.000000	126.000000	62.000000	5.000000	-8.000000
1.720000	65.240000	48.220000	842.000000	0.000000	126.000000	62.000000	0.000000	0.000000
1.730000	65.290000	48.220000	846.000000	0.000000	126.000000	62.000000	5.000000	0.000000
1.740000	65.370000	48.400000	860.000000	0.000000	126.000000	62.000000	8.000000	18.000000
1.750000	65.480000	48.580000	864.000000	0.000000	126.000000	62.000000	11.000000	18.000000
1.760000	65.610000	48.800000	864.000000	0.000000	126.000000	62.000000	13.000000	22.000000
1.770000	65.760000	49.030000	869.000000	0.000000	126.000000	62.000000	15.000000	23.000000
1.780000	65.760000	49.180000	853.000000	0.000000	126.000000	62.000000	0.000000	15.000000
1.790000	65.760000	49.180000	869.000000	0.000000	126.000000	62.000000	0.000000	0.000000
1.800000	65.760000	49.180000	863.000000	0.000000	126.000000	62.000000	0.000000	0.000000
1.810000	65.760000	49.120000	860.000000	0.000000	126.000000	62.000000	0.000000	-6.000000
1.820000	65.820000	49.000000	860.000000	0.000000	127.000000	62.000000	6.000000	-12.000000
1.830000	65.820000	48.850000	852.000000	0.000000	127.000000	62.000000	0.000000	-15.000000
1.840000	65.930000	48.680000	851.000000	0.000000	127.000000	62.000000	11.000000	-17.000000
1.850000	66.030000	48.540000	851.000000	0.000000	127.000000	62.000000	10.000000	-14.000000
1.860000	66.150000	48.390000	843.000000	0.000000	127.000000	62.000000	12.000000	-15.000000
1.870000	66.240000	48.340000	845.000000	0.000000	126.000000	62.000000	9.000000	-5.000000
1.880000	66.340000	48.340000	854.000000	0.000000	126.000000	62.000000	10.000000	0.000000
1.890000	66.450000	48.470000	869.000000	0.000000	126.000000	62.000000	11.000000	13.000000
1.900000	66.550000	48.700000	864.000000	0.000000	126.000000	62.000000	10.000000	23.000000
1.910000	66.680000	49.010000	872.000000	0.000000	126.000000	62.000000	13.000000	31.000000
1.920000	66.830000	49.440000	882.000000	0.000000	126.000000	62.000000	15.000000	43.000000
1.930000	66.940000	49.860000	878.000000	0.000000	127.000000	63.000000	11.000000	42.000000
1.940000	67.020000	50.340000	887.000000	0.000000	129.000000	63.000000	8.000000	48.000000
1.950000	67.090000	50.860000	900.000000	0.000000	129.000000	63.000000	7.000000	52.000000
1.960000	67.150000	51.170000	893.000000	0.000000	130.000000	62.000000	6.000000	31.000000
1.970000	67.200000	51.480000	905.000000	0.000000	130.000000	62.000000	5.000000	31.000000
1.980000	67.250000	51.750000	905.000000	0.000000	132.000000	61.000000	5.000000	27.000000
1.990000	67.250000	52.000000	909.000000	0.000000	133.000000	62.000000	0.000000	25.000000
2.000000	67.250000	52.180000	912.000000	0.000000	133.000000	62.000000	0.000000	18.000000
2.010000	67.250000	52.310000	923.000000	0.000000	135.000000	62.000000	0.000000	13.000000
2.020000	67.250000	52.390000	923.000000	0.000000	135.000000	62.000000	0.000000	8.000000
2.030000	67.250000	52.450000	930.000000	0.000000	135.000000	62.000000	0.000000	6.000000
2.040000	67.250000	52.450000	924.000000	0.000000	136.000000	61.000000	0.000000	0.000000
2.050000	67.250000	52.450000	918.000000	0.000000	136.000000	61.000000	0.000000	0.000000
2.060000	67.250000	52.450000	915.000000	0.000000	136.000000	61.000000	0.000000	0.000000
2.070000	67.250000	52.330000	911.000000	0.000000	136.000000	61.000000	0.000000	-12.000000
2.080000	67.250000	52.140000	909.000000	0.000000	136.000000	61.000000	0.000000	-19.000000
2.090000	67.200000	51.780000	909.000000	0.000000	136.000000	61.000000	-5.000000	-36.000000
2.100000	67.200000	51.320000	905.000000	0.000000	136.000000	61.000000	0.000000	-46.000000
2.110000	67.120000	50.820000	902.000000	0.000000	136.000000	61.000000	-8.000000	-50.000000
2.120000	67.030000	50.320000	900.000000	0.000000	135.000000	62.000000	-9.000000	-50.000000
2.130000	67.030000	49.800000	897.000000	0.000000	135.000000	62.000000	0.000000	-52.000000
2.140000	67.030000	49.300000	897.000000	0.000000	135.000000	62.000000	0.000000	-50.000000
2.150000	67.030000	48.930000	908.000000	0.000000	133.000000	62.000000	0.000000	-37.000000
2.160000	67.190000	48.640000	900.000000	0.000000	133.000000	62.000000	16.000000	-29.000000
2.170000	67.300000	48.380000	897.000000	0.000000	130.000000	62.000000	11.000000	-26.000000
2.180000	67.400000	48.210000	882.000000	0.000000	130.000000	62.000000	10.000000	-17.000000
2.190000	67.500000	48.090000	879.000000	0.000000	129.000000	63.000000	10.000000	-12.000000
2.200000	67.620000	48.090000	882.000000	0.000000	129.000000	63.000000	12.000000	0.000000
2.210000	67.760000	48.090000	890.000000	0.000000	127.000000	63.000000	14.000000	0.000000
