t	x	y	pressure	penup	azimuth	inclination	v_x	v_y
0.000000	53.590000	81.830000	25.000000	1.000000	123.000000	62.000000	0.000000	0.000000
0.010000	53.830000	82.190000	51.000000	0.000000	124.000000	62.000000	24.000000	36.000000
0.020000	53.900000	82.400000	103.000000	0.000000	124.000000	62.000000	7.000000	21.000000
0.030000	53.900000	82.610000	139.000000	0.000000	124.000000	62.000000	0.000000	21.000000
0.040000	54.020000	82.820000	215.000000	0.000000	124.000000	62.000000	12.000000	21.000000
0.050000	54.110000	82.990000	273.000000	0.000000	124.000000	62.000000	9.000000	17.000000
0.060000	54.220000	83.150000	339.000000	0.000000	126.000000	61.000000	11.000000	16.000000
0.070000	54.270000	83.310000	417.000000	0.000000	126.000000	61.000000	5.000000	16.000000
0.080000	54.270000	83.310000	491.000000	0.000000	127.000000	62.000000	0.000000	0.000000
0.090000	54.270000	83.360000	537.000000	0.000000	129.000000	61.000000	0.000000	5.000000
0.100000	54.210000	83.270000	591.000000	0.000000	129.000000	61.000000	-6.000000	-9.000000
0.110000	54.100000	82.760000	639.000000	0.000000	129.000000	61.000000	-11.000000	-51.000000
0.120000	53.780000	81.990000	658.000000	0.000000	131.000000	61.000000	-32.000000	-77.000000
0.130000	53.330000	80.760000	670.000000	0.000000	131.000000	61.000000	-45.000000	-123.000000
0.140000	52.800000	79.370000	653.000000	0.000000	129.000000	61.000000	-53.000000	-139.000000
0.150000	52.360000	77.870000	659.000000	0.000000	128.000000	61.000000	-44.000000	-150.000000
0.160000	51.930000	76.880000	658.000000	0.000000	128.000000	61.000000	-43.000000	-99.000000
0.170000	51.690000	76.300000	658.000000	0.000000	126.000000	61.000000	-24.000000	-58.000000
0.180000	51.580000	75.990000	673.000000	0.000000	126.000000	61.000000	-11.000000	-31.000000
0.190000	51.580000	75.990000	691.000000	0.000000	124.000000	62.000000	0.000000	0.000000
0.200000	51.630000	76.330000	703.000000	0.000000	123.000000	62.000000	5.000000	34.000000
0.210000	51.780000	76.950000	730.000000	0.000000	123.000000	62.000000	15.000000	62.000000
0.220000	52.130000	78.310000	739.000000	0.000000	122.000000	61.000000	35.000000	136.000000
0.230000	52.620000	79.880000	762.000000	0.000000	122.000000	61.000000	49.000000	157.000000
0.240000	53.200000	81.600000	784.000000	0.000000	123.000000	62.000000	58.000000	172.000000
0.250000	53.770000	82.870000	783.000000	0.000000	123.000000	62.000000	57.000000	127.000000
0.260000	54.270000	83.620000	788.000000	0.000000	124.000000	62.000000	50.000000	75.000000
0.270000	54.720000	84.030000	791.000000	0.000000	126.000000	61.000000	45.000000	41.000000
0.280000	55.190000	83.930000	818.000000	0.000000	127.000000	62.000000	47.000000	-10.000000
0.290000	55.750000	83.300000	819.000000	0.000000	129.000000	61.000000	56.000000	-63.000000
0.300000	56.380000	82.320000	843.000000	0.000000	129.000000	61.000000	63.000000	-98.000000
0.310000	56.800000	81.100000	866.000000	0.000000	129.000000	61.000000	42.000000	-122.000000
0.320000	57.190000	79.920000	857.000000	0.000000	132.000000	61.000000	39.000000	-118.000000
0.330000	57.560000	78.780000	863.000000	0.000000	130.000000	62.000000	37.000000	-114.000000
0.340000	57.880000	77.870000	866.000000	0.000000	130.000000	62.000000	32.000000	-91.000000
0.350000	57.880000	77.060000	869.000000	0.000000	130.000000	62.000000	0.000000	-81.000000
0.360000	57.740000	76.320000	873.000000	0.000000	129.000000	63.000000	-14.000000	-74.000000
0.370000	56.980000	75.700000	896.000000	0.000000	129.000000	63.000000	-76.000000	-62.000000
0.380000	55.640000	75.180000	899.000000	0.000000	127.000000	63.000000	-134.000000	-52.000000
0.390000	53.920000	74.730000	941.000000	0.000000	127.000000	63.000000	-172.000000	-45.000000
0.400000	51.800000	74.730000	947.000000	0.000000	126.000000	62.000000	-212.000000	0.000000
0.410000	49.950000	75.040000	994.000000	0.000000	126.000000	62.000000	-185.000000	31.000000
0.420000	48.280000	75.510000	997.000000	0.000000	124.000000	63.000000	-167.000000	47.000000
0.430000	47.110000	76.010000	1023.000000	0.000000	123.000000	62.000000	-117.000000	50.000000
0.440000	46.520000	76.490000	1023.000000	0.000000	123.000000	62.000000	-59.000000	48.000000
0.450000	46.320000	76.950000	1023.000000	0.000000	122.000000	61.000000	-20.000000	46.000000
0.460000	46.660000	77.520000	1023.000000	0.000000	122.000000	61.000000	34.000000	57.000000
0.470000	47.710000	78.160000	1023.000000	0.000000	122.000000	61.000000	105.000000	64.000000
0.480000	49.240000	78.650000	1023.000000	0.000000	122.000000	61.000000	153.000000	49.000000
0.490000	51.680000	78.770000	1023.000000	0.000000	122.000000	61.000000	244.000000	12.000000
0.500000	54.870000	78.650000	1023.000000	0.000000	122.000000	61.000000	319.000000	-12.000000
0.510000	58.560000	78.780000	1023.000000	0.000000	123.000000	62.000000	369.000000	13.000000
0.520000	61.940000	79.130000	1023.000000	0.000000	124.000000	63.000000	338.000000	35.000000
0.530000	65.130000	79.620000	1023.000000	0.000000	127.000000	63.000000	319.000000	49.000000
0.540000	68.190000	79.780000	942.000000	0.000000	129.000000	64.000000	306.000000	16.000000
0.550000	70.610000	79.780000	630.000000	0.000000	130.000000	65.000000	242.000000	0.000000
0.560000	70.610000	79.780000	0.000000	1.000000	128.000000	65.000000	0.000000	0.000000
0.570000	74.420000	79.900000	0.000000	0.000000	130.000000	66.000000	381.000000	12.000000
0.580000	75.550000	80.260000	0.000000	0.000000	131.000000	67.000000	113.000000	36.000000
0.590000	76.200000	80.780000	0.000000	0.000000	130.000000	67.000000	65.000000	52.000000
0.600000	76.530000	81.630000	0.000000	0.000000	130.000000	67.000000	33.000000	85.000000
0.610000	76.530000	82.470000	0.000000	0.000000	131.000000	68.000000	0.000000	84.000000
0.620000	76.240000	83.310000	0.000000	0.000000	131.000000	68.000000	-29.000000	84.000000
0.630000	75.650000	83.910000	0.000000	0.000000	131.000000	68.000000	-59.000000	60.000000
0.640000	74.830000	84.330000	0.000000	0.000000	131.000000	68.000000	-82.000000	42.000000
0.650000	73.820000	84.620000	0.000000	0.000000	131.000000	68.000000	-101.000000	29.000000
0.660000	72.670000	84.740000	0.000000	0.000000	131.000000	68.000000	-115.000000	12.000000
0.670000	71.170000	84.820000	0.000000	0.000000	131.000000	68.000000	-150.000000	8.000000
0.680000	68.600000	84.880000	0.000000	0.000000	131.000000	68.000000	-257.000000	6.000000
0.690000	65.310000	85.810000	0.000000	0.000000	131.000000	68.000000	-329.000000	93.000000
0.700000	62.990000	87.520000	0.000000	0.000000	129.000000	68.000000	-232.000000	171.000000
0.710000	60.670000	89.750000	0.000000	0.000000	131.000000	69.000000	-232.000000	223.000000
0.720000	59.580000	89.500000	0.000000	0.000000	131.000000	68.000000	-109.000000	-25.000000
0.730000	59.290000	88.910000	0.000000	0.000000	130.000000	66.000000	-29.000000	-59.000000
0.740000	58.620000	88.100000	0.000000	0.000000	132.000000	64.000000	-67.000000	-81.000000
0.750000	58.000000	87.480000	0.000000	0.000000	132.000000	61.000000	-62.000000	-62.000000
0.760000	57.490000	86.810000	0.000000	0.000000	132.000000	60.000000	-51.000000	-67.000000
0.770000	57.220000	85.960000	0.000000	0.000000	132.000000	60.000000	-27.000000	-85.000000
0.780000	57.100000	85.000000	0.000000	0.000000	132.000000	60.000000	-12.000000	-96.000000
0.790000	57.310000	84.280000	0.000000	0.000000	123.000000	55.000000	21.000000	-72.000000
0.800000	57.400000	84.010000	0.000000	0.000000	122.000000	48.000000	9.000000	-27.000000
0.810000	57.400000	84.010000	0.000000	0.000000	120.000000	43.000000	0.000000	0.000000
0.820000	57.640000	83.620000	0.000000	0.000000	118.000000	38.000000	24.000000	-39.000000
0.830000	57.910000	83.140000	0.000000	0.000000	123.000000	40.000000	27.000000	-48.000000
0.840000	58.200000	82.590000	0.000000	0.000000	124.000000	43.000000	29.000000	-55.000000
0.850000	58.600000	82.090000	0.000000	0.000000	122.000000	45.000000	40.000000	-50.000000
0.860000	58.980000	81.840000	0.000000	0.000000	122.000000	47.000000	38.000000	-25.000000
0.870000	59.330000	81.740000	0.000000	0.000000	121.000000	51.000000	35.000000	-10.000000
0.880000	59.520000	81.670000	0.000000	0.000000	121.000000	53.000000	19.000000	-7.000000
0.890000	59.600000	81.580000	0.000000	0.000000	120.000000	54.000000	8.000000	-9.000000
0.900000	59.730000	81.480000	0.000000	0.000000	120.000000	54.000000	13.000000	-10.000000
0.910000	59.930000	81.360000	0.000000	0.000000	120.000000	54.000000	20.000000	-12.000000
0.920000	60.170000	81.210000	0.000000	0.000000	120.000000	54.000000	24.000000	-15.000000
0.930000	60.390000	81.020000	0.000000	0.000000	120.000000	55.000000	22.000000	-19.000000
0.940000	60.510000	80.820000	0.000000	0.000000	121.000000	56.000000	12.000000	-20.000000
0.950000	60.510000	80.610000	0.000000	0.000000	121.000000	56.000000	0.000000	-21.000000
0.960000	60.560000	80.540000	0.000000	0.000000	120.000000	57.000000	5.000000	-7.000000
0.970000	60.560000	80.540000	0.000000	0.000000	121.000000	58.000000	0.000000	0.000000
0.980000	60.560000	80.540000	0.000000	0.000000	121.000000	58.000000	0.000000	0.000000
0.990000	60.560000	80.540000	0.000000	0.000000	121.000000	59.000000	0.000000	0.000000
1.000000	60.560000	80.540000	0.000000	0.000000	121.000000	59.000000	0.000000	0.000000
1.010000	60.840000	80.700000	0.000000	0.000000	121.000000	59.000000	28.000000	16.000000
1.020000	60.960000	80.700000	0.000000	0.000000	122.000000	60.000000	12.000000	0.000000
1.030000	61.090000	80.820000	0.000000	0.000000	122.000000	60.000000	13.000000	12.000000
1.040000	61.210000	80.940000	0.000000	0.000000	122.000000	60.000000	12.000000	12.000000
1.050000	61.330000	81.020000	0.000000	0.000000	122.000000	60.000000	12.000000	8.000000
1.060000	61.440000	81.300000	0.000000	0.000000	122.000000	60.000000	11.000000	28.000000
1.070000	61.670000	81.710000	0.000000	0.000000	122.000000	60.000000	23.000000	41.000000
1.080000	61.950000	82.000000	0.000000	0.000000	125.000000	60.000000	28.000000	29.000000
1.090000	61.950000	82.000000	250.000000	1.000000	125.000000	60.000000	0.000000	0.000000
1.100000	62.260000	82.430000	319.000000	0.000000	126.000000	60.000000	31.000000	43.000000
1.110000	62.260000	82.770000	467.000000	0.000000	128.000000	61.000000	0.000000	34.000000
1.120000	62.150000	82.910000	567.000000	0.000000	129.000000	60.000000	-11.000000	14.000000
1.130000	62.070000	82.990000	606.000000	0.000000	132.000000	60.000000	-8.000000	8.000000
1.140000	61.900000	82.990000	636.000000	0.000000	132.000000	60.000000	-17.000000	0.000000
1.150000	61.650000	82.700000	637.000000	0.000000	132.000000	60.000000	-25.000000	-29.000000
1.160000	61.340000	82.310000	647.000000	0.000000	134.000000	60.000000	-31.000000	-39.000000
1.170000	60.990000	81.650000	671.000000	0.000000	134.000000	60.000000	-35.000000	-66.000000
1.180000	60.660000	80.980000	668.000000	0.000000	134.000000	60.000000	-33.000000	-67.000000
1.190000	60.330000	80.300000	668.000000	0.000000	132.000000	60.000000	-33.000000	-68.000000
1.200000	60.200000	79.910000	667.000000	0.000000	132.000000	60.000000	-13.000000	-39.000000
1.210000	60.200000	79.690000	670.000000	0.000000	132.000000	60.000000	0.000000	-22.000000
1.220000	60.380000	79.640000	675.000000	0.000000	131.000000	61.000000	18.000000	-5.000000
1.230000	60.620000	79.830000	702.000000	0.000000	131.000000	61.000000	24.000000	19.000000
1.240000	60.990000	80.170000	727.000000	0.000000	131.000000	61.000000	37.000000	34.000000
1.250000	61.440000	80.830000	754.000000	0.000000	131.000000	61.000000	45.000000	66.000000
1.260000	61.770000	81.700000	780.000000	0.000000	131.000000	61.000000	33.000000	87.000000
1.270000	62.100000	82.720000	791.000000	0.000000	131.000000	61.000000	33.000000	102.000000
1.280000	62.370000	83.450000	814.000000	0.000000	131.000000	61.000000	27.000000	73.000000
1.290000	62.590000	83.880000	824.000000	0.000000	131.000000	61.000000	22.000000	43.000000
1.300000	62.590000	84.110000	832.000000	0.000000	131.000000	61.000000	0.000000	23.000000
1.310000	62.640000	84.110000	829.000000	0.000000	132.000000	60.000000	5.000000	0.000000
1.320000	62.640000	83.830000	832.000000	0.000000	131.000000	60.000000	0.000000	-28.000000
1.330000	62.570000	83.390000	832.000000	0.000000	131.000000	60.000000	-7.000000	-44.000000
1.340000	62.450000	82.540000	819.000000	0.000000	132.000000	59.000000	-12.000000	-85.000000
1.350000	62.450000	81.500000	819.000000	0.000000	132.000000	59.000000	0.000000	-104.000000
1.360000	62.280000	80.340000	824.000000	0.000000	131.000000	60.000000	-17.000000	-116.000000
1.370000	62.010000	79.100000	828.000000	0.000000	131.000000	60.000000	-27.000000	-124.000000
1.380000	61.780000	77.950000	824.000000	0.000000	131.000000	60.000000	-23.000000	-115.000000
1.390000	61.590000	77.180000	818.000000	0.000000	129.000000	60.000000	-19.000000	-77.000000
1.400000	61.460000	76.620000	827.000000	0.000000	128.000000	61.000000	-13.000000	-56.000000
1.410000	61.460000	76.420000	811.000000	0.000000	128.000000	61.000000	0.000000	-20.000000
1.420000	61.560000	76.420000	818.000000	0.000000	126.000000	61.000000	10.000000	0.000000
1.430000	61.690000	76.530000	836.000000	0.000000	124.000000	62.000000	13.000000	11.000000
1.440000	61.990000	76.910000	854.000000	0.000000	124.000000	62.000000	30.000000	38.000000
1.450000	62.410000	77.470000	887.000000	0.000000	123.000000	62.000000	42.000000	56.000000
1.460000	62.790000	78.140000	912.000000	0.000000	123.000000	62.000000	38.000000	67.000000
1.470000	63.200000	78.790000	930.000000	0.000000	123.000000	62.000000	41.000000	65.000000
1.480000	63.470000	79.410000	942.000000	0.000000	122.000000	61.000000	27.000000	62.000000
1.490000	63.640000	80.020000	933.000000	0.000000	123.000000	62.000000	17.000000	61.000000
1.500000	63.730000	80.300000	944.000000	0.000000	124.000000	62.000000	9.000000	28.000000
1.510000	63.730000	80.410000	947.000000	0.000000	124.000000	62.000000	0.000000	11.000000
1.520000	63.780000	80.410000	946.000000	0.000000	126.000000	61.000000	5.000000	0.000000
1.530000	63.780000	80.410000	943.000000	0.000000	126.000000	61.000000	0.000000	0.000000
1.540000	63.780000	80.340000	937.000000	0.000000	126.000000	61.000000	0.000000	-7.000000
1.550000	63.780000	80.230000	935.000000	0.000000	128.000000	61.000000	0.000000	-11.000000
1.560000	63.780000	80.060000	934.000000	0.000000	128.000000	61.000000	0.000000	-17.000000
1.570000	63.780000	79.800000	951.000000	0.000000	128.000000	61.000000	0.000000	-26.000000
1.580000	63.780000	79.450000	948.000000	0.000000	128.000000	61.000000	0.000000	-35.000000
1.590000	63.860000	79.240000	939.000000	0.000000	128.000000	61.000000	8.000000	-21.000000
1.600000	63.860000	79.130000	930.000000	0.000000	128.000000	61.000000	0.000000	-11.000000
1.610000	63.910000	79.040000	917.000000	0.000000	128.000000	61.000000	5.000000	-9.000000
1.620000	63.960000	79.040000	921.000000	0.000000	128.000000	61.000000	5.000000	0.000000
1.630000	64.020000	79.040000	923.000000	0.000000	128.000000	61.000000	6.000000	0.000000
1.640000	64.120000	79.280000	924.000000	0.000000	128.000000	61.000000	10.000000	24.000000
1.650000	64.240000	79.540000	929.000000	0.000000	128.000000	61.000000	12.000000	26.000000
1.660000	64.390000	79.830000	929.000000	0.000000	128.000000	61.000000	15.000000	29.000000
1.670000	64.500000	80.060000	930.000000	0.000000	128.000000	61.000000	11.000000	23.000000
1.680000	64.580000	80.280000	926.000000	0.000000	128.000000	61.000000	8.000000	22.000000
1.690000	64.580000	80.350000	918.000000	0.000000	128.000000	61.000000	0.000000	7.000000
1.700000	64.580000	80.350000	909.000000	0.000000	128.000000	61.000000	0.000000	0.000000
1.710000	64.580000	80.230000	909.000000	0.000000	128.000000	61.000000	0.000000	-12.000000
1.720000	64.680000	80.090000	909.000000	0.000000	128.000000	61.000000	10.000000	-14.000000
1.730000	64.750000	79.840000	905.000000	0.000000	128.000000	61.000000	7.000000	-25.000000
1.740000	64.840000	79.540000	906.000000	0.000000	128.000000	61.000000	9.000000	-30.000000
1.750000	64.950000	79.430000	908.000000	0.000000	126.000000	61.000000	11.000000	-11.000000
1.760000	65.070000	79.430000	900.000000	0.000000	126.000000	61.000000	12.000000	0.000000
1.770000	65.180000	79.430000	908.000000	0.000000	126.000000	61.000000	11.000000	0.000000
1.780000	65.270000	79.430000	921.000000	0.000000	126.000000	61.000000	9.000000	0.000000
1.790000	65.370000	79.630000	932.000000	0.000000	126.000000	61.000000	10.000000	20.000000
1.800000	65.500000	79.900000	935.000000	0.000000	126.000000	61.000000	13.000000	27.000000
1.810000	65.640000	80.200000	948.000000	0.000000	126.000000	61.000000	14.000000	30.000000
1.820000	65.780000	80.630000	949.000000	0.000000	126.000000	61.000000	14.000000	43.000000
1.830000	65.930000	81.160000	950.000000	0.000000	127.000000	62.000000	15.000000	53.000000
1.840000	66.020000	81.690000	958.000000	0.000000	127.000000	62.000000	9.000000	53.000000
1.850000	66.080000	82.170000	956.000000	0.000000	127.000000	62.000000	6.000000	48.000000
1.860000	66.080000	82.580000	958.000000	0.000000	129.000000	61.000000	0.000000	41.000000
1.870000	66.080000	82.830000	958.000000	0.000000	129.000000	61.000000	0.000000	25.000000
1.880000	66.080000	82.990000	964.000000	0.000000	129.000000	61.000000	0.000000	16.000000
1.890000	66.080000	83.120000	967.000000	0.000000	131.000000	61.000000	0.000000	13.000000
1.900000	66.080000	83.270000	968.000000	0.000000	131.000000	61.000000	0.000000	15.000000
1.910000	66.080000	83.460000	967.000000	0.000000	132.000000	61.000000	0.000000	19.000000
1.920000	66.150000	83.660000	968.000000	0.000000	134.000000	61.000000	7.000000	20.000000
1.930000	66.210000	83.750000	967.000000	0.000000	134.000000	61.000000	6.000000	9.000000
1.940000	66.210000	83.750000	958.000000	0.000000	134.000000	61.000000	0.000000	0.000000
1.950000	66.160000	83.750000	955.000000	0.000000	134.000000	61.000000	-5.000000	0.000000
1.960000	66.160000	83.480000	956.000000	0.000000	135.000000	60.000000	0.000000	-27.000000
1.970000	66.090000	83.070000	956.000000	0.000000	134.000000	61.000000	-7.000000	-41.000000
1.980000	66.010000	82.450000	955.000000	0.000000	134.000000	61.000000	-8.000000	-62.000000
1.990000	66.010000	81.830000	941.000000	0.000000	134.000000	61.000000	0.000000	-62.000000
2.000000	65.940000	81.230000	941.000000	0.000000	134.000000	61.000000	-7.000000	-60.000000
2.010000	65.940000	80.810000	942.000000	0.000000	134.000000	61.000000	0.000000	-42.000000
2.020000	66.050000	80.480000	939.000000	0.000000	132.000000	61.000000	11.000000	-33.000000
2.030000	66.170000	80.250000	927.000000	0.000000	131.000000	61.000000	12.000000	-23.000000
2.040000	66.280000	80.110000	917.000000	0.000000	131.000000	61.000000	11.000000	-14.000000
2.050000	66.440000	80.020000	906.000000	0.000000	129.000000	61.000000	16.000000	-9.000000
2.060000	66.600000	79.960000	909.000000	0.000000	129.000000	61.000000	16.000000	-6.000000
2.070000	66.780000	79.960000	914.000000	0.000000	129.000000	61.000000	18.000000	0.000000
2.080000	66.920000	80.080000	918.000000	0.000000	129.000000	61.000000	14.000000	12.000000
2.090000	67.020000	80.320000	926.000000	0.000000	129.000000	61.000000	10.000000	24.000000
2.100000	67.140000	80.630000	926.000000	0.000000	129.000000	61.000000	12.000000	31.000000
2.110000	67.230000	80.980000	942.000000	0.000000	129.000000	61.000000	9.000000	35.000000
2.120000	67.310000	81.250000	942.000000	0.000000	129.000000	61.000000	8.000000	27.000000
2.130000	67.360000	81.460000	942.000000	0.000000	130.000000	62.000000	5.000000	21.000000
2.140000	67.360000	81.540000	942.000000	0.000000	130.000000	62.000000	0.000000	8.000000
2.150000	67.360000	81.540000	944.000000	0.000000	130.000000	62.000000	0.000000	0.000000
2.160000	67.360000	81.540000	942.000000	0.000000	130.000000	62.000000	0.000000	0.000000
2.170000	67.360000	81.540000	939.000000	0.000000	130.000000	62.000000	0.000000	0.000000
2.180000	67.360000	81.540000	930.000000	0.000000	130.000000	62.000000	0.000000	0.000000
2.190000	67.360000	81.420000	923.000000	0.000000	132.000000	61.000000	0.000000	-12.000000
2.200000	67.360000	81.310000	914.000000	0.000000	132.000000	61.000000	0.000000	-11.000000
2.210000	67.360000	81.160000	911.000000	0.000000	132.000000	61.000000	0.000000	-15.000000
