t	x	y	pressure	penup	azimuth	inclination	v_x	v_y
0.000000	91.880000	51.850000	32.000000	1.000000	127.000000	48.000000	0.000000	0.000000
0.010000	92.190000	51.960000	58.000000	0.000000	128.000000	48.000000	31.000000	11.000000
0.020000	92.100000	51.960000	60.000000	0.000000	128.000000	48.000000	-9.000000	0.000000
0.030000	92.100000	51.960000	88.000000	0.000000	129.000000	49.000000	0.000000	0.000000
0.040000	92.050000	51.890000	127.000000	0.000000	129.000000	49.000000	-5.000000	-7.000000
0.050000	91.960000	51.780000	161.000000	0.000000	129.000000	49.000000	-9.000000	-11.000000
0.060000	91.840000	51.530000	193.000000	0.000000	129.000000	49.000000	-12.000000	-25.000000
0.070000	91.710000	51.200000	256.000000	0.000000	129.000000	49.000000	-13.000000	-33.000000
0.080000	91.590000	50.910000	270.000000	0.000000	129.000000	49.000000	-12.000000	-29.000000
0.090000	91.480000	50.380000	287.000000	0.000000	128.000000	49.000000	-11.000000	-53.000000
0.100000	91.300000	49.680000	325.000000	0.000000	127.000000	49.000000	-18.000000	-70.000000
0.110000	91.100000	48.810000	356.000000	0.000000	127.000000	49.000000	-20.000000	-87.000000
0.120000	90.810000	47.880000	361.000000	0.000000	126.000000	49.000000	-29.000000	-93.000000
0.130000	90.490000	47.010000	394.000000	0.000000	126.000000	49.000000	-32.000000	-87.000000
0.140000	90.140000	46.190000	425.000000	0.000000	125.000000	50.000000	-35.000000	-82.000000
0.150000	89.870000	45.620000	446.000000	0.000000	124.000000	50.000000	-27.000000	-57.000000
0.160000	89.750000	45.350000	472.000000	0.000000	122.000000	50.000000	-12.000000	-27.000000
0.170000	89.750000	45.290000	517.000000	0.000000	120.000000	50.000000	0.000000	-6.000000
0.180000	89.750000	45.340000	530.000000	0.000000	120.000000	50.000000	0.000000	5.000000
0.190000	89.820000	45.880000	540.000000	0.000000	120.000000	50.000000	7.000000	54.000000
0.200000	89.950000	46.760000	546.000000	0.000000	120.000000	50.000000	13.000000	88.000000
0.210000	90.230000	48.150000	545.000000	0.000000	120.000000	50.000000	28.000000	139.000000
0.220000	90.610000	49.650000	567.000000	0.000000	120.000000	50.000000	38.000000	150.000000
0.230000	91.020000	51.230000	570.000000	0.000000	122.000000	50.000000	41.000000	158.000000
0.240000	91.390000	52.330000	589.000000	0.000000	122.000000	50.000000	37.000000	110.000000
0.250000	91.650000	53.220000	609.000000	0.000000	124.000000	50.000000	26.000000	89.000000
0.260000	91.840000	53.970000	638.000000	0.000000	125.000000	50.000000	19.000000	75.000000
0.270000	91.950000	54.270000	664.000000	0.000000	126.000000	49.000000	11.000000	30.000000
0.280000	91.950000	54.370000	673.000000	0.000000	126.000000	49.000000	0.000000	10.000000
0.290000	91.950000	54.370000	673.000000	0.000000	126.000000	49.000000	0.000000	0.000000
0.300000	91.950000	54.290000	645.000000	0.000000	127.000000	49.000000	0.000000	-8.000000
0.310000	91.950000	54.240000	639.000000	0.000000	127.000000	49.000000	0.000000	-5.000000
0.320000	91.950000	53.860000	639.000000	0.000000	127.000000	49.000000	0.000000	-38.000000
0.330000	92.100000	53.280000	645.000000	0.000000	127.000000	49.000000	15.000000	-58.000000
0.340000	92.240000	52.390000	636.000000	0.000000	127.000000	49.000000	14.000000	-89.000000
0.350000	92.400000	51.470000	643.000000	0.000000	127.000000	49.000000	16.000000	-92.000000
0.360000	92.620000	50.490000	650.000000	0.000000	128.000000	49.000000	22.000000	-98.000000
0.370000	92.930000	49.450000	655.000000	0.000000	127.000000	50.000000	31.000000	-104.000000
0.380000	93.310000	48.600000	661.000000	0.000000	127.000000	50.000000	38.000000	-85.000000
0.390000	93.690000	47.890000	667.000000	0.000000	127.000000	50.000000	38.000000	-71.000000
0.400000	94.000000	47.470000	678.000000	0.000000	127.000000	50.000000	31.000000	-42.000000
0.410000	94.280000	47.170000	691.000000	0.000000	127.000000	50.000000	28.000000	-30.000000
0.420000	94.540000	46.950000	691.000000	0.000000	127.000000	50.000000	26.000000	-22.000000
0.430000	94.620000	46.870000	699.000000	0.000000	127.000000	50.000000	8.000000	-8.000000
0.440000	94.620000	46.780000	713.000000	0.000000	127.000000	50.000000	0.000000	-9.000000
0.450000	94.540000	46.460000	714.000000	0.000000	127.000000	50.000000	-8.000000	-32.000000
0.460000	94.290000	46.000000	714.000000	0.000000	127.000000	50.000000	-25.000000	-46.000000
0.470000	93.900000	45.300000	713.000000	0.000000	127.000000	50.000000	-39.000000	-70.000000
0.480000	93.280000	44.600000	716.000000	0.000000	126.000000	50.000000	-62.000000	-70.000000
0.490000	92.560000	43.940000	724.000000	0.000000	126.000000	50.000000	-72.000000	-66.000000
0.500000	91.770000	43.410000	725.000000	0.000000	126.000000	50.000000	-79.000000	-53.000000
0.510000	90.970000	42.960000	727.000000	0.000000	126.000000	50.000000	-80.000000	-45.000000
0.520000	90.200000	42.680000	721.000000	0.000000	124.000000	50.000000	-77.000000	-28.000000
0.530000	89.440000	42.680000	757.000000	0.000000	124.000000	50.000000	-76.000000	0.000000
0.540000	88.890000	42.810000	754.000000	0.000000	124.000000	50.000000	-55.000000	13.000000
0.550000	88.370000	43.080000	750.000000	0.000000	125.000000	51.000000	-52.000000	27.000000
0.560000	88.120000	43.380000	765.000000	0.000000	125.000000	51.000000	-25.000000	30.000000
0.570000	88.030000	43.700000	760.000000	0.000000	125.000000	51.000000	-9.000000	32.000000
0.580000	88.090000	43.870000	753.000000	0.000000	126.000000	51.000000	6.000000	17.000000
0.590000	88.600000	44.200000	753.000000	0.000000	127.000000	51.000000	51.000000	33.000000
0.600000	89.420000	44.630000	762.000000	0.000000	127.000000	51.000000	82.000000	43.000000
0.610000	90.660000	45.170000	767.000000	0.000000	127.000000	51.000000	124.000000	54.000000
0.620000	92.290000	45.670000	767.000000	0.000000	127.000000	51.000000	163.000000	50.000000
0.630000	94.190000	46.060000	768.000000	0.000000	127.000000	51.000000	190.000000	39.000000
0.640000	96.060000	46.380000	771.000000	0.000000	128.000000	50.000000	187.000000	32.000000
0.650000	97.870000	46.560000	779.000000	0.000000	128.000000	50.000000	181.000000	18.000000
0.660000	99.630000	46.710000	785.000000	0.000000	128.000000	50.000000	176.000000	15.000000
0.670000	101.150000	46.770000	797.000000	0.000000	129.000000	51.000000	152.000000	6.000000
0.680000	102.710000	46.820000	788.000000	0.000000	129.000000	51.000000	156.000000	5.000000
0.690000	104.300000	46.930000	799.000000	0.000000	129.000000	51.000000	159.000000	11.000000
0.700000	105.860000	47.010000	803.000000	0.000000	129.000000	52.000000	156.000000	8.000000
0.710000	107.280000	47.010000	788.000000	0.000000	129.000000	52.000000	142.000000	0.000000
0.720000	108.620000	47.080000	719.000000	0.000000	129.000000	52.000000	134.000000	7.000000
0.730000	110.060000	46.960000	422.000000	0.000000	128.000000	53.000000	144.000000	-12.000000
0.740000	110.060000	46.960000	0.000000	1.000000	127.000000	53.000000	0.000000	0.000000
0.750000	112.120000	46.210000	0.000000	0.000000	125.000000	54.000000	206.000000	-75.000000
0.760000	111.890000	45.660000	0.000000	0.000000	124.000000	54.000000	-23.000000	-55.000000
0.770000	110.900000	45.090000	0.000000	0.000000	123.000000	55.000000	-99.000000	-57.000000
0.780000	109.410000	44.400000	0.000000	0.000000	123.000000	55.000000	-149.000000	-69.000000
0.790000	107.660000	44.000000	0.000000	0.000000	123.000000	55.000000	-175.000000	-40.000000
0.800000	106.150000	43.790000	0.000000	0.000000	122.000000	54.000000	-151.000000	-21.000000
0.810000	104.800000	43.990000	0.000000	0.000000	122.000000	54.000000	-135.000000	20.000000
0.820000	103.290000	44.300000	0.000000	0.000000	122.000000	54.000000	-151.000000	31.000000
0.830000	101.900000	44.680000	0.000000	0.000000	122.000000	54.000000	-139.000000	38.000000
0.840000	100.600000	44.830000	0.000000	0.000000	122.000000	54.000000	-130.000000	15.000000
0.850000	100.490000	45.270000	0.000000	0.000000	122.000000	54.000000	-11.000000	44.000000
0.860000	101.310000	45.900000	0.000000	0.000000	122.000000	54.000000	82.000000	63.000000
0.870000	102.760000	46.720000	0.000000	0.000000	122.000000	54.000000	145.000000	82.000000
0.880000	103.410000	47.250000	0.000000	0.000000	122.000000	54.000000	65.000000	53.000000
0.890000	103.930000	47.600000	0.000000	0.000000	122.000000	54.000000	52.000000	35.000000
0.900000	104.360000	47.950000	0.000000	0.000000	124.000000	53.000000	43.000000	35.000000
0.910000	104.670000	48.190000	0.000000	0.000000	127.000000	51.000000	31.000000	24.000000
0.920000	104.860000	48.370000	0.000000	0.000000	130.000000	48.000000	19.000000	18.000000
0.930000	104.960000	48.430000	0.000000	0.000000	131.000000	45.000000	10.000000	6.000000
0.940000	104.800000	48.520000	0.000000	0.000000	130.000000	45.000000	-16.000000	9.000000
0.950000	104.350000	48.640000	0.000000	0.000000	126.000000	44.000000	-45.000000	12.000000
0.960000	103.700000	48.540000	0.000000	0.000000	122.000000	43.000000	-65.000000	-10.000000
0.970000	102.740000	48.420000	0.000000	0.000000	120.000000	42.000000	-96.000000	-12.000000
0.980000	101.750000	48.280000	0.000000	0.000000	119.000000	40.000000	-99.000000	-14.000000
0.990000	100.740000	48.150000	0.000000	0.000000	118.000000	38.000000	-101.000000	-13.000000
1.000000	100.250000	48.260000	0.000000	0.000000	119.000000	37.000000	-49.000000	11.000000
1.010000	100.050000	48.500000	0.000000	0.000000	119.000000	37.000000	-20.000000	24.000000
1.020000	100.050000	48.690000	0.000000	0.000000	119.000000	37.000000	0.000000	19.000000
1.030000	100.050000	48.820000	0.000000	0.000000	116.000000	35.000000	0.000000	13.000000
1.040000	99.850000	48.820000	0.000000	0.000000	117.000000	32.000000	-20.000000	0.000000
1.050000	99.510000	48.750000	0.000000	0.000000	118.000000	29.000000	-34.000000	-7.000000
1.060000	98.860000	48.570000	0.000000	0.000000	118.000000	27.000000	-65.000000	-18.000000
1.070000	98.250000	48.340000	0.000000	0.000000	123.000000	29.000000	-61.000000	-23.000000
1.080000	97.870000	48.410000	0.000000	0.000000	123.000000	32.000000	-38.000000	7.000000
1.090000	97.630000	48.610000	0.000000	0.000000	122.000000	36.000000	-24.000000	20.000000
1.100000	97.630000	48.910000	0.000000	0.000000	123.000000	41.000000	0.000000	30.000000
1.110000	97.630000	49.130000	0.000000	0.000000	121.000000	46.000000	0.000000	22.000000
1.120000	97.810000	49.320000	0.000000	0.000000	122.000000	50.000000	18.000000	19.000000
1.130000	98.070000	49.440000	0.000000	0.000000	122.000000	53.000000	26.000000	12.000000
1.140000	98.370000	49.520000	0.000000	0.000000	121.000000	55.000000	30.000000	8.000000
1.150000	98.650000	49.440000	0.000000	0.000000	122.000000	56.000000	28.000000	-8.000000
1.160000	98.810000	49.570000	0.000000	0.000000	123.000000	56.000000	16.000000	13.000000
1.170000	98.900000	49.840000	0.000000	0.000000	123.000000	56.000000	9.000000	27.000000
1.180000	98.950000	49.930000	0.000000	0.000000	124.000000	55.000000	5.000000	9.000000
1.190000	98.950000	49.930000	0.000000	0.000000	125.000000	55.000000	0.000000	0.000000
1.200000	98.950000	49.930000	0.000000	0.000000	124.000000	54.000000	0.000000	0.000000
1.210000	98.950000	49.780000	0.000000	0.000000	123.000000	53.000000	0.000000	-15.000000
1.220000	98.880000	49.610000	0.000000	0.000000	123.000000	52.000000	-7.000000	-17.000000
1.230000	98.880000	49.450000	0.000000	0.000000	121.000000	52.000000	0.000000	-16.000000
1.240000	98.880000	49.330000	0.000000	0.000000	121.000000	52.000000	0.000000	-12.000000
1.250000	98.880000	49.240000	0.000000	0.000000	120.000000	51.000000	0.000000	-9.000000
1.260000	98.680000	49.240000	0.000000	0.000000	121.000000	52.000000	-20.000000	0.000000
1.270000	98.540000	49.240000	0.000000	0.000000	121.000000	52.000000	-14.000000	0.000000
1.280000	98.400000	49.380000	0.000000	0.000000	122.000000	53.000000	-14.000000	14.000000
1.290000	98.270000	49.430000	0.000000	0.000000	122.000000	53.000000	-13.000000	5.000000
1.300000	98.270000	49.480000	0.000000	0.000000	124.000000	53.000000	0.000000	5.000000
1.310000	98.320000	49.540000	0.000000	0.000000	125.000000	54.000000	5.000000	6.000000
1.320000	98.450000	49.630000	0.000000	0.000000	125.000000	54.000000	13.000000	9.000000
1.330000	98.580000	49.740000	0.000000	0.000000	125.000000	54.000000	13.000000	11.000000
1.340000	98.700000	49.620000	0.000000	0.000000	127.000000	53.000000	12.000000	-12.000000
1.350000	98.700000	49.780000	0.000000	0.000000	127.000000	53.000000	0.000000	16.000000
1.360000	98.700000	50.120000	0.000000	0.000000	127.000000	53.000000	0.000000	34.000000
1.370000	98.630000	50.270000	0.000000	0.000000	127.000000	53.000000	-7.000000	15.000000
1.380000	98.550000	50.420000	0.000000	0.000000	125.000000	53.000000	-8.000000	15.000000
1.390000	98.500000	50.600000	0.000000	0.000000	127.000000	52.000000	-5.000000	18.000000
1.400000	98.500000	50.790000	0.000000	0.000000	127.000000	52.000000	0.000000	19.000000
1.410000	98.500000	50.920000	0.000000	0.000000	127.000000	52.000000	0.000000	13.000000
1.420000	98.500000	51.050000	0.000000	0.000000	128.000000	52.000000	0.000000	13.000000
1.430000	98.500000	51.180000	0.000000	0.000000	128.000000	52.000000	0.000000	13.000000
1.440000	98.500000	51.360000	0.000000	0.000000	128.000000	52.000000	0.000000	18.000000
1.450000	98.570000	51.570000	0.000000	0.000000	129.000000	51.000000	7.000000	21.000000
1.460000	98.630000	51.820000	0.000000	0.000000	129.000000	51.000000	6.000000	25.000000
1.470000	98.720000	52.100000	0.000000	0.000000	129.000000	51.000000	9.000000	28.000000
1.480000	98.850000	52.410000	0.000000	0.000000	130.000000	51.000000	13.000000	31.000000
1.490000	98.990000	52.660000	0.000000	0.000000	130.000000	51.000000	14.000000	25.000000
1.500000	99.140000	52.860000	0.000000	0.000000	130.000000	51.000000	15.000000	20.000000
1.510000	99.290000	53.040000	0.000000	0.000000	132.000000	50.000000	15.000000	18.000000
1.520000	99.440000	53.150000	0.000000	0.000000	132.000000	50.000000	15.000000	11.000000
1.530000	99.440000	53.150000	78.000000	1.000000	132.000000	50.000000	0.000000	0.000000
1.540000	99.690000	53.300000	101.000000	0.000000	132.000000	50.000000	25.000000	15.000000
1.550000	99.640000	53.380000	106.000000	0.000000	132.000000	50.000000	-5.000000	8.000000
1.560000	99.640000	53.460000	110.000000	0.000000	130.000000	50.000000	0.000000	8.000000
1.570000	99.720000	53.550000	131.000000	0.000000	129.000000	50.000000	8.000000	9.000000
1.580000	99.780000	53.660000	185.000000	0.000000	129.000000	50.000000	6.000000	11.000000
1.590000	99.830000	53.750000	235.000000	0.000000	128.000000	49.000000	5.000000	9.000000
1.600000	99.830000	53.810000	255.000000	0.000000	128.000000	49.000000	0.000000	6.000000
1.610000	99.830000	53.810000	280.000000	0.000000	128.000000	49.000000	0.000000	0.000000
1.620000	99.830000	53.810000	284.000000	0.000000	127.000000	49.000000	0.000000	0.000000
1.630000	99.830000	53.440000	329.000000	0.000000	127.000000	49.000000	0.000000	-37.000000
1.640000	99.600000	52.930000	338.000000	0.000000	127.000000	49.000000	-23.000000	-51.000000
1.650000	99.320000	52.040000	363.000000	0.000000	127.000000	49.000000	-28.000000	-89.000000
1.660000	98.870000	50.990000	393.000000	0.000000	128.000000	49.000000	-45.000000	-105.000000
1.670000	98.380000	49.830000	409.000000	0.000000	127.000000	50.000000	-49.000000	-116.000000
1.680000	97.860000	48.840000	420.000000	0.000000	127.000000	50.000000	-52.000000	-99.000000
1.690000	97.330000	47.830000	415.000000	0.000000	127.000000	50.000000	-53.000000	-101.000000
1.700000	96.830000	47.120000	414.000000	0.000000	127.000000	50.000000	-50.000000	-71.000000
1.710000	96.380000	46.620000	423.000000	0.000000	127.000000	51.000000	-45.000000	-50.000000
1.720000	96.030000	46.350000	439.000000	0.000000	127.000000	51.000000	-35.000000	-27.000000
1.730000	95.780000	46.450000	438.000000	0.000000	127.000000	51.000000	-25.000000	10.000000
1.740000	95.600000	46.790000	423.000000	0.000000	127.000000	51.000000	-18.000000	34.000000
1.750000	95.600000	47.550000	425.000000	0.000000	127.000000	51.000000	0.000000	76.000000
1.760000	95.700000	48.460000	422.000000	0.000000	126.000000	50.000000	10.000000	91.000000
1.770000	96.010000	49.480000	428.000000	0.000000	126.000000	50.000000	31.000000	102.000000
1.780000	96.370000	50.130000	441.000000	0.000000	127.000000	50.000000	36.000000	65.000000
1.790000	96.810000	50.590000	448.000000	0.000000	127.000000	50.000000	44.000000	46.000000
1.800000	97.250000	50.920000	442.000000	0.000000	128.000000	50.000000	44.000000	33.000000
1.810000	97.690000	50.970000	440.000000	0.000000	128.000000	50.000000	44.000000	5.000000
1.820000	98.100000	50.860000	440.000000	0.000000	127.000000	51.000000	41.000000	-11.000000
1.830000	98.430000	50.640000	448.000000	0.000000	128.000000	52.000000	33.000000	-22.000000
1.840000	98.720000	50.160000	465.000000	0.000000	128.000000	52.000000	29.000000	-48.000000
1.850000	98.860000	49.480000	483.000000	0.000000	128.000000	52.000000	14.000000	-68.000000
1.860000	98.860000	48.660000	501.000000	0.000000	128.000000	52.000000	0.000000	-82.000000
1.870000	98.750000	47.560000	540.000000	0.000000	128.000000	52.000000	-11.000000	-110.000000
1.880000	98.640000	46.590000	537.000000	0.000000	128.000000	52.000000	-11.000000	-97.000000
1.890000	98.470000	45.720000	543.000000	0.000000	128.000000	52.000000	-17.000000	-87.000000
1.900000	98.270000	44.830000	554.000000	0.000000	128.000000	52.000000	-20.000000	-89.000000
1.910000	97.970000	43.950000	564.000000	0.000000	127.000000	52.000000	-30.000000	-88.000000
1.920000	97.650000	43.130000	567.000000	0.000000	127.000000	52.000000	-32.000000	-82.000000
1.930000	97.310000	42.340000	575.000000	0.000000	127.000000	52.000000	-34.000000	-79.000000
1.940000	97.020000	41.730000	581.000000	0.000000	127.000000	52.000000	-29.000000	-61.000000
1.950000	96.750000	41.450000	570.000000	0.000000	125.000000	53.000000	-27.000000	-28.000000
1.960000	96.510000	41.380000	578.000000	0.000000	125.000000	53.000000	-24.000000	-7.000000
1.970000	96.290000	41.380000	588.000000	0.000000	125.000000	53.000000	-22.000000	0.000000
1.980000	96.080000	41.570000	589.000000	0.000000	124.000000	53.000000	-21.000000	19.000000
1.990000	95.900000	41.850000	592.000000	0.000000	124.000000	53.000000	-18.000000	28.000000
2.000000	95.790000	42.070000	588.000000	0.000000	124.000000	53.000000	-11.000000	22.000000
2.010000	95.790000	42.260000	588.000000	0.000000	124.000000	53.000000	0.000000	19.000000
2.020000	95.790000	42.390000	589.000000	0.000000	124.000000	53.000000	0.000000	13.000000
2.030000	95.850000	42.490000	589.000000	0.000000	124.000000	53.000000	6.000000	10.000000
2.040000	95.960000	42.580000	589.000000	0.000000	125.000000	53.000000	11.000000	9.000000
2.050000	96.120000	42.660000	586.000000	0.000000	124.000000	52.000000	16.000000	8.000000
2.060000	96.290000	42.660000	586.000000	0.000000	124.000000	52.000000	17.000000	0.000000
2.070000	96.410000	42.740000	595.000000	0.000000	125.000000	53.000000	12.000000	8.000000
2.080000	96.490000	42.740000	585.000000	0.000000	125.000000	53.000000	8.000000	0.000000
2.090000	96.630000	42.740000	594.000000	0.000000	125.000000	53.000000	14.000000	0.000000
2.100000	96.770000	42.740000	589.000000	0.000000	125.000000	53.000000	14.000000	0.000000
2.110000	96.930000	42.850000	588.000000	0.000000	125.000000	53.000000	16.000000	11.000000
2.120000	97.140000	43.130000	588.000000	0.000000	125.000000	53.000000	21.000000	28.000000
2.130000	97.430000	43.700000	589.000000	0.000000	125.000000	53.000000	29.000000	57.000000
2.140000	97.810000	44.460000	585.000000	0.000000	124.000000	52.000000	38.000000	76.000000
2.150000	98.230000	45.220000	585.000000	0.000000	124.000000	52.000000	42.000000	76.000000
2.160000	98.700000	46.140000	594.000000	0.000000	124.000000	52.000000	47.000000	92.000000
2.170000	99.230000	47.160000	614.000000	0.000000	124.000000	52.000000	53.000000	102.000000
2.180000	99.780000	48.080000	616.000000	0.000000	126.000000	51.000000	55.000000	92.000000
2.190000	100.200000	48.920000	613.000000	0.000000	126.000000	51.000000	42.000000	84.000000
2.200000	100.530000	49.710000	613.000000	0.000000	126.000000	51.000000	33.000000	79.000000
2.210000	100.710000	50.090000	616.000000	0.000000	126.000000	51.000000	18.000000	38.000000
