t	x	y	pressure	penup	azimuth	inclination	v_x	v_y
0.000000	20.050000	85.510000	37.000000	1.000000	129.000000	64.000000	0.000000	0.000000
0.010000	20.050000	85.780000	83.000000	0.000000	129.000000	64.000000	0.000000	27.000000
0.020000	20.100000	85.900000	103.000000	0.000000	129.000000	64.000000	5.000000	12.000000
0.030000	20.100000	86.000000	137.000000	0.000000	130.000000	65.000000	0.000000	10.000000
0.040000	20.100000	86.100000	180.000000	0.000000	130.000000	65.000000	0.000000	10.000000
0.050000	20.160000	86.190000	188.000000	0.000000	130.000000	65.000000	6.000000	9.000000
0.060000	20.220000	86.350000	223.000000	0.000000	130.000000	65.000000	6.000000	16.000000
0.070000	20.350000	86.580000	279.000000	0.000000	130.000000	65.000000	13.000000	23.000000
0.080000	20.460000	86.870000	297.000000	0.000000	130.000000	65.000000	11.000000	29.000000
0.090000	20.540000	87.120000	304.000000	0.000000	130.000000	65.000000	8.000000	25.000000
0.100000	20.600000	87.370000	344.000000	0.000000	130.000000	65.000000	6.000000	25.000000
0.110000	20.600000	87.570000	371.000000	0.000000	130.000000	65.000000	0.000000	20.000000
0.120000	20.600000	87.710000	412.000000	0.000000	130.000000	65.000000	0.000000	14.000000
0.130000	20.600000	87.760000	435.000000	0.000000	130.000000	65.000000	0.000000	5.000000
0.140000	20.600000	87.760000	441.000000	0.000000	130.000000	65.000000	0.000000	0.000000
0.150000	20.600000	87.810000	446.000000	0.000000	130.000000	65.000000	0.000000	5.000000
0.160000	20.600000	87.810000	447.000000	0.000000	130.000000	65.000000	0.000000	0.000000
0.170000	20.600000	87.810000	474.000000	0.000000	130.000000	65.000000	0.000000	0.000000
0.180000	20.600000	87.810000	504.000000	0.000000	130.000000	65.000000	0.000000	0.000000
0.190000	20.530000	87.570000	537.000000	0.000000	132.000000	65.000000	-7.000000	-24.000000
0.200000	20.270000	87.210000	550.000000	0.000000	132.000000	65.000000	-26.000000	-36.000000
0.210000	19.880000	86.250000	565.000000	0.000000	132.000000	65.000000	-39.000000	-96.000000
0.220000	19.130000	84.950000	567.000000	0.000000	132.000000	65.000000	-75.000000	-130.000000
0.230000	18.240000	83.420000	574.000000	0.000000	133.000000	65.000000	-89.000000	-153.000000
0.240000	17.250000	81.970000	595.000000	0.000000	133.000000	65.000000	-99.000000	-145.000000
0.250000	16.250000	80.750000	594.000000	0.000000	132.000000	64.000000	-100.000000	-122.000000
0.260000	15.640000	79.690000	591.000000	0.000000	130.000000	65.000000	-61.000000	-106.000000
0.270000	15.300000	79.270000	610.000000	0.000000	129.000000	64.000000	-34.000000	-42.000000
0.280000	15.210000	79.170000	619.000000	0.000000	129.000000	64.000000	-9.000000	-10.000000
0.290000	15.270000	79.290000	610.000000	0.000000	125.000000	64.000000	6.000000	12.000000
0.300000	15.440000	79.810000	620.000000	0.000000	125.000000	64.000000	17.000000	52.000000
0.310000	15.850000	80.780000	614.000000	0.000000	124.000000	63.000000	41.000000	97.000000
0.320000	16.460000	82.060000	608.000000	0.000000	124.000000	63.000000	61.000000	128.000000
0.330000	17.200000	83.450000	613.000000	0.000000	124.000000	63.000000	74.000000	139.000000
0.340000	18.110000	84.820000	614.000000	0.000000	124.000000	63.000000	91.000000	137.000000
0.350000	19.050000	86.190000	614.000000	0.000000	125.000000	64.000000	94.000000	137.000000
0.360000	19.840000	86.870000	611.000000	0.000000	125.000000	64.000000	79.000000	68.000000
0.370000	20.520000	87.010000	617.000000	0.000000	127.000000	64.000000	68.000000	14.000000
0.380000	21.100000	86.780000	627.000000	0.000000	129.000000	64.000000	58.000000	-23.000000
0.390000	21.590000	86.150000	636.000000	0.000000	130.000000	65.000000	49.000000	-63.000000
0.400000	22.030000	85.330000	643.000000	0.000000	130.000000	65.000000	44.000000	-82.000000
0.410000	22.280000	84.380000	649.000000	0.000000	132.000000	64.000000	25.000000	-95.000000
0.420000	22.490000	83.730000	682.000000	0.000000	132.000000	64.000000	21.000000	-65.000000
0.430000	22.680000	83.230000	700.000000	0.000000	132.000000	64.000000	19.000000	-50.000000
0.440000	22.730000	82.820000	728.000000	0.000000	130.000000	63.000000	5.000000	-41.000000
0.450000	22.410000	82.230000	745.000000	0.000000	130.000000	63.000000	-32.000000	-59.000000
0.460000	21.850000	81.630000	746.000000	0.000000	132.000000	63.000000	-56.000000	-60.000000
0.470000	20.880000	81.130000	746.000000	0.000000	130.000000	62.000000	-97.000000	-50.000000
0.480000	19.510000	80.700000	758.000000	0.000000	129.000000	63.000000	-137.000000	-43.000000
0.490000	17.870000	80.420000	750.000000	0.000000	129.000000	63.000000	-164.000000	-28.000000
0.500000	16.140000	80.200000	762.000000	0.000000	129.000000	63.000000	-173.000000	-22.000000
0.510000	14.650000	80.020000	771.000000	0.000000	127.000000	63.000000	-149.000000	-18.000000
0.520000	13.330000	79.770000	780.000000	0.000000	127.000000	63.000000	-132.000000	-25.000000
0.530000	12.370000	79.640000	791.000000	0.000000	125.000000	64.000000	-96.000000	-13.000000
0.540000	11.820000	79.590000	809.000000	0.000000	124.000000	63.000000	-55.000000	-5.000000
0.550000	11.530000	79.590000	790.000000	0.000000	122.000000	63.000000	-29.000000	0.000000
0.560000	11.740000	79.590000	800.000000	0.000000	120.000000	64.000000	21.000000	0.000000
0.570000	12.760000	79.740000	815.000000	0.000000	119.000000	63.000000	102.000000	15.000000
0.580000	14.330000	80.040000	864.000000	0.000000	119.000000	63.000000	157.000000	30.000000
0.590000	16.960000	80.460000	911.000000	0.000000	119.000000	63.000000	263.000000	42.000000
0.600000	20.510000	80.950000	949.000000	0.000000	119.000000	63.000000	355.000000	49.000000
0.610000	24.660000	81.740000	962.000000	0.000000	122.000000	63.000000	415.000000	79.000000
0.620000	29.160000	82.520000	946.000000	0.000000	122.000000	63.000000	450.000000	78.000000
0.630000	33.670000	83.010000	903.000000	0.000000	125.000000	64.000000	451.000000	49.000000
0.640000	38.190000	83.310000	866.000000	0.000000	129.000000	64.000000	452.000000	30.000000
0.650000	42.100000	83.430000	743.000000	0.000000	132.000000	64.000000	391.000000	12.000000
0.660000	45.600000	83.250000	554.000000	0.000000	133.000000	63.000000	350.000000	-18.000000
0.670000	49.050000	82.870000	101.000000	0.000000	137.000000	63.000000	345.000000	-38.000000
0.680000	49.050000	82.870000	0.000000	1.000000	138.000000	64.000000	0.000000	0.000000
0.690000	54.480000	82.170000	0.000000	0.000000	138.000000	64.000000	543.000000	-70.000000
0.700000	56.370000	81.950000	0.000000	0.000000	141.000000	64.000000	189.000000	-22.000000
0.710000	57.560000	81.950000	0.000000	0.000000	141.000000	64.000000	119.000000	0.000000
0.720000	58.270000	82.220000	0.000000	0.000000	142.000000	65.000000	71.000000	27.000000
0.730000	58.270000	82.600000	0.000000	0.000000	142.000000	65.000000	0.000000	38.000000
0.740000	57.790000	83.210000	0.000000	0.000000	142.000000	65.000000	-48.000000	61.000000
0.750000	56.940000	83.990000	0.000000	0.000000	142.000000	65.000000	-85.000000	78.000000
0.760000	55.710000	84.890000	0.000000	0.000000	142.000000	65.000000	-123.000000	90.000000
0.770000	54.350000	85.700000	0.000000	0.000000	142.000000	65.000000	-136.000000	81.000000
0.780000	52.900000	86.500000	0.000000	0.000000	142.000000	65.000000	-145.000000	80.000000
0.790000	49.780000	87.290000	0.000000	0.000000	142.000000	65.000000	-312.000000	79.000000
0.800000	45.600000	88.220000	0.000000	0.000000	142.000000	65.000000	-418.000000	93.000000
0.810000	40.720000	88.860000	0.000000	0.000000	142.000000	65.000000	-488.000000	64.000000
0.820000	35.930000	89.300000	0.000000	0.000000	142.000000	65.000000	-479.000000	44.000000
0.830000	33.420000	89.300000	0.000000	0.000000	135.000000	64.000000	-251.000000	0.000000
0.840000	32.430000	89.100000	0.000000	0.000000	129.000000	61.000000	-99.000000	-20.000000
0.850000	31.580000	88.680000	0.000000	0.000000	126.000000	58.000000	-85.000000	-42.000000
0.860000	30.740000	88.120000	0.000000	0.000000	123.000000	55.000000	-84.000000	-56.000000
0.870000	29.900000	87.660000	0.000000	0.000000	123.000000	53.000000	-84.000000	-46.000000
0.880000	29.230000	87.280000	0.000000	0.000000	124.000000	53.000000	-67.000000	-38.000000
0.890000	28.580000	86.840000	0.000000	0.000000	124.000000	53.000000	-65.000000	-44.000000
0.900000	27.960000	86.410000	0.000000	0.000000	124.000000	53.000000	-62.000000	-43.000000
0.910000	27.340000	86.000000	0.000000	0.000000	123.000000	52.000000	-62.000000	-41.000000
0.920000	26.810000	85.580000	0.000000	0.000000	124.000000	50.000000	-53.000000	-42.000000
0.930000	26.480000	85.740000	0.000000	0.000000	126.000000	48.000000	-33.000000	16.000000
0.940000	26.270000	86.300000	0.000000	0.000000	128.000000	47.000000	-21.000000	56.000000
0.950000	25.830000	86.880000	0.000000	0.000000	132.000000	47.000000	-44.000000	58.000000
0.960000	25.360000	87.440000	0.000000	0.000000	133.000000	48.000000	-47.000000	56.000000
0.970000	24.860000	87.780000	0.000000	0.000000	135.000000	50.000000	-50.000000	34.000000
0.980000	24.430000	87.990000	0.000000	0.000000	137.000000	51.000000	-43.000000	21.000000
0.990000	24.310000	87.860000	0.000000	0.000000	140.000000	52.000000	-12.000000	-13.000000
1.000000	24.390000	87.560000	0.000000	0.000000	142.000000	53.000000	8.000000	-30.000000
1.010000	24.870000	87.150000	0.000000	0.000000	143.000000	53.000000	48.000000	-41.000000
1.020000	25.270000	86.680000	0.000000	0.000000	145.000000	54.000000	40.000000	-47.000000
1.030000	25.620000	86.230000	0.000000	0.000000	145.000000	54.000000	35.000000	-45.000000
1.040000	25.930000	85.880000	0.000000	0.000000	144.000000	54.000000	31.000000	-35.000000
1.050000	26.270000	85.600000	0.000000	0.000000	144.000000	56.000000	34.000000	-28.000000
1.060000	26.460000	85.280000	0.000000	0.000000	142.000000	57.000000	19.000000	-32.000000
1.070000	26.550000	85.010000	0.000000	0.000000	141.000000	59.000000	9.000000	-27.000000
1.080000	26.550000	84.890000	0.000000	0.000000	138.000000	60.000000	0.000000	-12.000000
1.090000	26.550000	84.890000	0.000000	0.000000	137.000000	62.000000	0.000000	0.000000
1.100000	26.550000	85.020000	0.000000	0.000000	135.000000	63.000000	0.000000	13.000000
1.110000	26.550000	85.180000	0.000000	0.000000	135.000000	64.000000	0.000000	16.000000
1.120000	26.550000	85.340000	0.000000	0.000000	133.000000	65.000000	0.000000	16.000000
1.130000	26.620000	85.490000	0.000000	0.000000	130.000000	65.000000	7.000000	15.000000
1.140000	26.750000	85.670000	0.000000	0.000000	129.000000	64.000000	13.000000	18.000000
1.150000	26.750000	85.670000	37.000000	1.000000	127.000000	63.000000	0.000000	0.000000
1.160000	27.120000	86.100000	142.000000	0.000000	124.000000	63.000000	37.000000	43.000000
1.170000	27.120000	86.340000	206.000000	0.000000	124.000000	63.000000	0.000000	24.000000
1.180000	27.170000	86.590000	311.000000	0.000000	123.000000	62.000000	5.000000	25.000000
1.190000	27.100000	86.760000	413.000000	0.000000	123.000000	62.000000	-7.000000	17.000000
1.200000	26.970000	86.890000	491.000000	0.000000	122.000000	61.000000	-13.000000	13.000000
1.210000	26.840000	86.940000	529.000000	0.000000	122.000000	61.000000	-13.000000	5.000000
1.220000	26.620000	86.940000	577.000000	0.000000	121.000000	63.000000	-22.000000	0.000000
1.230000	26.350000	86.620000	588.000000	0.000000	121.000000	63.000000	-27.000000	-32.000000
1.240000	25.980000	86.200000	617.000000	0.000000	121.000000	63.000000	-37.000000	-42.000000
1.250000	25.570000	85.530000	628.000000	0.000000	121.000000	63.000000	-41.000000	-67.000000
1.260000	25.120000	84.830000	644.000000	0.000000	121.000000	63.000000	-45.000000	-70.000000
1.270000	24.790000	84.060000	658.000000	0.000000	121.000000	63.000000	-33.000000	-77.000000
1.280000	24.520000	83.320000	667.000000	0.000000	124.000000	63.000000	-27.000000	-74.000000
1.290000	24.370000	82.760000	668.000000	0.000000	124.000000	63.000000	-15.000000	-56.000000
1.300000	24.440000	82.300000	664.000000	0.000000	124.000000	63.000000	7.000000	-46.000000
1.310000	24.660000	82.060000	664.000000	0.000000	124.000000	63.000000	22.000000	-24.000000
1.320000	24.990000	82.130000	691.000000	0.000000	124.000000	63.000000	33.000000	7.000000
1.330000	25.480000	82.400000	730.000000	0.000000	124.000000	63.000000	49.000000	27.000000
1.340000	26.080000	83.030000	763.000000	0.000000	123.000000	62.000000	60.000000	63.000000
1.350000	26.550000	83.850000	784.000000	0.000000	123.000000	62.000000	47.000000	82.000000
1.360000	26.950000	84.790000	796.000000	0.000000	121.000000	63.000000	40.000000	94.000000
1.370000	27.300000	85.760000	796.000000	0.000000	121.000000	63.000000	35.000000	97.000000
1.380000	27.570000	86.450000	808.000000	0.000000	121.000000	63.000000	27.000000	69.000000
1.390000	27.700000	86.960000	818.000000	0.000000	121.000000	63.000000	13.000000	51.000000
1.400000	27.700000	87.240000	842.000000	0.000000	121.000000	63.000000	0.000000	28.000000
1.410000	27.700000	87.300000	837.000000	0.000000	121.000000	63.000000	0.000000	6.000000
1.420000	27.700000	87.220000	833.000000	0.000000	121.000000	63.000000	0.000000	-8.000000
1.430000	27.700000	87.030000	827.000000	0.000000	121.000000	63.000000	0.000000	-19.000000
1.440000	27.570000	86.410000	833.000000	0.000000	121.000000	63.000000	-13.000000	-62.000000
1.450000	27.440000	85.510000	831.000000	0.000000	121.000000	63.000000	-13.000000	-90.000000
1.460000	27.320000	84.520000	836.000000	0.000000	121.000000	63.000000	-12.000000	-99.000000
1.470000	27.180000	83.520000	845.000000	0.000000	121.000000	63.000000	-14.000000	-100.000000
1.480000	26.990000	82.610000	836.000000	0.000000	121.000000	63.000000	-19.000000	-91.000000
1.490000	26.760000	81.780000	828.000000	0.000000	123.000000	62.000000	-23.000000	-83.000000
1.500000	26.560000	81.150000	831.000000	0.000000	123.000000	62.000000	-20.000000	-63.000000
1.510000	26.430000	80.740000	818.000000	0.000000	122.000000	61.000000	-13.000000	-41.000000
1.520000	26.430000	80.470000	823.000000	0.000000	120.000000	62.000000	0.000000	-27.000000
1.530000	26.430000	80.340000	805.000000	0.000000	120.000000	62.000000	0.000000	-13.000000
1.540000	26.430000	80.340000	806.000000	0.000000	120.000000	62.000000	0.000000	0.000000
1.550000	26.590000	80.500000	815.000000	0.000000	118.000000	62.000000	16.000000	16.000000
1.560000	26.820000	80.820000	832.000000	0.000000	118.000000	62.000000	23.000000	32.000000
1.570000	27.130000	81.240000	825.000000	0.000000	119.000000	63.000000	31.000000	42.000000
1.580000	27.440000	81.720000	843.000000	0.000000	119.000000	63.000000	31.000000	48.000000
1.590000	27.720000	82.190000	864.000000	0.000000	119.000000	63.000000	28.000000	47.000000
1.600000	27.980000	82.690000	869.000000	0.000000	119.000000	63.000000	26.000000	50.000000
1.610000	28.190000	83.180000	855.000000	0.000000	119.000000	63.000000	21.000000	49.000000
1.620000	28.310000	83.420000	863.000000	0.000000	120.000000	64.000000	12.000000	24.000000
1.630000	28.380000	83.520000	869.000000	0.000000	122.000000	63.000000	7.000000	10.000000
1.640000	28.380000	83.520000	873.000000	0.000000	122.000000	63.000000	0.000000	0.000000
1.650000	28.380000	83.520000	872.000000	0.000000	124.000000	64.000000	0.000000	0.000000
1.660000	28.380000	83.520000	864.000000	0.000000	124.000000	64.000000	0.000000	0.000000
1.670000	28.380000	83.440000	858.000000	0.000000	124.000000	64.000000	0.000000	-8.000000
1.680000	28.380000	83.270000	854.000000	0.000000	125.000000	64.000000	0.000000	-17.000000
1.690000	28.290000	83.070000	854.000000	0.000000	125.000000	64.000000	-9.000000	-20.000000
1.700000	28.350000	82.870000	869.000000	0.000000	125.000000	64.000000	6.000000	-20.000000
1.710000	28.420000	82.730000	854.000000	0.000000	125.000000	64.000000	7.000000	-14.000000
1.720000	28.510000	82.570000	853.000000	0.000000	125.000000	64.000000	9.000000	-16.000000
1.730000	28.630000	82.570000	869.000000	0.000000	125.000000	64.000000	12.000000	0.000000
1.740000	28.730000	82.650000	858.000000	0.000000	125.000000	64.000000	10.000000	8.000000
1.750000	28.820000	82.760000	861.000000	0.000000	125.000000	64.000000	9.000000	11.000000
1.760000	28.960000	83.030000	863.000000	0.000000	125.000000	64.000000	14.000000	27.000000
1.770000	29.060000	83.400000	864.000000	0.000000	124.000000	63.000000	10.000000	37.000000
1.780000	29.140000	83.640000	863.000000	0.000000	124.000000	63.000000	8.000000	24.000000
1.790000	29.140000	83.730000	861.000000	0.000000	124.000000	63.000000	0.000000	9.000000
1.800000	29.190000	83.730000	855.000000	0.000000	124.000000	63.000000	5.000000	0.000000
1.810000	29.190000	83.660000	869.000000	0.000000	124.000000	63.000000	0.000000	-7.000000
1.820000	29.190000	83.610000	869.000000	0.000000	124.000000	63.000000	0.000000	-5.000000
1.830000	29.190000	83.460000	866.000000	0.000000	124.000000	63.000000	0.000000	-15.000000
1.840000	29.280000	83.250000	867.000000	0.000000	124.000000	63.000000	9.000000	-21.000000
1.850000	29.380000	83.090000	869.000000	0.000000	124.000000	63.000000	10.000000	-16.000000
1.860000	29.480000	82.930000	864.000000	0.000000	124.000000	63.000000	10.000000	-16.000000
1.870000	29.590000	82.850000	864.000000	0.000000	124.000000	63.000000	11.000000	-8.000000
1.880000	29.660000	82.850000	864.000000	0.000000	124.000000	63.000000	7.000000	0.000000
1.890000	29.710000	82.850000	855.000000	0.000000	124.000000	63.000000	5.000000	0.000000
1.900000	29.840000	82.850000	866.000000	0.000000	124.000000	63.000000	13.000000	0.000000
1.910000	29.970000	83.060000	873.000000	0.000000	124.000000	63.000000	13.000000	21.000000
1.920000	30.100000	83.370000	881.000000	0.000000	124.000000	63.000000	13.000000	31.000000
1.930000	30.320000	83.800000	887.000000	0.000000	123.000000	62.000000	22.000000	43.000000
1.940000	30.480000	84.350000	888.000000	0.000000	123.000000	62.000000	16.000000	55.000000
1.950000	30.610000	84.990000	890.000000	0.000000	123.000000	62.000000	13.000000	64.000000
1.960000	30.750000	85.750000	891.000000	0.000000	121.000000	63.000000	14.000000	76.000000
1.970000	30.860000	86.510000	899.000000	0.000000	121.000000	63.000000	11.000000	76.000000
1.980000	30.940000	87.000000	890.000000	0.000000	121.000000	63.000000	8.000000	49.000000
1.990000	30.880000	87.310000	891.000000	0.000000	121.000000	63.000000	-6.000000	31.000000
2.000000	30.880000	87.520000	896.000000	0.000000	120.000000	62.000000	0.000000	21.000000
2.010000	30.830000	87.660000	899.000000	0.000000	120.000000	62.000000	-5.000000	14.000000
2.020000	30.830000	87.710000	896.000000	0.000000	120.000000	62.000000	0.000000	5.000000
2.030000	30.830000	87.710000	882.000000	0.000000	120.000000	62.000000	0.000000	0.000000
2.040000	30.830000	87.650000	873.000000	0.000000	121.000000	63.000000	0.000000	-6.000000
2.050000	30.830000	87.580000	878.000000	0.000000	121.000000	63.000000	0.000000	-7.000000
2.060000	30.830000	87.280000	879.000000	0.000000	121.000000	63.000000	0.000000	-30.000000
2.070000	30.760000	86.830000	879.000000	0.000000	121.000000	63.000000	-7.000000	-45.000000
2.080000	30.690000	86.190000	882.000000	0.000000	121.000000	63.000000	-7.000000	-64.000000
2.090000	30.630000	85.530000	872.000000	0.000000	121.000000	63.000000	-6.000000	-66.000000
2.100000	30.560000	84.800000	863.000000	0.000000	120.000000	62.000000	-7.000000	-73.000000
2.110000	30.480000	84.260000	864.000000	0.000000	120.000000	62.000000	-8.000000	-54.000000
2.120000	30.560000	83.850000	863.000000	0.000000	120.000000	62.000000	8.000000	-41.000000
2.130000	30.670000	83.570000	864.000000	0.000000	122.000000	61.000000	11.000000	-28.000000
2.140000	30.830000	83.380000	861.000000	0.000000	122.000000	61.000000	16.000000	-19.000000
2.150000	30.980000	83.250000	864.000000	0.000000	122.000000	61.000000	15.000000	-13.000000
2.160000	31.120000	83.250000	864.000000	0.000000	122.000000	61.000000	14.000000	0.000000
2.170000	31.230000	83.250000	869.000000	0.000000	123.000000	62.000000	11.000000	0.000000
2.180000	31.330000	83.250000	872.000000	0.000000	123.000000	62.000000	10.000000	0.000000
2.190000	31.380000	83.360000	879.000000	0.000000	123.000000	62.000000	5.000000	11.000000
2.200000	31.450000	83.590000	879.000000	0.000000	123.000000	62.000000	7.000000	23.000000
