t	x	y	pressure	penup	azimuth	inclination	v_x	v_y
0.000000	55.470000	44.550000	134.000000	1.000000	125.000000	59.000000	0.000000	0.000000
0.010000	55.750000	45.150000	182.000000	0.000000	124.000000	60.000000	28.000000	60.000000
0.020000	55.850000	45.480000	202.000000	0.000000	125.000000	60.000000	10.000000	33.000000
0.030000	55.950000	45.800000	285.000000	0.000000	125.000000	60.000000	10.000000	32.000000
0.040000	56.100000	46.240000	361.000000	0.000000	125.000000	60.000000	15.000000	44.000000
0.050000	56.280000	46.770000	455.000000	0.000000	125.000000	60.000000	18.000000	53.000000
0.060000	56.490000	47.270000	494.000000	0.000000	126.000000	61.000000	21.000000	50.000000
0.070000	56.700000	47.560000	515.000000	0.000000	126.000000	61.000000	21.000000	29.000000
0.080000	56.840000	47.700000	537.000000	0.000000	128.000000	61.000000	14.000000	14.000000
0.090000	56.930000	47.490000	580.000000	0.000000	129.000000	60.000000	9.000000	-21.000000
0.100000	56.930000	46.780000	595.000000	0.000000	129.000000	60.000000	0.000000	-71.000000
0.110000	56.720000	45.750000	614.000000	0.000000	129.000000	60.000000	-21.000000	-103.000000
0.120000	56.310000	44.340000	611.000000	0.000000	131.000000	60.000000	-41.000000	-141.000000
0.130000	55.840000	42.920000	627.000000	0.000000	131.000000	60.000000	-47.000000	-142.000000
0.140000	55.390000	41.830000	633.000000	0.000000	129.000000	60.000000	-45.000000	-109.000000
0.150000	54.950000	40.970000	641.000000	0.000000	129.000000	60.000000	-44.000000	-86.000000
0.160000	54.600000	40.500000	662.000000	0.000000	129.000000	60.000000	-35.000000	-47.000000
0.170000	54.350000	40.370000	682.000000	0.000000	128.000000	61.000000	-25.000000	-13.000000
0.180000	54.170000	40.480000	678.000000	0.000000	126.000000	60.000000	-18.000000	11.000000
0.190000	54.040000	40.910000	676.000000	0.000000	126.000000	60.000000	-13.000000	43.000000
0.200000	54.190000	41.730000	664.000000	0.000000	126.000000	60.000000	15.000000	82.000000
0.210000	54.530000	42.820000	666.000000	0.000000	124.000000	60.000000	34.000000	109.000000
0.220000	55.050000	43.980000	664.000000	0.000000	124.000000	60.000000	52.000000	116.000000
0.230000	55.600000	44.840000	669.000000	0.000000	124.000000	60.000000	55.000000	86.000000
0.240000	56.230000	45.490000	682.000000	0.000000	124.000000	60.000000	63.000000	65.000000
0.250000	57.130000	45.980000	699.000000	0.000000	125.000000	60.000000	90.000000	49.000000
0.260000	58.200000	46.190000	702.000000	0.000000	125.000000	60.000000	107.000000	21.000000
0.270000	59.000000	46.190000	691.000000	0.000000	125.000000	60.000000	80.000000	0.000000
0.280000	59.640000	45.980000	691.000000	0.000000	125.000000	60.000000	64.000000	-21.000000
0.290000	60.160000	45.730000	690.000000	0.000000	125.000000	60.000000	52.000000	-25.000000
0.300000	60.470000	45.410000	703.000000	0.000000	125.000000	60.000000	31.000000	-32.000000
0.310000	60.470000	44.990000	737.000000	0.000000	125.000000	60.000000	0.000000	-42.000000
0.320000	60.320000	44.510000	779.000000	0.000000	125.000000	60.000000	-15.000000	-48.000000
0.330000	59.660000	43.920000	817.000000	0.000000	125.000000	60.000000	-66.000000	-59.000000
0.340000	58.600000	43.270000	863.000000	0.000000	125.000000	60.000000	-106.000000	-65.000000
0.350000	57.280000	42.920000	882.000000	0.000000	125.000000	60.000000	-132.000000	-35.000000
0.360000	55.530000	42.750000	885.000000	0.000000	125.000000	60.000000	-175.000000	-17.000000
0.370000	53.660000	42.700000	892.000000	0.000000	126.000000	60.000000	-187.000000	-5.000000
0.380000	51.720000	42.420000	900.000000	0.000000	125.000000	59.000000	-194.000000	-28.000000
0.390000	50.080000	42.090000	909.000000	0.000000	125.000000	59.000000	-164.000000	-33.000000
0.400000	49.040000	41.680000	894.000000	0.000000	124.000000	58.000000	-104.000000	-41.000000
0.410000	48.390000	41.230000	900.000000	0.000000	124.000000	58.000000	-65.000000	-45.000000
0.420000	48.510000	41.120000	891.000000	0.000000	123.000000	58.000000	12.000000	-11.000000
0.430000	49.210000	40.980000	903.000000	0.000000	123.000000	58.000000	70.000000	-14.000000
0.440000	50.300000	41.080000	933.000000	0.000000	123.000000	58.000000	109.000000	10.000000
0.450000	52.760000	41.360000	987.000000	0.000000	122.000000	57.000000	246.000000	28.000000
0.460000	55.880000	41.820000	1023.000000	0.000000	123.000000	58.000000	312.000000	46.000000
0.470000	59.450000	42.260000	1023.000000	0.000000	123.000000	58.000000	357.000000	44.000000
0.480000	62.790000	42.660000	1023.000000	0.000000	124.000000	58.000000	334.000000	40.000000
0.490000	65.960000	42.820000	1009.000000	0.000000	125.000000	59.000000	317.000000	16.000000
0.500000	69.010000	42.820000	933.000000	0.000000	126.000000	60.000000	305.000000	0.000000
0.510000	71.320000	42.620000	788.000000	0.000000	128.000000	61.000000	231.000000	-20.000000
0.520000	73.550000	42.550000	431.000000	0.000000	131.000000	61.000000	223.000000	-7.000000
0.530000	73.550000	42.550000	0.000000	1.000000	132.000000	61.000000	0.000000	0.000000
0.540000	77.850000	42.990000	0.000000	0.000000	135.000000	63.000000	430.000000	44.000000
0.550000	79.390000	43.650000	0.000000	0.000000	135.000000	63.000000	154.000000	66.000000
0.560000	80.530000	44.490000	0.000000	0.000000	137.000000	63.000000	114.000000	84.000000
0.570000	81.060000	45.500000	0.000000	0.000000	138.000000	63.000000	53.000000	101.000000
0.580000	81.060000	46.240000	0.000000	0.000000	138.000000	63.000000	0.000000	74.000000
0.590000	80.740000	46.800000	0.000000	0.000000	140.000000	62.000000	-32.000000	56.000000
0.600000	80.100000	47.220000	0.000000	0.000000	140.000000	62.000000	-64.000000	42.000000
0.610000	78.990000	47.590000	0.000000	0.000000	141.000000	61.000000	-111.000000	37.000000
0.620000	77.560000	47.890000	0.000000	0.000000	139.000000	61.000000	-143.000000	30.000000
0.630000	76.250000	48.170000	0.000000	0.000000	138.000000	60.000000	-131.000000	28.000000
0.640000	74.970000	48.480000	0.000000	0.000000	136.000000	60.000000	-128.000000	31.000000
0.650000	73.740000	48.810000	0.000000	0.000000	132.000000	60.000000	-123.000000	33.000000
0.660000	72.290000	48.920000	0.000000	0.000000	128.000000	61.000000	-145.000000	11.000000
0.670000	70.690000	49.030000	0.000000	0.000000	120.000000	60.000000	-160.000000	11.000000
0.680000	69.190000	49.160000	0.000000	0.000000	114.000000	59.000000	-150.000000	13.000000
0.690000	67.800000	49.350000	0.000000	0.000000	110.000000	58.000000	-139.000000	19.000000
0.700000	66.670000	49.570000	0.000000	0.000000	107.000000	59.000000	-113.000000	22.000000
0.710000	65.690000	49.780000	0.000000	0.000000	106.000000	60.000000	-98.000000	21.000000
0.720000	64.780000	49.980000	0.000000	0.000000	105.000000	61.000000	-91.000000	20.000000
0.730000	63.880000	50.110000	0.000000	0.000000	106.000000	63.000000	-90.000000	13.000000
0.740000	62.760000	50.200000	0.000000	0.000000	108.000000	65.000000	-112.000000	9.000000
0.750000	61.480000	50.480000	0.000000	0.000000	115.000000	67.000000	-128.000000	28.000000
0.760000	61.350000	50.480000	0.000000	0.000000	119.000000	68.000000	-13.000000	0.000000
0.770000	60.920000	50.390000	0.000000	0.000000	124.000000	67.000000	-43.000000	-9.000000
0.780000	60.290000	50.310000	0.000000	0.000000	126.000000	66.000000	-63.000000	-8.000000
0.790000	60.060000	50.220000	0.000000	0.000000	125.000000	64.000000	-23.000000	-9.000000
0.800000	59.860000	49.990000	0.000000	0.000000	125.000000	60.000000	-20.000000	-23.000000
0.810000	59.680000	49.670000	0.000000	0.000000	123.000000	58.000000	-18.000000	-32.000000
0.820000	59.500000	49.350000	0.000000	0.000000	124.000000	55.000000	-18.000000	-32.000000
0.830000	59.300000	49.110000	0.000000	0.000000	123.000000	53.000000	-20.000000	-24.000000
0.840000	59.090000	48.930000	0.000000	0.000000	123.000000	52.000000	-21.000000	-18.000000
0.850000	59.090000	48.790000	0.000000	0.000000	123.000000	52.000000	0.000000	-14.000000
0.860000	59.220000	48.340000	0.000000	0.000000	124.000000	52.000000	13.000000	-45.000000
0.870000	59.400000	47.680000	0.000000	0.000000	123.000000	51.000000	18.000000	-66.000000
0.880000	59.610000	46.800000	0.000000	0.000000	125.000000	51.000000	21.000000	-88.000000
0.890000	59.920000	45.870000	0.000000	0.000000	125.000000	51.000000	31.000000	-93.000000
0.900000	60.270000	44.860000	0.000000	0.000000	127.000000	51.000000	35.000000	-101.000000
0.910000	60.790000	44.300000	0.000000	0.000000	126.000000	51.000000	52.000000	-56.000000
0.920000	61.310000	44.050000	0.000000	0.000000	127.000000	52.000000	52.000000	-25.000000
0.930000	61.790000	43.560000	0.000000	0.000000	127.000000	53.000000	48.000000	-49.000000
0.940000	62.230000	43.310000	0.000000	0.000000	126.000000	54.000000	44.000000	-25.000000
0.950000	62.580000	43.220000	0.000000	0.000000	125.000000	55.000000	35.000000	-9.000000
0.960000	62.770000	43.310000	0.000000	0.000000	123.000000	56.000000	19.000000	9.000000
0.970000	62.840000	43.550000	0.000000	0.000000	123.000000	58.000000	7.000000	24.000000
0.980000	62.900000	43.890000	0.000000	0.000000	120.000000	58.000000	6.000000	34.000000
0.990000	62.950000	44.190000	0.000000	0.000000	119.000000	60.000000	5.000000	30.000000
1.000000	62.950000	44.510000	0.000000	0.000000	119.000000	60.000000	0.000000	32.000000
1.010000	63.170000	44.830000	0.000000	0.000000	119.000000	60.000000	22.000000	32.000000
1.020000	63.400000	45.140000	0.000000	0.000000	119.000000	60.000000	23.000000	31.000000
1.030000	63.620000	45.400000	0.000000	0.000000	119.000000	60.000000	22.000000	26.000000
1.040000	63.810000	45.660000	0.000000	0.000000	119.000000	60.000000	19.000000	26.000000
1.050000	64.010000	45.900000	0.000000	0.000000	119.000000	60.000000	20.000000	24.000000
1.060000	64.230000	46.110000	0.000000	0.000000	119.000000	60.000000	22.000000	21.000000
1.070000	64.230000	46.110000	235.000000	1.000000	119.000000	61.000000	0.000000	0.000000
1.080000	64.610000	46.600000	334.000000	0.000000	119.000000	61.000000	38.000000	49.000000
1.090000	64.530000	46.930000	391.000000	0.000000	119.000000	61.000000	-8.000000	33.000000
1.100000	64.450000	47.250000	530.000000	0.000000	120.000000	62.000000	-8.000000	32.000000
1.110000	64.360000	47.560000	650.000000	0.000000	122.000000	61.000000	-9.000000	31.000000
1.120000	64.300000	47.700000	684.000000	0.000000	123.000000	62.000000	-6.000000	14.000000
1.130000	64.160000	47.700000	708.000000	0.000000	123.000000	62.000000	-14.000000	0.000000
1.140000	63.970000	47.640000	731.000000	0.000000	123.000000	62.000000	-19.000000	-6.000000
1.150000	63.670000	47.240000	727.000000	0.000000	123.000000	62.000000	-30.000000	-40.000000
1.160000	63.270000	46.650000	734.000000	0.000000	123.000000	62.000000	-40.000000	-59.000000
1.170000	62.800000	45.720000	734.000000	0.000000	123.000000	62.000000	-47.000000	-93.000000
1.180000	62.400000	44.850000	736.000000	0.000000	123.000000	62.000000	-40.000000	-87.000000
1.190000	62.030000	44.010000	737.000000	0.000000	120.000000	62.000000	-37.000000	-84.000000
1.200000	61.920000	43.530000	739.000000	0.000000	120.000000	62.000000	-11.000000	-48.000000
1.210000	61.920000	43.330000	748.000000	0.000000	117.000000	61.000000	0.000000	-20.000000
1.220000	62.170000	43.330000	785.000000	0.000000	117.000000	61.000000	25.000000	0.000000
1.230000	62.530000	43.570000	805.000000	0.000000	115.000000	62.000000	36.000000	24.000000
1.240000	62.990000	44.170000	824.000000	0.000000	114.000000	61.000000	46.000000	60.000000
1.250000	63.440000	45.000000	837.000000	0.000000	114.000000	61.000000	45.000000	83.000000
1.260000	63.890000	45.990000	858.000000	0.000000	115.000000	62.000000	45.000000	99.000000
1.270000	64.250000	47.110000	861.000000	0.000000	115.000000	62.000000	36.000000	112.000000
1.280000	64.540000	48.330000	870.000000	0.000000	117.000000	61.000000	29.000000	122.000000
1.290000	64.590000	49.260000	882.000000	0.000000	118.000000	62.000000	5.000000	93.000000
1.300000	64.590000	49.680000	902.000000	0.000000	120.000000	62.000000	0.000000	42.000000
1.310000	64.530000	49.770000	905.000000	0.000000	123.000000	62.000000	-6.000000	9.000000
1.320000	64.530000	49.660000	908.000000	0.000000	124.000000	62.000000	0.000000	-11.000000
1.330000	64.530000	49.070000	909.000000	0.000000	126.000000	61.000000	0.000000	-59.000000
1.340000	64.430000	48.150000	902.000000	0.000000	126.000000	61.000000	-10.000000	-92.000000
1.350000	64.290000	46.780000	896.000000	0.000000	128.000000	61.000000	-14.000000	-137.000000
1.360000	64.240000	45.430000	896.000000	0.000000	126.000000	61.000000	-5.000000	-135.000000
1.370000	64.130000	44.100000	893.000000	0.000000	126.000000	61.000000	-11.000000	-133.000000
1.380000	63.980000	42.670000	905.000000	0.000000	124.000000	62.000000	-15.000000	-143.000000
1.390000	63.850000	41.630000	899.000000	0.000000	123.000000	62.000000	-13.000000	-104.000000
1.400000	63.740000	40.850000	888.000000	0.000000	120.000000	62.000000	-11.000000	-78.000000
1.410000	63.660000	40.450000	888.000000	0.000000	118.000000	62.000000	-8.000000	-40.000000
1.420000	63.660000	40.330000	890.000000	0.000000	116.000000	63.000000	0.000000	-12.000000
1.430000	63.660000	40.410000	890.000000	0.000000	116.000000	63.000000	0.000000	8.000000
1.440000	63.660000	40.660000	891.000000	0.000000	115.000000	62.000000	0.000000	25.000000
1.450000	63.840000	41.130000	897.000000	0.000000	115.000000	62.000000	18.000000	47.000000
1.460000	64.080000	41.740000	908.000000	0.000000	115.000000	62.000000	24.000000	61.000000
1.470000	64.350000	42.330000	896.000000	0.000000	115.000000	62.000000	27.000000	59.000000
1.480000	64.630000	42.990000	903.000000	0.000000	115.000000	62.000000	28.000000	66.000000
1.490000	64.900000	43.690000	912.000000	0.000000	115.000000	62.000000	27.000000	70.000000
1.500000	65.070000	44.110000	915.000000	0.000000	116.000000	63.000000	17.000000	42.000000
1.510000	65.180000	44.480000	929.000000	0.000000	116.000000	63.000000	11.000000	37.000000
1.520000	65.180000	44.570000	935.000000	0.000000	116.000000	63.000000	0.000000	9.000000
1.530000	65.180000	44.480000	932.000000	0.000000	116.000000	63.000000	0.000000	-9.000000
1.540000	65.180000	44.380000	930.000000	0.000000	116.000000	63.000000	0.000000	-10.000000
1.550000	65.180000	44.280000	932.000000	0.000000	116.000000	63.000000	0.000000	-10.000000
1.560000	65.180000	44.050000	930.000000	0.000000	116.000000	63.000000	0.000000	-23.000000
1.570000	65.180000	43.740000	930.000000	0.000000	116.000000	63.000000	0.000000	-31.000000
1.580000	65.180000	43.510000	930.000000	0.000000	116.000000	63.000000	0.000000	-23.000000
1.590000	65.270000	43.330000	929.000000	0.000000	116.000000	63.000000	9.000000	-18.000000
1.600000	65.350000	43.180000	920.000000	0.000000	116.000000	63.000000	8.000000	-15.000000
1.610000	65.460000	43.120000	915.000000	0.000000	116.000000	63.000000	11.000000	-6.000000
1.620000	65.540000	43.050000	908.000000	0.000000	116.000000	63.000000	8.000000	-7.000000
1.630000	65.630000	43.050000	908.000000	0.000000	116.000000	63.000000	9.000000	0.000000
1.640000	65.710000	43.050000	912.000000	0.000000	116.000000	63.000000	8.000000	0.000000
1.650000	65.760000	43.160000	918.000000	0.000000	116.000000	63.000000	5.000000	11.000000
1.660000	65.760000	43.370000	923.000000	0.000000	116.000000	63.000000	0.000000	21.000000
1.670000	65.900000	43.660000	923.000000	0.000000	116.000000	63.000000	14.000000	29.000000
1.680000	66.000000	43.820000	921.000000	0.000000	116.000000	63.000000	10.000000	16.000000
1.690000	66.000000	43.960000	921.000000	0.000000	116.000000	63.000000	0.000000	14.000000
1.700000	66.050000	43.960000	912.000000	0.000000	116.000000	63.000000	5.000000	0.000000
1.710000	66.050000	43.960000	903.000000	0.000000	116.000000	63.000000	0.000000	0.000000
1.720000	66.050000	43.960000	905.000000	0.000000	116.000000	63.000000	0.000000	0.000000
1.730000	66.160000	43.690000	905.000000	0.000000	116.000000	63.000000	11.000000	-27.000000
1.740000	66.270000	43.490000	905.000000	0.000000	116.000000	63.000000	11.000000	-20.000000
1.750000	66.390000	43.410000	906.000000	0.000000	116.000000	63.000000	12.000000	-8.000000
1.760000	66.520000	43.410000	912.000000	0.000000	116.000000	63.000000	13.000000	0.000000
1.770000	66.630000	43.490000	918.000000	0.000000	116.000000	63.000000	11.000000	8.000000
1.780000	66.760000	43.670000	930.000000	0.000000	117.000000	63.000000	13.000000	18.000000
1.790000	66.910000	44.020000	938.000000	0.000000	117.000000	63.000000	15.000000	35.000000
1.800000	67.080000	44.490000	942.000000	0.000000	117.000000	63.000000	17.000000	47.000000
1.810000	67.260000	44.960000	951.000000	0.000000	117.000000	63.000000	18.000000	47.000000
1.820000	67.420000	45.580000	937.000000	0.000000	117.000000	63.000000	16.000000	62.000000
1.830000	67.530000	46.300000	941.000000	0.000000	117.000000	63.000000	11.000000	72.000000
1.840000	67.590000	47.070000	941.000000	0.000000	117.000000	63.000000	6.000000	77.000000
1.850000	67.590000	47.810000	946.000000	0.000000	120.000000	64.000000	0.000000	74.000000
1.860000	67.590000	48.280000	946.000000	0.000000	120.000000	64.000000	0.000000	47.000000
1.870000	67.590000	48.590000	949.000000	0.000000	122.000000	63.000000	0.000000	31.000000
1.880000	67.590000	48.730000	950.000000	0.000000	125.000000	64.000000	0.000000	14.000000
1.890000	67.540000	48.730000	947.000000	0.000000	127.000000	63.000000	-5.000000	0.000000
1.900000	67.540000	48.680000	940.000000	0.000000	129.000000	63.000000	0.000000	-5.000000
1.910000	67.540000	48.530000	941.000000	0.000000	129.000000	63.000000	0.000000	-15.000000
1.920000	67.540000	48.080000	938.000000	0.000000	130.000000	62.000000	0.000000	-45.000000
1.930000	67.540000	47.440000	933.000000	0.000000	130.000000	62.000000	0.000000	-64.000000
1.940000	67.450000	46.690000	934.000000	0.000000	129.000000	63.000000	-9.000000	-75.000000
1.950000	67.370000	45.920000	945.000000	0.000000	129.000000	63.000000	-8.000000	-77.000000
1.960000	67.280000	45.110000	939.000000	0.000000	127.000000	63.000000	-9.000000	-81.000000
1.970000	67.190000	44.430000	939.000000	0.000000	125.000000	64.000000	-9.000000	-68.000000
1.980000	67.190000	43.850000	936.000000	0.000000	124.000000	63.000000	0.000000	-58.000000
1.990000	67.270000	43.560000	933.000000	0.000000	122.000000	63.000000	8.000000	-29.000000
2.000000	67.400000	43.430000	933.000000	0.000000	120.000000	64.000000	13.000000	-13.000000
2.010000	67.530000	43.430000	936.000000	0.000000	119.000000	63.000000	13.000000	0.000000
2.020000	67.690000	43.500000	948.000000	0.000000	119.000000	63.000000	16.000000	7.000000
2.030000	67.890000	43.700000	933.000000	0.000000	119.000000	63.000000	20.000000	20.000000
2.040000	68.100000	43.960000	934.000000	0.000000	119.000000	63.000000	21.000000	26.000000
2.050000	68.260000	44.190000	934.000000	0.000000	117.000000	63.000000	16.000000	23.000000
2.060000	68.390000	44.420000	937.000000	0.000000	117.000000	63.000000	13.000000	23.000000
2.070000	68.450000	44.640000	941.000000	0.000000	117.000000	63.000000	6.000000	22.000000
2.080000	68.450000	44.830000	946.000000	0.000000	116.000000	63.000000	0.000000	19.000000
2.090000	68.450000	44.990000	944.000000	0.000000	116.000000	63.000000	0.000000	16.000000
2.100000	68.450000	44.990000	944.000000	0.000000	116.000000	63.000000	0.000000	0.000000
2.110000	68.450000	44.990000	943.000000	0.000000	115.000000	62.000000	0.000000	0.000000
2.120000	68.450000	44.990000	937.000000	0.000000	115.000000	62.000000	0.000000	0.000000
2.130000	68.450000	44.990000	933.000000	0.000000	115.000000	62.000000	0.000000	0.000000
2.140000	68.450000	44.990000	950.000000	0.000000	114.000000	61.000000	0.000000	0.000000
2.150000	68.450000	44.990000	941.000000	0.000000	114.000000	61.000000	0.000000	0.000000
2.160000	68.510000	44.610000	939.000000	0.000000	114.000000	61.000000	6.000000	-38.000000
2.170000	68.510000	44.380000	932.000000	0.000000	114.000000	61.000000	0.000000	-23.000000
2.180000	68.510000	44.190000	929.000000	0.000000	114.000000	61.000000	0.000000	-19.000000
2.190000	68.510000	43.980000	924.000000	0.000000	114.000000	61.000000	0.000000	-21.000000
2.200000	68.620000	43.800000	912.000000	0.000000	116.000000	60.000000	11.000000	-18.000000
