t	x	y	pressure	penup	azimuth	inclination	v_x	v_y
0.000000	50.650000	17.160000	142.000000	1.000000	167.000000	49.000000	0.000000	0.000000
0.010000	50.950000	17.430000	175.000000	0.000000	167.000000	50.000000	30.000000	27.000000
0.020000	51.040000	17.540000	272.000000	0.000000	167.000000	50.000000	9.000000	11.000000
0.030000	51.040000	17.650000	344.000000	0.000000	165.000000	51.000000	0.000000	11.000000
0.040000	51.290000	17.700000	396.000000	0.000000	165.000000	51.000000	25.000000	5.000000
0.050000	51.420000	17.700000	418.000000	0.000000	164.000000	52.000000	13.000000	0.000000
0.060000	51.500000	17.700000	448.000000	0.000000	164.000000	52.000000	8.000000	0.000000
0.070000	51.580000	17.540000	489.000000	0.000000	164.000000	52.000000	8.000000	-16.000000
0.080000	51.660000	17.220000	519.000000	0.000000	166.000000	52.000000	8.000000	-32.000000
0.090000	51.720000	16.770000	543.000000	0.000000	166.000000	52.000000	6.000000	-45.000000
0.100000	51.720000	16.120000	554.000000	0.000000	166.000000	51.000000	0.000000	-65.000000
0.110000	51.660000	15.250000	566.000000	0.000000	167.000000	52.000000	-6.000000	-87.000000
0.120000	51.660000	14.230000	595.000000	0.000000	167.000000	52.000000	0.000000	-102.000000
0.130000	51.610000	13.040000	602.000000	0.000000	166.000000	53.000000	-5.000000	-119.000000
0.140000	51.610000	11.860000	606.000000	0.000000	166.000000	54.000000	0.000000	-118.000000
0.150000	51.530000	10.690000	611.000000	0.000000	165.000000	55.000000	-8.000000	-117.000000
0.160000	51.460000	9.960000	614.000000	0.000000	165.000000	56.000000	-7.000000	-73.000000
0.170000	51.270000	9.410000	611.000000	0.000000	165.000000	56.000000	-19.000000	-55.000000
0.180000	51.000000	8.990000	642.000000	0.000000	164.000000	57.000000	-27.000000	-42.000000
0.190000	50.740000	8.790000	655.000000	0.000000	164.000000	58.000000	-26.000000	-20.000000
0.200000	50.210000	8.710000	668.000000	0.000000	164.000000	58.000000	-53.000000	-8.000000
0.210000	49.490000	8.710000	670.000000	0.000000	164.000000	58.000000	-72.000000	0.000000
0.220000	48.490000	8.930000	664.000000	0.000000	164.000000	58.000000	-100.000000	22.000000
0.230000	47.320000	9.220000	664.000000	0.000000	163.000000	57.000000	-117.000000	29.000000
0.240000	46.040000	9.570000	661.000000	0.000000	163.000000	57.000000	-128.000000	35.000000
0.250000	44.910000	9.990000	619.000000	0.000000	163.000000	57.000000	-113.000000	42.000000
0.260000	44.080000	10.480000	606.000000	0.000000	163.000000	57.000000	-83.000000	49.000000
0.270000	43.440000	11.010000	564.000000	0.000000	161.000000	57.000000	-64.000000	53.000000
0.280000	43.230000	11.570000	526.000000	0.000000	161.000000	57.000000	-21.000000	56.000000
0.290000	43.320000	12.160000	492.000000	0.000000	161.000000	57.000000	9.000000	59.000000
0.300000	43.600000	12.780000	475.000000	0.000000	161.000000	57.000000	28.000000	62.000000
0.310000	44.260000	13.260000	468.000000	0.000000	161.000000	57.000000	66.000000	48.000000
0.320000	45.190000	13.700000	478.000000	0.000000	161.000000	57.000000	93.000000	44.000000
0.330000	46.290000	13.940000	499.000000	0.000000	161.000000	57.000000	110.000000	24.000000
0.340000	47.770000	14.060000	537.000000	0.000000	161.000000	57.000000	148.000000	12.000000
0.350000	49.280000	13.990000	570.000000	0.000000	161.000000	57.000000	151.000000	-7.000000
0.360000	50.870000	13.890000	586.000000	0.000000	161.000000	57.000000	159.000000	-10.000000
0.370000	52.850000	13.780000	624.000000	0.000000	161.000000	57.000000	198.000000	-11.000000
0.380000	55.090000	13.680000	642.000000	0.000000	163.000000	57.000000	224.000000	-10.000000
0.390000	57.320000	13.680000	646.000000	0.000000	164.000000	57.000000	223.000000	0.000000
0.400000	59.600000	13.680000	670.000000	0.000000	166.000000	57.000000	228.000000	0.000000
0.410000	61.670000	13.680000	684.000000	0.000000	166.000000	57.000000	207.000000	0.000000
0.420000	63.580000	13.840000	696.000000	0.000000	167.000000	57.000000	191.000000	16.000000
0.430000	65.090000	13.970000	703.000000	0.000000	169.000000	58.000000	151.000000	13.000000
0.440000	66.180000	14.080000	707.000000	0.000000	170.000000	58.000000	109.000000	11.000000
0.450000	66.980000	14.180000	702.000000	0.000000	172.000000	58.000000	80.000000	10.000000
0.460000	67.460000	14.250000	700.000000	0.000000	174.000000	58.000000	48.000000	7.000000
0.470000	67.630000	14.250000	697.000000	0.000000	174.000000	58.000000	17.000000	0.000000
0.480000	67.580000	14.250000	691.000000	0.000000	175.000000	58.000000	-5.000000	0.000000
0.490000	67.530000	14.250000	671.000000	0.000000	177.000000	58.000000	-5.000000	0.000000
0.500000	67.420000	14.250000	570.000000	0.000000	178.000000	58.000000	-11.000000	0.000000
0.510000	67.280000	14.250000	130.000000	0.000000	178.000000	58.000000	-14.000000	0.000000
0.520000	67.280000	14.250000	0.000000	1.000000	178.000000	58.000000	0.000000	0.000000
0.530000	66.960000	14.530000	0.000000	0.000000	178.000000	58.000000	-32.000000	28.000000
0.540000	66.770000	15.060000	0.000000	0.000000	178.000000	58.000000	-19.000000	53.000000
0.550000	66.650000	15.780000	0.000000	0.000000	178.000000	57.000000	-12.000000	72.000000
0.560000	66.600000	16.620000	0.000000	0.000000	179.000000	56.000000	-5.000000	84.000000
0.570000	66.600000	17.480000	0.000000	0.000000	179.000000	56.000000	0.000000	86.000000
0.580000	66.330000	18.290000	0.000000	0.000000	179.000000	55.000000	-27.000000	81.000000
0.590000	65.690000	19.080000	0.000000	0.000000	179.000000	55.000000	-64.000000	79.000000
0.600000	64.790000	19.870000	0.000000	0.000000	179.000000	55.000000	-90.000000	79.000000
0.610000	63.640000	20.570000	0.000000	0.000000	179.000000	54.000000	-115.000000	70.000000
0.620000	62.280000	21.290000	0.000000	0.000000	179.000000	54.000000	-136.000000	72.000000
0.630000	60.770000	22.560000	0.000000	0.000000	177.000000	54.000000	-151.000000	127.000000
0.640000	59.380000	24.180000	0.000000	0.000000	177.000000	54.000000	-139.000000	162.000000
0.650000	58.100000	26.560000	0.000000	0.000000	176.000000	54.000000	-128.000000	238.000000
0.660000	56.900000	28.900000	0.000000	0.000000	175.000000	54.000000	-120.000000	234.000000
0.670000	56.100000	30.920000	0.000000	0.000000	173.000000	54.000000	-80.000000	202.000000
0.680000	55.520000	32.750000	0.000000	0.000000	172.000000	54.000000	-58.000000	183.000000
0.690000	55.080000	35.710000	0.000000	0.000000	170.000000	54.000000	-44.000000	296.000000
0.700000	54.470000	38.620000	0.000000	0.000000	170.000000	54.000000	-61.000000	291.000000
0.710000	54.360000	39.560000	0.000000	0.000000	170.000000	54.000000	-11.000000	94.000000
0.720000	54.580000	39.210000	0.000000	0.000000	171.000000	53.000000	22.000000	-35.000000
0.730000	55.030000	38.770000	0.000000	0.000000	172.000000	50.000000	45.000000	-44.000000
0.740000	55.480000	37.900000	0.000000	0.000000	173.000000	45.000000	45.000000	-87.000000
0.750000	55.730000	36.750000	0.000000	0.000000	174.000000	40.000000	25.000000	-115.000000
0.760000	55.840000	35.070000	0.000000	0.000000	175.000000	36.000000	11.000000	-168.000000
0.770000	55.930000	33.330000	0.000000	0.000000	175.000000	34.000000	9.000000	-174.000000
0.780000	56.010000	31.730000	0.000000	0.000000	176.000000	32.000000	8.000000	-160.000000
0.790000	56.090000	30.250000	0.000000	0.000000	177.000000	30.000000	8.000000	-148.000000
0.800000	56.090000	28.540000	0.000000	0.000000	177.000000	30.000000	0.000000	-171.000000
0.810000	56.090000	26.820000	0.000000	0.000000	177.000000	30.000000	0.000000	-172.000000
0.820000	56.190000	25.310000	0.000000	0.000000	177.000000	30.000000	10.000000	-151.000000
0.830000	56.190000	23.950000	0.000000	0.000000	177.000000	33.000000	0.000000	-136.000000
0.840000	56.120000	22.000000	0.000000	0.000000	177.000000	37.000000	-7.000000	-195.000000
0.850000	55.920000	21.170000	0.000000	0.000000	177.000000	42.000000	-20.000000	-83.000000
0.860000	55.620000	21.080000	0.000000	0.000000	176.000000	45.000000	-30.000000	-9.000000
0.870000	55.200000	20.470000	0.000000	0.000000	175.000000	47.000000	-42.000000	-61.000000
0.880000	54.710000	20.010000	0.000000	0.000000	172.000000	49.000000	-49.000000	-46.000000
0.890000	54.610000	19.650000	0.000000	0.000000	171.000000	49.000000	-10.000000	-36.000000
0.900000	54.310000	19.450000	0.000000	0.000000	169.000000	50.000000	-30.000000	-20.000000
0.910000	53.880000	19.340000	0.000000	0.000000	167.000000	50.000000	-43.000000	-11.000000
0.920000	53.560000	19.290000	0.000000	0.000000	165.000000	51.000000	-32.000000	-5.000000
0.930000	53.240000	19.200000	0.000000	0.000000	161.000000	52.000000	-32.000000	-9.000000
0.940000	52.930000	19.060000	0.000000	0.000000	159.000000	53.000000	-31.000000	-14.000000
0.950000	52.640000	18.920000	0.000000	0.000000	157.000000	54.000000	-29.000000	-14.000000
0.960000	52.370000	18.790000	0.000000	0.000000	155.000000	54.000000	-27.000000	-13.000000
0.970000	52.130000	18.670000	0.000000	0.000000	153.000000	54.000000	-24.000000	-12.000000
0.980000	51.850000	18.530000	0.000000	0.000000	152.000000	54.000000	-28.000000	-14.000000
0.990000	51.540000	18.360000	0.000000	0.000000	152.000000	54.000000	-31.000000	-17.000000
1.000000	51.360000	18.130000	0.000000	0.000000	151.000000	54.000000	-18.000000	-23.000000
1.010000	51.200000	17.880000	0.000000	0.000000	150.000000	54.000000	-16.000000	-25.000000
1.020000	51.090000	17.570000	0.000000	0.000000	150.000000	54.000000	-11.000000	-31.000000
1.030000	51.090000	17.340000	0.000000	0.000000	151.000000	54.000000	0.000000	-23.000000
1.040000	51.090000	17.160000	0.000000	0.000000	151.000000	54.000000	0.000000	-18.000000
1.050000	51.140000	17.010000	0.000000	0.000000	152.000000	54.000000	5.000000	-15.000000
1.060000	51.250000	16.920000	0.000000	0.000000	153.000000	53.000000	11.000000	-9.000000
1.070000	51.450000	16.920000	0.000000	0.000000	154.000000	52.000000	20.000000	0.000000
1.080000	51.660000	16.840000	0.000000	0.000000	156.000000	51.000000	21.000000	-8.000000
1.090000	51.870000	16.840000	0.000000	0.000000	157.000000	51.000000	21.000000	0.000000
1.100000	52.100000	16.840000	0.000000	0.000000	157.000000	50.000000	23.000000	0.000000
1.110000	52.100000	16.840000	132.000000	1.000000	159.000000	49.000000	0.000000	0.000000
1.120000	52.740000	17.160000	211.000000	0.000000	159.000000	49.000000	64.000000	32.000000
1.130000	53.070000	17.410000	279.000000	0.000000	159.000000	50.000000	33.000000	25.000000
1.140000	53.400000	17.680000	301.000000	0.000000	159.000000	51.000000	33.000000	27.000000
1.150000	53.740000	17.970000	304.000000	0.000000	158.000000	52.000000	34.000000	29.000000
1.160000	53.910000	18.270000	315.000000	0.000000	158.000000	53.000000	17.000000	30.000000
1.170000	53.960000	18.440000	319.000000	0.000000	158.000000	53.000000	5.000000	17.000000
1.180000	53.860000	18.580000	334.000000	0.000000	158.000000	54.000000	-10.000000	14.000000
1.190000	53.670000	18.660000	348.000000	0.000000	158.000000	54.000000	-19.000000	8.000000
1.200000	53.430000	18.660000	398.000000	0.000000	158.000000	54.000000	-24.000000	0.000000
1.210000	52.970000	18.660000	422.000000	0.000000	158.000000	54.000000	-46.000000	0.000000
1.220000	52.390000	18.570000	491.000000	0.000000	158.000000	54.000000	-58.000000	-9.000000
1.230000	51.740000	18.360000	533.000000	0.000000	158.000000	54.000000	-65.000000	-21.000000
1.240000	51.200000	17.940000	577.000000	0.000000	157.000000	54.000000	-54.000000	-42.000000
1.250000	50.720000	17.380000	614.000000	0.000000	157.000000	54.000000	-48.000000	-56.000000
1.260000	50.430000	16.770000	636.000000	0.000000	156.000000	53.000000	-29.000000	-61.000000
1.270000	50.240000	16.180000	647.000000	0.000000	156.000000	53.000000	-19.000000	-59.000000
1.280000	50.330000	15.760000	675.000000	0.000000	156.000000	53.000000	9.000000	-42.000000
1.290000	50.600000	15.460000	705.000000	0.000000	154.000000	53.000000	27.000000	-30.000000
1.300000	50.990000	15.260000	740.000000	0.000000	154.000000	53.000000	39.000000	-20.000000
1.310000	51.690000	15.190000	760.000000	0.000000	153.000000	54.000000	70.000000	-7.000000
1.320000	52.400000	15.190000	765.000000	0.000000	153.000000	54.000000	71.000000	0.000000
1.330000	53.120000	15.310000	779.000000	0.000000	153.000000	54.000000	72.000000	12.000000
1.340000	53.600000	15.410000	777.000000	0.000000	154.000000	55.000000	48.000000	10.000000
1.350000	53.930000	15.510000	770.000000	0.000000	154.000000	55.000000	33.000000	10.000000
1.360000	54.120000	15.510000	757.000000	0.000000	154.000000	55.000000	19.000000	0.000000
1.370000	54.120000	15.510000	740.000000	0.000000	155.000000	55.000000	0.000000	0.000000
1.380000	54.120000	15.510000	693.000000	0.000000	155.000000	55.000000	0.000000	0.000000
1.390000	54.120000	15.510000	608.000000	0.000000	157.000000	56.000000	0.000000	0.000000
1.400000	54.120000	15.510000	379.000000	0.000000	157.000000	56.000000	0.000000	0.000000
1.410000	54.120000	15.510000	0.000000	1.000000	157.000000	56.000000	0.000000	0.000000
1.420000	54.120000	15.520000	0.000000	0.000000	158.000000	55.000000	0.000000	1.000000
1.430000	54.180000	15.680000	0.000000	0.000000	158.000000	55.000000	6.000000	16.000000
1.440000	54.260000	15.920000	0.000000	0.000000	158.000000	54.000000	8.000000	24.000000
1.450000	54.360000	16.080000	0.000000	0.000000	158.000000	54.000000	10.000000	16.000000
1.460000	54.600000	16.210000	0.000000	0.000000	159.000000	53.000000	24.000000	13.000000
1.470000	54.810000	16.260000	0.000000	0.000000	160.000000	52.000000	21.000000	5.000000
1.480000	55.000000	16.260000	0.000000	0.000000	158.000000	52.000000	19.000000	0.000000
1.490000	55.110000	16.150000	0.000000	0.000000	159.000000	51.000000	11.000000	-11.000000
1.500000	55.110000	16.050000	0.000000	0.000000	159.000000	51.000000	0.000000	-10.000000
1.510000	55.110000	15.910000	0.000000	0.000000	159.000000	51.000000	0.000000	-14.000000
1.520000	55.110000	15.910000	226.000000	1.000000	160.000000	51.000000	0.000000	0.000000
1.530000	55.110000	15.910000	329.000000	0.000000	160.000000	51.000000	0.000000	0.000000
1.540000	54.860000	15.790000	423.000000	0.000000	160.000000	52.000000	-25.000000	-12.000000
1.550000	54.860000	15.790000	518.000000	0.000000	160.000000	52.000000	0.000000	0.000000
1.560000	54.970000	15.880000	592.000000	0.000000	160.000000	53.000000	11.000000	9.000000
1.570000	55.130000	15.980000	638.000000	0.000000	160.000000	53.000000	16.000000	10.000000
1.580000	55.460000	16.120000	661.000000	0.000000	160.000000	54.000000	33.000000	14.000000
1.590000	55.890000	16.260000	667.000000	0.000000	160.000000	54.000000	43.000000	14.000000
1.600000	56.410000	16.450000	670.000000	0.000000	161.000000	55.000000	52.000000	19.000000
1.610000	56.940000	16.670000	655.000000	0.000000	161.000000	55.000000	53.000000	22.000000
1.620000	57.510000	16.920000	652.000000	0.000000	161.000000	55.000000	57.000000	25.000000
1.630000	58.080000	17.170000	636.000000	0.000000	161.000000	55.000000	57.000000	25.000000
1.640000	58.430000	17.410000	622.000000	0.000000	161.000000	55.000000	35.000000	24.000000
1.650000	58.630000	17.520000	616.000000	0.000000	161.000000	55.000000	20.000000	11.000000
1.660000	58.580000	17.520000	628.000000	0.000000	161.000000	55.000000	-5.000000	0.000000
1.670000	58.310000	17.520000	641.000000	0.000000	159.000000	55.000000	-27.000000	0.000000
1.680000	57.900000	17.300000	663.000000	0.000000	159.000000	55.000000	-41.000000	-22.000000
1.690000	57.330000	17.070000	716.000000	0.000000	159.000000	55.000000	-57.000000	-23.000000
1.700000	56.760000	16.730000	722.000000	0.000000	158.000000	55.000000	-57.000000	-34.000000
1.710000	56.180000	16.330000	750.000000	0.000000	158.000000	55.000000	-58.000000	-40.000000
1.720000	55.860000	16.030000	776.000000	0.000000	159.000000	55.000000	-32.000000	-30.000000
1.730000	55.730000	15.730000	794.000000	0.000000	160.000000	54.000000	-13.000000	-30.000000
1.740000	55.730000	15.490000	790.000000	0.000000	159.000000	55.000000	0.000000	-24.000000
1.750000	55.730000	15.310000	821.000000	0.000000	160.000000	55.000000	0.000000	-18.000000
1.760000	55.860000	15.110000	839.000000	0.000000	160.000000	55.000000	13.000000	-20.000000
1.770000	56.070000	14.910000	864.000000	0.000000	160.000000	56.000000	21.000000	-20.000000
1.780000	56.360000	14.800000	858.000000	0.000000	160.000000	56.000000	29.000000	-11.000000
1.790000	56.710000	14.800000	864.000000	0.000000	158.000000	56.000000	35.000000	0.000000
1.800000	57.160000	14.850000	864.000000	0.000000	159.000000	57.000000	45.000000	5.000000
1.810000	57.670000	14.950000	858.000000	0.000000	159.000000	57.000000	51.000000	10.000000
1.820000	58.020000	15.050000	853.000000	0.000000	159.000000	57.000000	35.000000	10.000000
1.830000	58.160000	15.100000	863.000000	0.000000	159.000000	57.000000	14.000000	5.000000
1.840000	58.160000	15.100000	855.000000	0.000000	157.000000	57.000000	0.000000	0.000000
1.850000	58.160000	15.100000	840.000000	0.000000	157.000000	57.000000	0.000000	0.000000
1.860000	58.160000	15.100000	826.000000	0.000000	156.000000	57.000000	0.000000	0.000000
1.870000	58.060000	15.100000	787.000000	0.000000	156.000000	57.000000	-10.000000	0.000000
1.880000	58.060000	15.100000	699.000000	0.000000	157.000000	56.000000	0.000000	0.000000
1.890000	58.060000	15.100000	533.000000	0.000000	155.000000	55.000000	0.000000	0.000000
1.900000	58.060000	15.150000	254.000000	0.000000	155.000000	55.000000	0.000000	5.000000
1.910000	58.060000	15.150000	0.000000	1.000000	155.000000	55.000000	0.000000	0.000000
1.920000	58.640000	15.460000	0.000000	0.000000	155.000000	55.000000	58.000000	31.000000
1.930000	59.330000	15.790000	0.000000	0.000000	156.000000	55.000000	69.000000	33.000000
1.940000	60.020000	16.090000	0.000000	0.000000	156.000000	55.000000	69.000000	30.000000
1.950000	60.720000	16.360000	0.000000	0.000000	157.000000	54.000000	70.000000	27.000000
1.960000	60.720000	16.360000	115.000000	1.000000	156.000000	53.000000	0.000000	0.000000
1.970000	61.870000	16.780000	195.000000	0.000000	156.000000	53.000000	115.000000	42.000000
1.980000	62.130000	16.980000	334.000000	0.000000	156.000000	53.000000	26.000000	20.000000
1.990000	62.180000	17.140000	489.000000	0.000000	158.000000	53.000000	5.000000	16.000000
2.000000	62.090000	17.250000	586.000000	0.000000	158.000000	53.000000	-9.000000	11.000000
2.010000	61.860000	17.250000	685.000000	0.000000	159.000000	53.000000	-23.000000	0.000000
2.020000	61.660000	17.310000	727.000000	0.000000	160.000000	54.000000	-20.000000	6.000000
2.030000	61.260000	17.310000	763.000000	0.000000	160.000000	54.000000	-40.000000	0.000000
2.040000	60.720000	17.150000	779.000000	0.000000	159.000000	55.000000	-54.000000	-16.000000
2.050000	60.300000	16.950000	796.000000	0.000000	159.000000	55.000000	-42.000000	-20.000000
2.060000	59.930000	16.700000	805.000000	0.000000	159.000000	55.000000	-37.000000	-25.000000
2.070000	59.770000	16.540000	809.000000	0.000000	158.000000	55.000000	-16.000000	-16.000000
2.080000	59.770000	16.380000	815.000000	0.000000	158.000000	55.000000	0.000000	-16.000000
2.090000	59.850000	16.210000	823.000000	0.000000	158.000000	54.000000	8.000000	-17.000000
2.100000	60.020000	16.040000	829.000000	0.000000	157.000000	54.000000	17.000000	-17.000000
2.110000	60.430000	15.820000	817.000000	0.000000	157.000000	54.000000	41.000000	-22.000000
2.120000	60.980000	15.690000	830.000000	0.000000	157.000000	54.000000	55.000000	-13.000000
2.130000	61.610000	15.620000	826.000000	0.000000	158.000000	54.000000	63.000000	-7.000000
2.140000	62.200000	15.560000	815.000000	0.000000	158.000000	54.000000	59.000000	-6.000000
2.150000	62.750000	15.490000	797.000000	0.000000	158.000000	55.000000	55.000000	-7.000000
2.160000	63.110000	15.370000	782.000000	0.000000	159.000000	55.000000	36.000000	-12.000000
2.170000	63.230000	15.230000	773.000000	0.000000	160.000000	55.000000	12.000000	-14.000000
2.180000	63.180000	15.050000	774.000000	0.000000	160.000000	55.000000	-5.000000	-18.000000
2.190000	63.000000	14.890000	777.000000	0.000000	160.000000	56.000000	-18.000000	-16.000000
2.200000	62.690000	14.730000	782.000000	0.000000	160.000000	56.000000	-31.000000	-16.000000
2.210000	62.280000	14.590000	794.000000	0.000000	160.000000	56.000000	-41.000000	-14.000000
