t	x	y	pressure	penup	azimuth	inclination	v_x	v_y
0.000000	17.490000	16.910000	71.000000	1.000000	166.000000	42.000000	0.000000	0.000000
0.010000	17.490000	16.910000	158.000000	0.000000	164.000000	44.000000	0.000000	0.000000
0.020000	17.830000	17.150000	223.000000	0.000000	163.000000	46.000000	34.000000	24.000000
0.030000	17.940000	17.100000	270.000000	0.000000	163.000000	48.000000	11.000000	-5.000000
0.040000	18.030000	16.940000	322.000000	0.000000	162.000000	49.000000	9.000000	-16.000000
0.050000	18.110000	16.740000	399.000000	0.000000	162.000000	49.000000	8.000000	-20.000000
0.060000	18.210000	16.430000	445.000000	0.000000	163.000000	49.000000	10.000000	-31.000000
0.070000	18.330000	16.040000	489.000000	0.000000	163.000000	49.000000	12.000000	-39.000000
0.080000	18.470000	15.610000	536.000000	0.000000	165.000000	49.000000	14.000000	-43.000000
0.090000	18.640000	15.130000	569.000000	0.000000	165.000000	48.000000	17.000000	-48.000000
0.100000	18.820000	14.510000	592.000000	0.000000	166.000000	47.000000	18.000000	-62.000000
0.110000	18.960000	13.830000	608.000000	0.000000	167.000000	46.000000	14.000000	-68.000000
0.120000	19.090000	13.080000	616.000000	0.000000	167.000000	46.000000	13.000000	-75.000000
0.130000	19.200000	12.420000	619.000000	0.000000	167.000000	47.000000	11.000000	-66.000000
0.140000	19.320000	11.820000	628.000000	0.000000	167.000000	48.000000	12.000000	-60.000000
0.150000	19.460000	11.390000	647.000000	0.000000	167.000000	49.000000	14.000000	-43.000000
0.160000	19.460000	11.090000	646.000000	0.000000	168.000000	50.000000	0.000000	-30.000000
0.170000	19.460000	10.870000	662.000000	0.000000	168.000000	50.000000	0.000000	-22.000000
0.180000	19.320000	10.670000	664.000000	0.000000	167.000000	51.000000	-14.000000	-20.000000
0.190000	19.010000	10.520000	663.000000	0.000000	167.000000	51.000000	-31.000000	-15.000000
0.200000	18.580000	10.400000	673.000000	0.000000	167.000000	51.000000	-43.000000	-12.000000
0.210000	17.950000	10.300000	667.000000	0.000000	167.000000	51.000000	-63.000000	-10.000000
0.220000	17.160000	10.300000	681.000000	0.000000	167.000000	51.000000	-79.000000	0.000000
0.230000	16.250000	10.300000	676.000000	0.000000	169.000000	51.000000	-91.000000	0.000000
0.240000	15.320000	10.370000	675.000000	0.000000	171.000000	51.000000	-93.000000	7.000000
0.250000	14.440000	10.540000	665.000000	0.000000	174.000000	51.000000	-88.000000	17.000000
0.260000	13.670000	10.760000	649.000000	0.000000	176.000000	50.000000	-77.000000	22.000000
0.270000	13.080000	11.100000	627.000000	0.000000	180.000000	50.000000	-59.000000	34.000000
0.280000	12.600000	11.450000	617.000000	0.000000	181.000000	49.000000	-48.000000	35.000000
0.290000	12.300000	11.810000	614.000000	0.000000	184.000000	48.000000	-30.000000	36.000000
0.300000	12.180000	12.070000	585.000000	0.000000	186.000000	48.000000	-12.000000	26.000000
0.310000	12.180000	12.320000	561.000000	0.000000	187.000000	48.000000	0.000000	25.000000
0.320000	12.310000	12.550000	539.000000	0.000000	188.000000	47.000000	13.000000	23.000000
0.330000	12.640000	12.820000	527.000000	0.000000	186.000000	47.000000	33.000000	27.000000
0.340000	13.090000	13.020000	535.000000	0.000000	186.000000	47.000000	45.000000	20.000000
0.350000	13.800000	13.170000	532.000000	0.000000	186.000000	47.000000	71.000000	15.000000
0.360000	14.880000	13.290000	529.000000	0.000000	185.000000	47.000000	108.000000	12.000000
0.370000	16.200000	13.400000	544.000000	0.000000	184.000000	47.000000	132.000000	11.000000
0.380000	17.880000	13.530000	564.000000	0.000000	183.000000	48.000000	168.000000	13.000000
0.390000	19.830000	13.730000	591.000000	0.000000	181.000000	48.000000	195.000000	20.000000
0.400000	21.970000	13.980000	638.000000	0.000000	180.000000	49.000000	214.000000	25.000000
0.410000	24.110000	14.160000	675.000000	0.000000	179.000000	50.000000	214.000000	18.000000
0.420000	26.010000	14.410000	697.000000	0.000000	178.000000	50.000000	190.000000	25.000000
0.430000	27.760000	14.530000	731.000000	0.000000	176.000000	51.000000	175.000000	12.000000
0.440000	28.950000	14.530000	728.000000	0.000000	175.000000	52.000000	119.000000	0.000000
0.450000	29.860000	14.590000	734.000000	0.000000	173.000000	53.000000	91.000000	6.000000
0.460000	30.570000	14.590000	736.000000	0.000000	172.000000	54.000000	71.000000	0.000000
0.470000	30.930000	14.590000	737.000000	0.000000	171.000000	55.000000	36.000000	0.000000
0.480000	31.080000	14.590000	727.000000	0.000000	171.000000	55.000000	15.000000	0.000000
0.490000	31.080000	14.590000	717.000000	0.000000	171.000000	56.000000	0.000000	0.000000
0.500000	31.080000	14.650000	667.000000	0.000000	171.000000	56.000000	0.000000	6.000000
0.510000	31.080000	14.750000	545.000000	0.000000	171.000000	56.000000	0.000000	10.000000
0.520000	31.030000	14.910000	282.000000	0.000000	170.000000	56.000000	-5.000000	16.000000
0.530000	31.030000	14.910000	0.000000	1.000000	170.000000	56.000000	0.000000	0.000000
0.540000	30.810000	14.910000	0.000000	0.000000	170.000000	56.000000	-22.000000	0.000000
0.550000	30.670000	15.110000	0.000000	0.000000	170.000000	56.000000	-14.000000	20.000000
0.560000	30.510000	15.380000	0.000000	0.000000	170.000000	55.000000	-16.000000	27.000000
0.570000	30.510000	15.650000	0.000000	0.000000	170.000000	55.000000	0.000000	27.000000
0.580000	30.510000	15.920000	0.000000	0.000000	169.000000	53.000000	0.000000	27.000000
0.590000	30.350000	16.180000	0.000000	0.000000	168.000000	52.000000	-16.000000	26.000000
0.600000	30.020000	16.470000	0.000000	0.000000	167.000000	51.000000	-33.000000	29.000000
0.610000	29.380000	16.720000	0.000000	0.000000	167.000000	50.000000	-64.000000	25.000000
0.620000	28.520000	16.870000	0.000000	0.000000	166.000000	49.000000	-86.000000	15.000000
0.630000	27.530000	16.970000	0.000000	0.000000	164.000000	48.000000	-99.000000	10.000000
0.640000	26.460000	16.970000	0.000000	0.000000	163.000000	48.000000	-107.000000	0.000000
0.650000	25.340000	17.020000	0.000000	0.000000	163.000000	47.000000	-112.000000	5.000000
0.660000	24.590000	17.020000	0.000000	0.000000	163.000000	46.000000	-75.000000	0.000000
0.670000	23.870000	16.940000	0.000000	0.000000	164.000000	46.000000	-72.000000	-8.000000
0.680000	23.190000	16.870000	0.000000	0.000000	164.000000	45.000000	-68.000000	-7.000000
0.690000	22.280000	16.810000	0.000000	0.000000	164.000000	45.000000	-91.000000	-6.000000
0.700000	21.210000	16.810000	0.000000	0.000000	166.000000	45.000000	-107.000000	0.000000
0.710000	20.260000	16.880000	0.000000	0.000000	166.000000	44.000000	-95.000000	7.000000
0.720000	19.350000	17.090000	0.000000	0.000000	166.000000	45.000000	-91.000000	21.000000
0.730000	18.490000	17.380000	0.000000	0.000000	164.000000	46.000000	-86.000000	29.000000
0.740000	17.700000	17.650000	0.000000	0.000000	162.000000	48.000000	-79.000000	27.000000
0.750000	16.960000	17.750000	0.000000	0.000000	159.000000	49.000000	-74.000000	10.000000
0.760000	16.140000	17.750000	0.000000	0.000000	158.000000	51.000000	-82.000000	0.000000
0.770000	15.660000	17.490000	0.000000	0.000000	158.000000	53.000000	-48.000000	-26.000000
0.780000	15.410000	17.360000	0.000000	0.000000	159.000000	55.000000	-25.000000	-13.000000
0.790000	15.480000	17.300000	0.000000	0.000000	161.000000	57.000000	7.000000	-6.000000
0.800000	15.700000	17.300000	0.000000	0.000000	165.000000	59.000000	22.000000	0.000000
0.810000	16.010000	17.300000	0.000000	0.000000	168.000000	60.000000	31.000000	0.000000
0.820000	16.250000	17.360000	0.000000	0.000000	171.000000	61.000000	24.000000	6.000000
0.830000	16.450000	17.360000	0.000000	0.000000	173.000000	61.000000	20.000000	0.000000
0.840000	16.620000	17.240000	0.000000	0.000000	171.000000	60.000000	17.000000	-12.000000
0.850000	16.760000	17.070000	0.000000	0.000000	170.000000	59.000000	14.000000	-17.000000
0.860000	16.910000	16.920000	0.000000	0.000000	166.000000	57.000000	15.000000	-15.000000
0.870000	17.060000	16.790000	0.000000	0.000000	164.000000	55.000000	15.000000	-13.000000
0.880000	17.210000	16.720000	0.000000	0.000000	164.000000	53.000000	15.000000	-7.000000
0.890000	17.420000	16.720000	0.000000	0.000000	162.000000	51.000000	21.000000	0.000000
0.900000	17.620000	16.720000	0.000000	0.000000	163.000000	48.000000	20.000000	0.000000
0.910000	17.800000	16.720000	0.000000	0.000000	164.000000	46.000000	18.000000	0.000000
0.920000	17.960000	16.720000	0.000000	0.000000	164.000000	45.000000	16.000000	0.000000
0.930000	18.140000	16.720000	0.000000	0.000000	166.000000	44.000000	18.000000	0.000000
0.940000	18.330000	16.720000	0.000000	0.000000	166.000000	43.000000	19.000000	0.000000
0.950000	18.330000	16.720000	161.000000	1.000000	166.000000	43.000000	0.000000	0.000000
0.960000	18.610000	16.670000	218.000000	0.000000	166.000000	43.000000	28.000000	-5.000000
0.970000	18.610000	16.740000	306.000000	0.000000	165.000000	43.000000	0.000000	7.000000
0.980000	18.660000	16.800000	391.000000	0.000000	165.000000	44.000000	5.000000	6.000000
0.990000	18.660000	16.920000	474.000000	0.000000	164.000000	45.000000	0.000000	12.000000
1.000000	18.660000	17.090000	546.000000	0.000000	163.000000	46.000000	0.000000	17.000000
1.010000	18.600000	17.220000	602.000000	0.000000	162.000000	48.000000	-6.000000	13.000000
1.020000	18.520000	17.350000	617.000000	0.000000	161.000000	49.000000	-8.000000	13.000000
1.030000	18.430000	17.500000	647.000000	0.000000	160.000000	51.000000	-9.000000	15.000000
1.040000	18.310000	17.650000	663.000000	0.000000	159.000000	53.000000	-12.000000	15.000000
1.050000	18.160000	17.780000	672.000000	0.000000	158.000000	54.000000	-15.000000	13.000000
1.060000	17.910000	17.780000	681.000000	0.000000	157.000000	56.000000	-25.000000	0.000000
1.070000	17.550000	17.580000	688.000000	0.000000	156.000000	57.000000	-36.000000	-20.000000
1.080000	17.110000	17.270000	699.000000	0.000000	156.000000	57.000000	-44.000000	-31.000000
1.090000	16.730000	16.770000	702.000000	0.000000	157.000000	56.000000	-38.000000	-50.000000
1.100000	16.400000	16.310000	699.000000	0.000000	160.000000	54.000000	-33.000000	-46.000000
1.110000	16.250000	15.890000	708.000000	0.000000	162.000000	53.000000	-15.000000	-42.000000
1.120000	16.250000	15.500000	716.000000	0.000000	166.000000	51.000000	0.000000	-39.000000
1.130000	16.320000	15.140000	733.000000	0.000000	169.000000	50.000000	7.000000	-36.000000
1.140000	16.470000	14.810000	736.000000	0.000000	169.000000	50.000000	15.000000	-33.000000
1.150000	16.900000	14.640000	758.000000	0.000000	170.000000	49.000000	43.000000	-17.000000
1.160000	17.490000	14.590000	759.000000	0.000000	170.000000	48.000000	59.000000	-5.000000
1.170000	18.030000	14.590000	780.000000	0.000000	169.000000	47.000000	54.000000	0.000000
1.180000	18.570000	14.760000	799.000000	0.000000	167.000000	48.000000	54.000000	17.000000
1.190000	19.020000	14.900000	811.000000	0.000000	165.000000	48.000000	45.000000	14.000000
1.200000	19.410000	15.030000	815.000000	0.000000	162.000000	49.000000	39.000000	13.000000
1.210000	19.620000	15.090000	814.000000	0.000000	161.000000	48.000000	21.000000	6.000000
1.220000	19.690000	15.090000	808.000000	0.000000	161.000000	48.000000	7.000000	0.000000
1.230000	19.690000	15.090000	799.000000	0.000000	161.000000	48.000000	0.000000	0.000000
1.240000	19.690000	15.090000	787.000000	0.000000	161.000000	48.000000	0.000000	0.000000
1.250000	19.690000	15.150000	721.000000	0.000000	162.000000	49.000000	0.000000	6.000000
1.260000	19.690000	15.150000	603.000000	0.000000	162.000000	49.000000	0.000000	0.000000
1.270000	19.690000	15.150000	312.000000	0.000000	162.000000	49.000000	0.000000	0.000000
1.280000	19.690000	15.150000	0.000000	1.000000	162.000000	49.000000	0.000000	0.000000
1.290000	19.830000	15.280000	0.000000	0.000000	162.000000	49.000000	14.000000	13.000000
1.300000	20.020000	15.360000	0.000000	0.000000	162.000000	49.000000	19.000000	8.000000
1.310000	20.250000	15.480000	0.000000	0.000000	162.000000	49.000000	23.000000	12.000000
1.320000	20.540000	15.630000	0.000000	0.000000	162.000000	49.000000	29.000000	15.000000
1.330000	20.900000	15.850000	0.000000	0.000000	162.000000	49.000000	36.000000	22.000000
1.340000	21.290000	15.980000	0.000000	0.000000	163.000000	48.000000	39.000000	13.000000
1.350000	21.500000	16.040000	0.000000	0.000000	163.000000	48.000000	21.000000	6.000000
1.360000	21.590000	16.040000	0.000000	0.000000	163.000000	48.000000	9.000000	0.000000
1.370000	21.510000	16.130000	0.000000	0.000000	162.000000	48.000000	-8.000000	9.000000
1.380000	21.360000	16.130000	0.000000	0.000000	162.000000	48.000000	-15.000000	0.000000
1.390000	21.150000	16.130000	0.000000	0.000000	162.000000	48.000000	-21.000000	0.000000
1.400000	20.890000	16.130000	0.000000	0.000000	162.000000	48.000000	-26.000000	0.000000
1.410000	20.630000	16.000000	0.000000	0.000000	162.000000	48.000000	-26.000000	-13.000000
1.420000	20.380000	15.890000	0.000000	0.000000	162.000000	48.000000	-25.000000	-11.000000
1.430000	20.150000	15.820000	0.000000	0.000000	162.000000	48.000000	-23.000000	-7.000000
1.440000	20.150000	15.820000	175.000000	1.000000	163.000000	48.000000	0.000000	0.000000
1.450000	20.150000	15.820000	218.000000	0.000000	163.000000	48.000000	0.000000	0.000000
1.460000	20.150000	15.820000	314.000000	0.000000	163.000000	48.000000	0.000000	0.000000
1.470000	20.150000	15.820000	399.000000	0.000000	163.000000	48.000000	0.000000	0.000000
1.480000	20.150000	15.820000	489.000000	0.000000	163.000000	48.000000	0.000000	0.000000
1.490000	20.480000	15.990000	567.000000	0.000000	162.000000	49.000000	33.000000	17.000000
1.500000	20.760000	15.990000	630.000000	0.000000	162.000000	49.000000	28.000000	0.000000
1.510000	20.960000	16.040000	661.000000	0.000000	162.000000	49.000000	20.000000	5.000000
1.520000	21.180000	16.110000	664.000000	0.000000	163.000000	49.000000	22.000000	7.000000
1.530000	21.440000	16.220000	676.000000	0.000000	163.000000	49.000000	26.000000	11.000000
1.540000	21.720000	16.350000	682.000000	0.000000	163.000000	49.000000	28.000000	13.000000
1.550000	21.960000	16.460000	684.000000	0.000000	163.000000	49.000000	24.000000	11.000000
1.560000	22.010000	16.520000	684.000000	0.000000	165.000000	49.000000	5.000000	6.000000
1.570000	21.960000	16.580000	678.000000	0.000000	165.000000	49.000000	-5.000000	6.000000
1.580000	21.890000	16.580000	681.000000	0.000000	165.000000	49.000000	-7.000000	0.000000
1.590000	21.750000	16.680000	681.000000	0.000000	165.000000	49.000000	-14.000000	10.000000
1.600000	21.550000	16.680000	691.000000	0.000000	165.000000	49.000000	-20.000000	0.000000
1.610000	21.150000	16.680000	694.000000	0.000000	165.000000	49.000000	-40.000000	0.000000
1.620000	20.670000	16.520000	700.000000	0.000000	165.000000	49.000000	-48.000000	-16.000000
1.630000	20.140000	16.290000	727.000000	0.000000	165.000000	49.000000	-53.000000	-23.000000
1.640000	19.780000	15.990000	728.000000	0.000000	163.000000	49.000000	-36.000000	-30.000000
1.650000	19.420000	15.680000	754.000000	0.000000	163.000000	49.000000	-36.000000	-31.000000
1.660000	19.310000	15.370000	768.000000	0.000000	163.000000	49.000000	-11.000000	-31.000000
1.670000	19.310000	15.160000	779.000000	0.000000	162.000000	50.000000	0.000000	-21.000000
1.680000	19.480000	15.010000	793.000000	0.000000	162.000000	50.000000	17.000000	-15.000000
1.690000	19.650000	14.890000	800.000000	0.000000	162.000000	50.000000	17.000000	-12.000000
1.700000	20.000000	14.770000	826.000000	0.000000	160.000000	50.000000	35.000000	-12.000000
1.710000	20.460000	14.770000	825.000000	0.000000	160.000000	50.000000	46.000000	0.000000
1.720000	20.810000	14.770000	842.000000	0.000000	160.000000	51.000000	35.000000	0.000000
1.730000	21.160000	14.880000	846.000000	0.000000	160.000000	51.000000	35.000000	11.000000
1.740000	21.500000	14.950000	852.000000	0.000000	160.000000	51.000000	34.000000	7.000000
1.750000	21.640000	14.950000	852.000000	0.000000	161.000000	52.000000	14.000000	0.000000
1.760000	21.640000	15.000000	854.000000	0.000000	161.000000	52.000000	0.000000	5.000000
1.770000	21.690000	15.000000	855.000000	0.000000	162.000000	53.000000	5.000000	0.000000
1.780000	21.690000	15.000000	855.000000	0.000000	162.000000	53.000000	0.000000	0.000000
1.790000	21.690000	15.000000	851.000000	0.000000	162.000000	53.000000	0.000000	0.000000
1.800000	21.690000	15.000000	839.000000	0.000000	162.000000	53.000000	0.000000	0.000000
1.810000	21.690000	15.000000	821.000000	0.000000	162.000000	53.000000	0.000000	0.000000
1.820000	21.690000	15.000000	794.000000	0.000000	162.000000	53.000000	0.000000	0.000000
1.830000	21.690000	15.000000	691.000000	0.000000	162.000000	53.000000	0.000000	0.000000
1.840000	21.690000	15.000000	520.000000	0.000000	162.000000	53.000000	0.000000	0.000000
1.850000	21.690000	15.000000	254.000000	0.000000	162.000000	53.000000	0.000000	0.000000
1.860000	21.690000	15.000000	0.000000	1.000000	162.000000	53.000000	0.000000	0.000000
1.870000	22.050000	15.270000	0.000000	0.000000	162.000000	53.000000	36.000000	27.000000
1.880000	22.440000	15.520000	0.000000	0.000000	163.000000	52.000000	39.000000	25.000000
1.890000	22.930000	15.750000	0.000000	0.000000	163.000000	52.000000	49.000000	23.000000
1.900000	23.390000	15.980000	0.000000	0.000000	165.000000	51.000000	46.000000	23.000000
1.910000	23.840000	16.080000	0.000000	0.000000	165.000000	51.000000	45.000000	10.000000
1.920000	23.840000	16.080000	48.000000	1.000000	165.000000	51.000000	0.000000	0.000000
1.930000	24.380000	16.300000	161.000000	0.000000	167.000000	50.000000	54.000000	22.000000
1.940000	24.490000	16.410000	284.000000	0.000000	167.000000	50.000000	11.000000	11.000000
1.950000	24.490000	16.540000	428.000000	0.000000	167.000000	50.000000	0.000000	13.000000
1.960000	24.490000	16.680000	491.000000	0.000000	167.000000	50.000000	0.000000	14.000000
1.970000	24.380000	16.820000	599.000000	0.000000	166.000000	51.000000	-11.000000	14.000000
1.980000	24.270000	16.930000	641.000000	0.000000	166.000000	51.000000	-11.000000	11.000000
1.990000	24.070000	16.930000	670.000000	0.000000	166.000000	51.000000	-20.000000	0.000000
2.000000	23.810000	16.990000	702.000000	0.000000	166.000000	52.000000	-26.000000	6.000000
2.010000	23.450000	16.850000	724.000000	0.000000	166.000000	52.000000	-36.000000	-14.000000
2.020000	23.090000	16.680000	760.000000	0.000000	166.000000	52.000000	-36.000000	-17.000000
2.030000	22.720000	16.420000	768.000000	0.000000	166.000000	52.000000	-37.000000	-26.000000
2.040000	22.560000	16.180000	780.000000	0.000000	166.000000	52.000000	-16.000000	-24.000000
2.050000	22.410000	15.960000	785.000000	0.000000	166.000000	52.000000	-15.000000	-22.000000
2.060000	22.410000	15.840000	796.000000	0.000000	166.000000	52.000000	0.000000	-12.000000
2.070000	22.590000	15.700000	805.000000	0.000000	166.000000	51.000000	18.000000	-14.000000
2.080000	22.840000	15.570000	812.000000	0.000000	166.000000	51.000000	25.000000	-13.000000
2.090000	23.140000	15.450000	826.000000	0.000000	166.000000	51.000000	30.000000	-12.000000
2.100000	23.540000	15.450000	832.000000	0.000000	166.000000	51.000000	40.000000	0.000000
2.110000	23.980000	15.450000	822.000000	0.000000	166.000000	52.000000	44.000000	0.000000
2.120000	24.300000	15.510000	827.000000	0.000000	166.000000	52.000000	32.000000	6.000000
2.130000	24.550000	15.510000	827.000000	0.000000	166.000000	52.000000	25.000000	0.000000
2.140000	24.730000	15.510000	827.000000	0.000000	166.000000	53.000000	18.000000	0.000000
2.150000	24.830000	15.440000	817.000000	0.000000	166.000000	53.000000	10.000000	-7.000000
2.160000	24.880000	15.440000	826.000000	0.000000	166.000000	53.000000	5.000000	0.000000
2.170000	24.880000	15.370000	827.000000	0.000000	166.000000	53.000000	0.000000	-7.000000
2.180000	24.800000	15.370000	818.000000	0.000000	166.000000	53.000000	-8.000000	0.000000
2.190000	24.630000	15.190000	819.000000	0.000000	166.000000	53.000000	-17.000000	-18.000000
2.200000	24.370000	15.040000	819.000000	0.000000	166.000000	53.000000	-26.000000	-15.000000
2.210000	24.020000	14.870000	821.000000	0.000000	166.000000	54.000000	-35.000000	-17.000000
2.220000	23.630000	14.750000	824.000000	0.000000	166.000000	54.000000	-39.000000	-12.000000
