t	x	y	pressure	penup	azimuth	inclination	v_x	v_y
0.000000	54.300000	86.860000	108.000000	1.000000	168.000000	50.000000	0.000000	0.000000
0.010000	54.670000	86.940000	195.000000	0.000000	167.000000	51.000000	37.000000	8.000000
0.020000	54.670000	86.990000	239.000000	0.000000	167.000000	51.000000	0.000000	5.000000
0.030000	54.600000	86.990000	314.000000	0.000000	167.000000	52.000000	-7.000000	0.000000
0.040000	54.650000	86.930000	387.000000	0.000000	167.000000	52.000000	5.000000	-6.000000
0.050000	54.650000	86.820000	440.000000	0.000000	167.000000	52.000000	0.000000	-11.000000
0.060000	54.740000	86.660000	477.000000	0.000000	167.000000	52.000000	9.000000	-16.000000
0.070000	54.860000	86.430000	505.000000	0.000000	168.000000	52.000000	12.000000	-23.000000
0.080000	55.070000	86.130000	541.000000	0.000000	168.000000	52.000000	21.000000	-30.000000
0.090000	55.270000	85.670000	570.000000	0.000000	168.000000	52.000000	20.000000	-46.000000
0.100000	55.450000	85.110000	586.000000	0.000000	169.000000	53.000000	18.000000	-56.000000
0.110000	55.660000	84.460000	588.000000	0.000000	170.000000	52.000000	21.000000	-65.000000
0.120000	55.770000	83.800000	597.000000	0.000000	171.000000	52.000000	11.000000	-66.000000
0.130000	55.820000	83.110000	605.000000	0.000000	171.000000	52.000000	5.000000	-69.000000
0.140000	55.820000	82.360000	616.000000	0.000000	173.000000	51.000000	0.000000	-75.000000
0.150000	55.820000	81.600000	613.000000	0.000000	173.000000	51.000000	0.000000	-76.000000
0.160000	55.820000	80.860000	610.000000	0.000000	173.000000	51.000000	0.000000	-74.000000
0.170000	55.820000	80.150000	611.000000	0.000000	173.000000	51.000000	0.000000	-71.000000
0.180000	55.750000	79.620000	619.000000	0.000000	173.000000	51.000000	-7.000000	-53.000000
0.190000	55.610000	79.220000	610.000000	0.000000	173.000000	51.000000	-14.000000	-40.000000
0.200000	55.430000	78.920000	610.000000	0.000000	173.000000	51.000000	-18.000000	-30.000000
0.210000	55.060000	78.750000	611.000000	0.000000	173.000000	51.000000	-37.000000	-17.000000
0.220000	54.550000	78.660000	614.000000	0.000000	173.000000	51.000000	-51.000000	-9.000000
0.230000	53.820000	78.660000	605.000000	0.000000	173.000000	51.000000	-73.000000	0.000000
0.240000	52.790000	78.800000	613.000000	0.000000	171.000000	51.000000	-103.000000	14.000000
0.250000	51.570000	79.000000	605.000000	0.000000	171.000000	51.000000	-122.000000	20.000000
0.260000	50.280000	79.230000	589.000000	0.000000	171.000000	51.000000	-129.000000	23.000000
0.270000	49.050000	79.430000	586.000000	0.000000	172.000000	50.000000	-123.000000	20.000000
0.280000	47.850000	79.570000	572.000000	0.000000	172.000000	50.000000	-120.000000	14.000000
0.290000	46.980000	79.810000	575.000000	0.000000	172.000000	50.000000	-87.000000	24.000000
0.300000	46.540000	80.130000	577.000000	0.000000	170.000000	50.000000	-44.000000	32.000000
0.310000	46.380000	80.390000	569.000000	0.000000	170.000000	51.000000	-16.000000	26.000000
0.320000	46.380000	80.640000	564.000000	0.000000	169.000000	50.000000	0.000000	25.000000
0.330000	46.680000	80.860000	554.000000	0.000000	169.000000	51.000000	30.000000	22.000000
0.340000	47.190000	81.040000	553.000000	0.000000	167.000000	51.000000	51.000000	18.000000
0.350000	48.140000	81.170000	546.000000	0.000000	167.000000	52.000000	95.000000	13.000000
0.360000	49.470000	81.280000	564.000000	0.000000	166.000000	52.000000	133.000000	11.000000
0.370000	51.040000	81.400000	581.000000	0.000000	166.000000	53.000000	157.000000	12.000000
0.380000	53.070000	81.500000	614.000000	0.000000	166.000000	53.000000	203.000000	10.000000
0.390000	55.310000	81.570000	639.000000	0.000000	167.000000	52.000000	224.000000	7.000000
0.400000	57.680000	81.570000	671.000000	0.000000	168.000000	52.000000	237.000000	0.000000
0.410000	60.050000	81.620000	694.000000	0.000000	169.000000	53.000000	237.000000	5.000000
0.420000	62.270000	81.620000	731.000000	0.000000	171.000000	53.000000	222.000000	0.000000
0.430000	64.380000	81.620000	780.000000	0.000000	172.000000	53.000000	211.000000	0.000000
0.440000	66.190000	81.620000	797.000000	0.000000	174.000000	52.000000	181.000000	0.000000
0.450000	67.710000	81.620000	799.000000	0.000000	175.000000	52.000000	152.000000	0.000000
0.460000	69.030000	81.620000	808.000000	0.000000	176.000000	52.000000	132.000000	0.000000
0.470000	69.850000	81.620000	806.000000	0.000000	177.000000	52.000000	82.000000	0.000000
0.480000	70.310000	81.620000	811.000000	0.000000	179.000000	52.000000	46.000000	0.000000
0.490000	70.520000	81.620000	787.000000	0.000000	179.000000	53.000000	21.000000	0.000000
0.500000	70.520000	81.620000	751.000000	0.000000	180.000000	53.000000	0.000000	0.000000
0.510000	70.520000	81.620000	670.000000	0.000000	180.000000	53.000000	0.000000	0.000000
0.520000	70.520000	81.620000	241.000000	0.000000	180.000000	53.000000	0.000000	0.000000
0.530000	70.520000	81.620000	0.000000	1.000000	180.000000	53.000000	0.000000	0.000000
0.540000	69.950000	81.760000	0.000000	0.000000	180.000000	53.000000	-57.000000	14.000000
0.550000	69.370000	82.250000	0.000000	0.000000	180.000000	54.000000	-58.000000	49.000000
0.560000	68.860000	82.990000	0.000000	0.000000	180.000000	54.000000	-51.000000	74.000000
0.570000	68.410000	83.970000	0.000000	0.000000	180.000000	54.000000	-45.000000	98.000000
0.580000	67.750000	85.140000	0.000000	0.000000	180.000000	54.000000	-66.000000	117.000000
0.590000	66.930000	86.440000	0.000000	0.000000	180.000000	54.000000	-82.000000	130.000000
0.600000	65.720000	88.220000	0.000000	0.000000	180.000000	54.000000	-121.000000	178.000000
0.610000	64.330000	89.930000	0.000000	0.000000	180.000000	54.000000	-139.000000	171.000000
0.620000	62.830000	91.600000	0.000000	0.000000	180.000000	54.000000	-150.000000	167.000000
0.630000	59.210000	94.150000	0.000000	0.000000	180.000000	54.000000	-362.000000	255.000000
0.640000	59.210000	94.150000	0.000000	0.000000	180.000000	54.000000	0.000000	0.000000
0.650000	55.040000	92.540000	0.000000	0.000000	179.000000	55.000000	-417.000000	-161.000000
0.660000	55.040000	92.540000	0.000000	0.000000	176.000000	56.000000	0.000000	0.000000
0.670000	54.810000	91.250000	0.000000	0.000000	172.000000	57.000000	-23.000000	-129.000000
0.680000	54.430000	89.090000	0.000000	0.000000	169.000000	58.000000	-38.000000	-216.000000
0.690000	54.490000	87.300000	0.000000	0.000000	169.000000	58.000000	6.000000	-179.000000
0.700000	54.560000	86.270000	0.000000	0.000000	169.000000	58.000000	7.000000	-103.000000
0.710000	54.650000	85.750000	0.000000	0.000000	169.000000	58.000000	9.000000	-52.000000
0.720000	54.750000	85.240000	0.000000	0.000000	168.000000	56.000000	10.000000	-51.000000
0.730000	54.990000	84.790000	0.000000	0.000000	168.000000	55.000000	24.000000	-45.000000
0.740000	55.060000	84.370000	0.000000	0.000000	167.000000	54.000000	7.000000	-42.000000
0.750000	55.010000	84.100000	0.000000	0.000000	166.000000	53.000000	-5.000000	-27.000000
0.760000	55.240000	84.030000	0.000000	0.000000	166.000000	52.000000	23.000000	-7.000000
0.770000	55.410000	84.090000	0.000000	0.000000	165.000000	51.000000	17.000000	6.000000
0.780000	55.530000	83.690000	0.000000	0.000000	164.000000	50.000000	12.000000	-40.000000
0.790000	55.350000	84.040000	0.000000	0.000000	164.000000	50.000000	-18.000000	35.000000
0.800000	55.180000	84.880000	0.000000	0.000000	163.000000	50.000000	-17.000000	84.000000
0.810000	55.030000	85.140000	0.000000	0.000000	163.000000	50.000000	-15.000000	26.000000
0.820000	54.800000	85.360000	0.000000	0.000000	163.000000	50.000000	-23.000000	22.000000
0.830000	54.510000	85.510000	0.000000	0.000000	162.000000	50.000000	-29.000000	15.000000
0.840000	54.270000	85.580000	0.000000	0.000000	162.000000	50.000000	-24.000000	7.000000
0.850000	54.090000	85.580000	0.000000	0.000000	161.000000	49.000000	-18.000000	0.000000
0.860000	53.940000	85.500000	0.000000	0.000000	161.000000	49.000000	-15.000000	-8.000000
0.870000	53.940000	85.500000	0.000000	0.000000	159.000000	50.000000	0.000000	0.000000
0.880000	54.020000	85.500000	0.000000	0.000000	159.000000	50.000000	8.000000	0.000000
0.890000	54.140000	85.620000	0.000000	0.000000	159.000000	50.000000	12.000000	12.000000
0.900000	54.310000	85.740000	0.000000	0.000000	157.000000	50.000000	17.000000	12.000000
0.910000	54.480000	85.820000	0.000000	0.000000	157.000000	51.000000	17.000000	8.000000
0.920000	54.660000	85.820000	0.000000	0.000000	157.000000	51.000000	18.000000	0.000000
0.930000	54.820000	85.820000	0.000000	0.000000	157.000000	51.000000	16.000000	0.000000
0.940000	54.970000	85.700000	0.000000	0.000000	157.000000	51.000000	15.000000	-12.000000
0.950000	55.080000	85.640000	0.000000	0.000000	156.000000	51.000000	11.000000	-6.000000
0.960000	55.080000	85.640000	60.000000	1.000000	156.000000	51.000000	0.000000	0.000000
0.970000	55.370000	85.710000	149.000000	0.000000	157.000000	52.000000	29.000000	7.000000
0.980000	55.570000	85.770000	223.000000	0.000000	157.000000	52.000000	20.000000	6.000000
0.990000	55.810000	85.890000	294.000000	0.000000	157.000000	52.000000	24.000000	12.000000
1.000000	56.040000	86.040000	349.000000	0.000000	156.000000	53.000000	23.000000	15.000000
1.010000	56.230000	86.190000	389.000000	0.000000	156.000000	53.000000	19.000000	15.000000
1.020000	56.350000	86.320000	440.000000	0.000000	156.000000	53.000000	12.000000	13.000000
1.030000	56.350000	86.430000	464.000000	0.000000	156.000000	53.000000	0.000000	11.000000
1.040000	56.350000	86.550000	519.000000	0.000000	156.000000	53.000000	0.000000	12.000000
1.050000	56.350000	86.670000	522.000000	0.000000	156.000000	53.000000	0.000000	12.000000
1.060000	56.020000	86.800000	537.000000	0.000000	156.000000	53.000000	-33.000000	13.000000
1.070000	55.570000	86.940000	591.000000	0.000000	156.000000	53.000000	-45.000000	14.000000
1.080000	55.150000	86.940000	597.000000	0.000000	156.000000	53.000000	-42.000000	0.000000
1.090000	54.660000	86.720000	617.000000	0.000000	156.000000	53.000000	-49.000000	-22.000000
1.100000	54.130000	86.390000	628.000000	0.000000	156.000000	53.000000	-53.000000	-33.000000
1.110000	53.620000	85.860000	662.000000	0.000000	156.000000	53.000000	-51.000000	-53.000000
1.120000	53.180000	85.310000	673.000000	0.000000	156.000000	53.000000	-44.000000	-55.000000
1.130000	53.030000	84.780000	697.000000	0.000000	156.000000	53.000000	-15.000000	-53.000000
1.140000	53.030000	84.350000	731.000000	0.000000	156.000000	53.000000	0.000000	-43.000000
1.150000	53.270000	83.960000	761.000000	0.000000	156.000000	53.000000	24.000000	-39.000000
1.160000	53.550000	83.670000	788.000000	0.000000	157.000000	52.000000	28.000000	-29.000000
1.170000	54.020000	83.480000	811.000000	0.000000	157.000000	52.000000	47.000000	-19.000000
1.180000	54.590000	83.350000	824.000000	0.000000	156.000000	51.000000	57.000000	-13.000000
1.190000	55.270000	83.350000	855.000000	0.000000	158.000000	51.000000	68.000000	0.000000
1.200000	55.990000	83.480000	853.000000	0.000000	158.000000	51.000000	72.000000	13.000000
1.210000	56.500000	83.680000	864.000000	0.000000	158.000000	51.000000	51.000000	20.000000
1.220000	56.860000	83.760000	869.000000	0.000000	158.000000	51.000000	36.000000	8.000000
1.230000	56.940000	83.760000	870.000000	0.000000	159.000000	51.000000	8.000000	0.000000
1.240000	56.940000	83.760000	870.000000	0.000000	159.000000	51.000000	0.000000	0.000000
1.250000	56.940000	83.760000	854.000000	0.000000	159.000000	51.000000	0.000000	0.000000
1.260000	56.940000	83.760000	824.000000	0.000000	160.000000	51.000000	0.000000	0.000000
1.270000	56.940000	83.760000	743.000000	0.000000	160.000000	51.000000	0.000000	0.000000
1.280000	56.940000	83.760000	594.000000	0.000000	160.000000	51.000000	0.000000	0.000000
1.290000	56.940000	83.760000	196.000000	0.000000	160.000000	51.000000	0.000000	0.000000
1.300000	56.940000	83.760000	0.000000	1.000000	160.000000	51.000000	0.000000	0.000000
1.310000	57.270000	83.980000	0.000000	0.000000	160.000000	51.000000	33.000000	22.000000
1.320000	57.270000	84.150000	0.000000	0.000000	160.000000	51.000000	0.000000	17.000000
1.330000	57.270000	84.290000	0.000000	0.000000	160.000000	51.000000	0.000000	14.000000
1.340000	57.270000	84.380000	0.000000	0.000000	160.000000	51.000000	0.000000	9.000000
1.350000	57.520000	84.450000	0.000000	0.000000	160.000000	51.000000	25.000000	7.000000
1.360000	57.860000	84.450000	0.000000	0.000000	160.000000	51.000000	34.000000	0.000000
1.370000	58.120000	84.450000	0.000000	0.000000	160.000000	51.000000	26.000000	0.000000
1.380000	58.290000	84.330000	0.000000	0.000000	160.000000	51.000000	17.000000	-12.000000
1.390000	58.390000	84.230000	0.000000	0.000000	161.000000	50.000000	10.000000	-10.000000
1.400000	58.450000	84.180000	0.000000	0.000000	161.000000	50.000000	6.000000	-5.000000
1.410000	58.450000	84.180000	0.000000	0.000000	160.000000	51.000000	0.000000	0.000000
1.420000	58.300000	84.180000	0.000000	0.000000	160.000000	51.000000	-15.000000	0.000000
1.430000	58.180000	84.230000	0.000000	0.000000	160.000000	51.000000	-12.000000	5.000000
1.440000	58.080000	84.230000	0.000000	0.000000	159.000000	51.000000	-10.000000	0.000000
1.450000	58.080000	84.230000	155.000000	1.000000	160.000000	51.000000	0.000000	0.000000
1.460000	58.080000	84.230000	203.000000	0.000000	160.000000	51.000000	0.000000	0.000000
1.470000	57.770000	84.350000	252.000000	0.000000	160.000000	51.000000	-31.000000	12.000000
1.480000	57.770000	84.440000	339.000000	0.000000	160.000000	51.000000	0.000000	9.000000
1.490000	57.850000	84.440000	404.000000	0.000000	160.000000	51.000000	8.000000	0.000000
1.500000	57.930000	84.440000	450.000000	0.000000	160.000000	51.000000	8.000000	0.000000
1.510000	58.050000	84.440000	502.000000	0.000000	160.000000	51.000000	12.000000	0.000000
1.520000	58.220000	84.440000	563.000000	0.000000	160.000000	51.000000	17.000000	0.000000
1.530000	58.440000	84.440000	613.000000	0.000000	160.000000	51.000000	22.000000	0.000000
1.540000	58.670000	84.440000	659.000000	0.000000	162.000000	52.000000	23.000000	0.000000
1.550000	58.950000	84.500000	671.000000	0.000000	162.000000	52.000000	28.000000	6.000000
1.560000	59.230000	84.590000	675.000000	0.000000	162.000000	52.000000	28.000000	9.000000
1.570000	59.470000	84.730000	667.000000	0.000000	162.000000	53.000000	24.000000	14.000000
1.580000	59.780000	84.950000	666.000000	0.000000	162.000000	53.000000	31.000000	22.000000
1.590000	59.930000	85.230000	667.000000	0.000000	164.000000	53.000000	15.000000	28.000000
1.600000	59.930000	85.390000	673.000000	0.000000	164.000000	53.000000	0.000000	16.000000
1.610000	59.930000	85.530000	675.000000	0.000000	165.000000	53.000000	0.000000	14.000000
1.620000	59.760000	85.620000	694.000000	0.000000	165.000000	53.000000	-17.000000	9.000000
1.630000	59.490000	85.520000	702.000000	0.000000	165.000000	53.000000	-27.000000	-10.000000
1.640000	58.960000	85.300000	727.000000	0.000000	165.000000	53.000000	-53.000000	-22.000000
1.650000	58.440000	84.860000	748.000000	0.000000	165.000000	53.000000	-52.000000	-44.000000
1.660000	57.920000	84.420000	754.000000	0.000000	165.000000	53.000000	-52.000000	-44.000000
1.670000	57.620000	84.040000	788.000000	0.000000	164.000000	53.000000	-30.000000	-38.000000
1.680000	57.480000	83.700000	796.000000	0.000000	162.000000	53.000000	-14.000000	-34.000000
1.690000	57.480000	83.510000	808.000000	0.000000	162.000000	53.000000	0.000000	-19.000000
1.700000	57.590000	83.320000	829.000000	0.000000	161.000000	52.000000	11.000000	-19.000000
1.710000	57.870000	83.140000	840.000000	0.000000	161.000000	52.000000	28.000000	-18.000000
1.720000	58.250000	83.090000	854.000000	0.000000	160.000000	52.000000	38.000000	-5.000000
1.730000	58.710000	83.090000	863.000000	0.000000	160.000000	52.000000	46.000000	0.000000
1.740000	59.180000	83.220000	867.000000	0.000000	160.000000	52.000000	47.000000	13.000000
1.750000	59.650000	83.350000	872.000000	0.000000	158.000000	52.000000	47.000000	13.000000
1.760000	59.940000	83.490000	878.000000	0.000000	160.000000	52.000000	29.000000	14.000000
1.770000	60.110000	83.490000	885.000000	0.000000	160.000000	52.000000	17.000000	0.000000
1.780000	60.110000	83.490000	891.000000	0.000000	160.000000	52.000000	0.000000	0.000000
1.790000	60.060000	83.490000	903.000000	0.000000	160.000000	52.000000	-5.000000	0.000000
1.800000	60.010000	83.490000	908.000000	0.000000	160.000000	52.000000	-5.000000	0.000000
1.810000	60.010000	83.490000	900.000000	0.000000	160.000000	52.000000	0.000000	0.000000
1.820000	60.010000	83.490000	884.000000	0.000000	160.000000	52.000000	0.000000	0.000000
1.830000	60.010000	83.490000	864.000000	0.000000	161.000000	52.000000	0.000000	0.000000
1.840000	60.070000	83.490000	787.000000	0.000000	161.000000	52.000000	6.000000	0.000000
1.850000	60.070000	83.490000	647.000000	0.000000	161.000000	52.000000	0.000000	0.000000
1.860000	60.070000	83.550000	279.000000	0.000000	161.000000	52.000000	0.000000	6.000000
1.870000	60.070000	83.550000	0.000000	1.000000	162.000000	53.000000	0.000000	0.000000
1.880000	60.380000	83.790000	0.000000	0.000000	162.000000	53.000000	31.000000	24.000000
1.890000	60.670000	84.030000	0.000000	0.000000	164.000000	53.000000	29.000000	24.000000
1.900000	61.020000	84.280000	0.000000	0.000000	164.000000	53.000000	35.000000	25.000000
1.910000	61.550000	84.550000	0.000000	0.000000	165.000000	53.000000	53.000000	27.000000
1.920000	62.190000	84.790000	0.000000	0.000000	165.000000	53.000000	64.000000	24.000000
1.930000	62.790000	84.970000	0.000000	0.000000	164.000000	53.000000	60.000000	18.000000
1.940000	63.400000	85.070000	0.000000	0.000000	164.000000	53.000000	61.000000	10.000000
1.950000	63.400000	85.070000	225.000000	1.000000	164.000000	53.000000	0.000000	0.000000
1.960000	63.400000	85.070000	279.000000	0.000000	162.000000	53.000000	0.000000	0.000000
1.970000	63.400000	85.070000	394.000000	0.000000	162.000000	53.000000	0.000000	0.000000
1.980000	62.970000	85.240000	491.000000	0.000000	162.000000	53.000000	-43.000000	17.000000
1.990000	62.610000	85.240000	605.000000	0.000000	162.000000	54.000000	-36.000000	0.000000
2.000000	62.240000	85.240000	646.000000	0.000000	162.000000	54.000000	-37.000000	0.000000
2.010000	61.860000	85.070000	690.000000	0.000000	163.000000	54.000000	-38.000000	-17.000000
2.020000	61.460000	84.880000	727.000000	0.000000	163.000000	54.000000	-40.000000	-19.000000
2.030000	61.460000	84.880000	727.000000	0.000000	163.000000	54.000000	0.000000	0.000000
2.040000	61.170000	84.560000	728.000000	0.000000	163.000000	54.000000	-29.000000	-32.000000
2.050000	61.170000	84.560000	728.000000	0.000000	163.000000	54.000000	0.000000	0.000000
2.060000	61.330000	84.400000	746.000000	0.000000	164.000000	53.000000	16.000000	-16.000000
2.070000	61.540000	84.280000	746.000000	0.000000	164.000000	53.000000	21.000000	-12.000000
2.080000	61.810000	84.160000	746.000000	0.000000	164.000000	53.000000	27.000000	-12.000000
2.090000	62.230000	84.100000	746.000000	0.000000	164.000000	53.000000	42.000000	-6.000000
2.100000	62.760000	84.100000	739.000000	0.000000	164.000000	53.000000	53.000000	0.000000
2.110000	63.200000	84.000000	737.000000	0.000000	164.000000	53.000000	44.000000	-10.000000
2.120000	63.520000	83.930000	730.000000	0.000000	164.000000	52.000000	32.000000	-7.000000
2.130000	63.770000	83.820000	727.000000	0.000000	164.000000	53.000000	25.000000	-11.000000
2.140000	63.910000	83.670000	710.000000	0.000000	164.000000	53.000000	14.000000	-15.000000
2.150000	63.910000	83.510000	710.000000	0.000000	164.000000	53.000000	0.000000	-16.000000
2.160000	63.910000	83.330000	713.000000	0.000000	162.000000	53.000000	0.000000	-18.000000
2.170000	63.820000	83.140000	716.000000	0.000000	162.000000	53.000000	-9.000000	-19.000000
2.180000	63.630000	83.000000	719.000000	0.000000	162.000000	53.000000	-19.000000	-14.000000
2.190000	63.370000	82.890000	725.000000	0.000000	162.000000	53.000000	-26.000000	-11.000000
2.200000	62.980000	82.800000	722.000000	0.000000	162.000000	53.000000	-39.000000	-9.000000
2.210000	62.530000	82.800000	731.000000	0.000000	162.000000	53.000000	-45.000000	0.000000
2.220000	62.030000	82.800000	748.000000	0.000000	162.000000	53.000000	-50.000000	0.000000
