t	x	y	pressure	penup	azimuth	inclination	v_x	v_y
0.000000	88.880000	15.490000	285.000000	1.000000	143.000000	56.000000	0.000000	0.000000
0.010000	88.400000	15.270000	359.000000	0.000000	143.000000	56.000000	-48.000000	-22.000000
0.020000	88.340000	14.880000	510.000000	0.000000	144.000000	56.000000	-6.000000	-39.000000
0.030000	88.340000	14.220000	622.000000	0.000000	143.000000	56.000000	0.000000	-66.000000
0.040000	88.340000	13.370000	719.000000	0.000000	143.000000	56.000000	0.000000	-85.000000
0.050000	88.480000	12.380000	783.000000	0.000000	142.000000	57.000000	14.000000	-99.000000
0.060000	88.570000	11.360000	825.000000	0.000000	140.000000	58.000000	9.000000	-102.000000
0.070000	88.570000	10.330000	853.000000	0.000000	138.000000	59.000000	0.000000	-103.000000
0.080000	88.570000	9.510000	861.000000	0.000000	138.000000	60.000000	0.000000	-82.000000
0.090000	88.570000	8.880000	861.000000	0.000000	138.000000	60.000000	0.000000	-63.000000
0.100000	88.570000	8.370000	797.000000	0.000000	136.000000	61.000000	0.000000	-51.000000
0.110000	88.660000	7.880000	606.000000	0.000000	138.000000	61.000000	9.000000	-49.000000
0.120000	88.790000	7.700000	105.000000	0.000000	138.000000	61.000000	13.000000	-18.000000
0.130000	88.790000	7.700000	0.000000	1.000000	141.000000	61.000000	0.000000	0.000000
0.140000	89.130000	8.070000	0.000000	0.000000	141.000000	61.000000	34.000000	37.000000
0.150000	89.330000	8.760000	0.000000	0.000000	142.000000	61.000000	20.000000	69.000000
0.160000	89.550000	9.680000	0.000000	0.000000	142.000000	61.000000	22.000000	92.000000
0.170000	89.820000	10.540000	0.000000	0.000000	142.000000	59.000000	27.000000	86.000000
0.180000	90.150000	11.400000	0.000000	0.000000	143.000000	59.000000	33.000000	86.000000
0.190000	90.620000	12.160000	0.000000	0.000000	143.000000	57.000000	47.000000	76.000000
0.200000	91.150000	12.860000	0.000000	0.000000	143.000000	55.000000	53.000000	70.000000
0.210000	91.550000	13.230000	0.000000	0.000000	142.000000	54.000000	40.000000	37.000000
0.220000	91.840000	13.580000	0.000000	0.000000	143.000000	52.000000	29.000000	35.000000
0.230000	92.050000	13.740000	0.000000	0.000000	144.000000	51.000000	21.000000	16.000000
0.240000	92.050000	13.790000	0.000000	0.000000	146.000000	50.000000	0.000000	5.000000
0.250000	91.860000	13.790000	0.000000	0.000000	147.000000	49.000000	-19.000000	0.000000
0.260000	91.590000	13.700000	0.000000	0.000000	147.000000	49.000000	-27.000000	-9.000000
0.270000	91.310000	13.590000	0.000000	0.000000	148.000000	50.000000	-28.000000	-11.000000
0.280000	91.030000	13.440000	0.000000	0.000000	148.000000	50.000000	-28.000000	-15.000000
0.290000	90.690000	13.280000	0.000000	0.000000	149.000000	51.000000	-34.000000	-16.000000
0.300000	90.300000	13.070000	0.000000	0.000000	148.000000	51.000000	-39.000000	-21.000000
0.310000	89.650000	12.750000	0.000000	0.000000	148.000000	53.000000	-65.000000	-32.000000
0.320000	88.700000	12.360000	0.000000	0.000000	147.000000	53.000000	-95.000000	-39.000000
0.330000	87.550000	11.910000	0.000000	0.000000	147.000000	55.000000	-115.000000	-45.000000
0.340000	86.460000	11.500000	0.000000	0.000000	146.000000	55.000000	-109.000000	-41.000000
0.350000	85.420000	11.250000	0.000000	0.000000	145.000000	56.000000	-104.000000	-25.000000
0.360000	85.420000	11.250000	310.000000	1.000000	144.000000	57.000000	0.000000	0.000000
0.370000	84.140000	11.290000	366.000000	0.000000	142.000000	58.000000	-128.000000	4.000000
0.380000	84.030000	11.870000	376.000000	0.000000	141.000000	59.000000	-11.000000	58.000000
0.390000	84.420000	12.700000	420.000000	0.000000	139.000000	60.000000	39.000000	83.000000
0.400000	85.140000	13.590000	465.000000	0.000000	138.000000	60.000000	72.000000	89.000000
0.410000	86.200000	14.450000	519.000000	0.000000	136.000000	60.000000	106.000000	86.000000
0.420000	87.540000	15.040000	554.000000	0.000000	136.000000	60.000000	134.000000	59.000000
0.430000	89.070000	15.470000	595.000000	0.000000	138.000000	59.000000	153.000000	43.000000
0.440000	90.300000	15.620000	624.000000	0.000000	139.000000	58.000000	123.000000	15.000000
0.450000	91.080000	15.520000	634.000000	0.000000	140.000000	58.000000	78.000000	-10.000000
0.460000	91.550000	15.250000	644.000000	0.000000	143.000000	56.000000	47.000000	-27.000000
0.470000	91.550000	14.790000	643.000000	0.000000	143.000000	55.000000	0.000000	-46.000000
0.480000	91.250000	14.110000	667.000000	0.000000	143.000000	55.000000	-30.000000	-68.000000
0.490000	90.700000	13.290000	693.000000	0.000000	143.000000	55.000000	-55.000000	-82.000000
0.500000	89.900000	12.300000	758.000000	0.000000	143.000000	55.000000	-80.000000	-99.000000
0.510000	89.180000	11.590000	788.000000	0.000000	143.000000	55.000000	-72.000000	-71.000000
0.520000	88.500000	11.080000	787.000000	0.000000	141.000000	56.000000	-68.000000	-51.000000
0.530000	88.440000	10.890000	757.000000	0.000000	142.000000	57.000000	-6.000000	-19.000000
0.540000	88.640000	10.890000	745.000000	0.000000	140.000000	58.000000	20.000000	0.000000
0.550000	89.020000	10.890000	740.000000	0.000000	141.000000	59.000000	38.000000	0.000000
0.560000	89.800000	10.890000	734.000000	0.000000	141.000000	60.000000	78.000000	0.000000
0.570000	90.650000	10.890000	731.000000	0.000000	142.000000	61.000000	85.000000	0.000000
0.580000	91.540000	10.740000	734.000000	0.000000	144.000000	61.000000	89.000000	-15.000000
0.590000	92.230000	10.450000	746.000000	0.000000	144.000000	61.000000	69.000000	-29.000000
0.600000	92.630000	10.080000	759.000000	0.000000	147.000000	61.000000	40.000000	-37.000000
0.610000	92.830000	9.550000	800.000000	0.000000	147.000000	61.000000	20.000000	-53.000000
0.620000	92.770000	9.010000	849.000000	0.000000	150.000000	60.000000	-6.000000	-54.000000
0.630000	92.240000	8.400000	924.000000	0.000000	150.000000	60.000000	-53.000000	-61.000000
0.640000	91.390000	7.710000	1000.000000	0.000000	151.000000	60.000000	-85.000000	-69.000000
0.650000	90.170000	7.080000	1023.000000	0.000000	151.000000	60.000000	-122.000000	-63.000000
0.660000	88.850000	6.500000	1023.000000	0.000000	151.000000	60.000000	-132.000000	-58.000000
0.670000	87.460000	5.970000	1023.000000	0.000000	151.000000	60.000000	-139.000000	-53.000000
0.680000	86.560000	5.750000	1023.000000	0.000000	150.000000	60.000000	-90.000000	-22.000000
0.690000	86.050000	5.750000	1023.000000	0.000000	147.000000	61.000000	-51.000000	0.000000
0.700000	85.790000	5.890000	984.000000	0.000000	146.000000	62.000000	-26.000000	14.000000
0.710000	85.790000	6.030000	845.000000	0.000000	144.000000	62.000000	0.000000	14.000000
0.720000	86.050000	6.410000	588.000000	0.000000	141.000000	63.000000	26.000000	38.000000
0.730000	86.460000	6.950000	54.000000	0.000000	141.000000	63.000000	41.000000	54.000000
0.740000	86.460000	6.950000	0.000000	1.000000	141.000000	63.000000	0.000000	0.000000
0.750000	88.560000	8.550000	0.000000	0.000000	141.000000	61.000000	210.000000	160.000000
0.760000	90.150000	9.480000	0.000000	0.000000	141.000000	61.000000	159.000000	93.000000
0.770000	91.830000	10.440000	0.000000	0.000000	142.000000	61.000000	168.000000	96.000000
0.780000	93.550000	11.470000	0.000000	0.000000	145.000000	59.000000	172.000000	103.000000
0.790000	95.340000	12.550000	0.000000	0.000000	146.000000	58.000000	179.000000	108.000000
0.800000	97.570000	13.350000	0.000000	0.000000	148.000000	57.000000	223.000000	80.000000
0.810000	100.080000	13.900000	0.000000	0.000000	150.000000	55.000000	251.000000	55.000000
0.820000	102.360000	14.280000	0.000000	0.000000	153.000000	53.000000	228.000000	38.000000
0.830000	104.010000	14.280000	0.000000	0.000000	155.000000	51.000000	165.000000	0.000000
0.840000	105.250000	14.160000	0.000000	0.000000	155.000000	49.000000	124.000000	-12.000000
0.850000	105.500000	13.900000	0.000000	0.000000	158.000000	48.000000	25.000000	-26.000000
0.860000	105.000000	13.630000	0.000000	0.000000	158.000000	47.000000	-50.000000	-27.000000
0.870000	103.990000	13.300000	0.000000	0.000000	159.000000	46.000000	-101.000000	-33.000000
0.880000	102.740000	12.840000	0.000000	0.000000	159.000000	46.000000	-125.000000	-46.000000
0.890000	101.400000	12.280000	0.000000	0.000000	159.000000	46.000000	-134.000000	-56.000000
0.900000	99.990000	11.660000	0.000000	0.000000	157.000000	47.000000	-141.000000	-62.000000
0.910000	98.590000	11.050000	0.000000	0.000000	156.000000	48.000000	-140.000000	-61.000000
0.920000	97.290000	10.590000	0.000000	0.000000	154.000000	50.000000	-130.000000	-46.000000
0.930000	96.230000	10.200000	0.000000	0.000000	153.000000	51.000000	-106.000000	-39.000000
0.940000	95.290000	9.760000	0.000000	0.000000	152.000000	53.000000	-94.000000	-44.000000
0.950000	94.560000	9.300000	0.000000	0.000000	151.000000	53.000000	-73.000000	-46.000000
0.960000	94.090000	8.830000	0.000000	0.000000	148.000000	54.000000	-47.000000	-47.000000
0.970000	93.800000	8.460000	0.000000	0.000000	147.000000	55.000000	-29.000000	-37.000000
0.980000	93.730000	8.140000	0.000000	0.000000	146.000000	55.000000	-7.000000	-32.000000
0.990000	93.680000	7.870000	0.000000	0.000000	146.000000	55.000000	-5.000000	-27.000000
1.000000	93.680000	7.670000	0.000000	0.000000	146.000000	55.000000	0.000000	-20.000000
1.010000	93.730000	7.530000	0.000000	0.000000	146.000000	55.000000	5.000000	-14.000000
1.020000	93.810000	7.530000	0.000000	0.000000	146.000000	55.000000	8.000000	0.000000
1.030000	93.980000	7.700000	0.000000	0.000000	146.000000	55.000000	17.000000	17.000000
1.040000	94.310000	7.980000	0.000000	0.000000	146.000000	55.000000	33.000000	28.000000
1.050000	94.740000	8.470000	0.000000	0.000000	146.000000	55.000000	43.000000	49.000000
1.060000	95.310000	9.060000	0.000000	0.000000	146.000000	55.000000	57.000000	59.000000
1.070000	95.920000	9.730000	0.000000	0.000000	146.000000	55.000000	61.000000	67.000000
1.080000	96.590000	10.570000	0.000000	0.000000	146.000000	55.000000	67.000000	84.000000
1.090000	97.160000	11.500000	0.000000	0.000000	146.000000	55.000000	57.000000	93.000000
1.100000	97.670000	12.480000	0.000000	0.000000	146.000000	55.000000	51.000000	98.000000
1.110000	97.990000	13.210000	0.000000	0.000000	146.000000	55.000000	32.000000	73.000000
1.120000	98.100000	13.730000	0.000000	0.000000	147.000000	55.000000	11.000000	52.000000
1.130000	98.100000	14.110000	0.000000	0.000000	149.000000	55.000000	0.000000	38.000000
1.140000	97.790000	14.110000	0.000000	0.000000	150.000000	54.000000	-31.000000	0.000000
1.150000	97.340000	14.110000	0.000000	0.000000	151.000000	53.000000	-45.000000	0.000000
1.160000	96.770000	13.700000	0.000000	0.000000	152.000000	53.000000	-57.000000	-41.000000
1.170000	96.050000	13.140000	0.000000	0.000000	152.000000	53.000000	-72.000000	-56.000000
1.180000	95.310000	12.300000	0.000000	0.000000	150.000000	52.000000	-74.000000	-84.000000
1.190000	94.560000	11.250000	0.000000	0.000000	150.000000	52.000000	-75.000000	-105.000000
1.200000	94.560000	11.250000	168.000000	1.000000	149.000000	53.000000	0.000000	0.000000
1.210000	93.350000	9.070000	251.000000	0.000000	147.000000	53.000000	-121.000000	-218.000000
1.220000	93.140000	8.510000	317.000000	0.000000	147.000000	55.000000	-21.000000	-56.000000
1.230000	93.190000	8.230000	414.000000	0.000000	146.000000	55.000000	5.000000	-28.000000
1.240000	93.370000	8.150000	509.000000	0.000000	146.000000	55.000000	18.000000	-8.000000
1.250000	93.760000	8.240000	570.000000	0.000000	145.000000	56.000000	39.000000	9.000000
1.260000	94.290000	8.440000	594.000000	0.000000	145.000000	56.000000	53.000000	20.000000
1.270000	95.040000	8.900000	592.000000	0.000000	145.000000	56.000000	75.000000	46.000000
1.280000	95.800000	9.550000	605.000000	0.000000	145.000000	56.000000	76.000000	65.000000
1.290000	96.600000	10.340000	619.000000	0.000000	145.000000	56.000000	80.000000	79.000000
1.300000	97.190000	11.120000	613.000000	0.000000	145.000000	56.000000	59.000000	78.000000
1.310000	97.640000	11.860000	608.000000	0.000000	147.000000	56.000000	45.000000	74.000000
1.320000	97.750000	12.570000	616.000000	0.000000	147.000000	56.000000	11.000000	71.000000
1.330000	97.640000	12.910000	620.000000	0.000000	147.000000	56.000000	-11.000000	34.000000
1.340000	97.380000	13.020000	627.000000	0.000000	148.000000	57.000000	-26.000000	11.000000
1.350000	96.990000	12.970000	647.000000	0.000000	148.000000	57.000000	-39.000000	-5.000000
1.360000	96.520000	12.440000	663.000000	0.000000	148.000000	57.000000	-47.000000	-53.000000
1.370000	96.000000	11.710000	724.000000	0.000000	148.000000	57.000000	-52.000000	-73.000000
1.380000	95.470000	10.860000	765.000000	0.000000	148.000000	57.000000	-53.000000	-85.000000
1.390000	94.990000	10.000000	793.000000	0.000000	148.000000	57.000000	-48.000000	-86.000000
1.400000	94.600000	9.140000	814.000000	0.000000	147.000000	56.000000	-39.000000	-86.000000
1.410000	94.450000	8.470000	821.000000	0.000000	147.000000	56.000000	-15.000000	-67.000000
1.420000	94.450000	7.920000	815.000000	0.000000	145.000000	56.000000	0.000000	-55.000000
1.430000	94.690000	7.590000	817.000000	0.000000	145.000000	56.000000	24.000000	-33.000000
1.440000	95.060000	7.500000	823.000000	0.000000	144.000000	56.000000	37.000000	-9.000000
1.450000	95.510000	7.570000	823.000000	0.000000	144.000000	56.000000	45.000000	7.000000
1.460000	96.110000	7.930000	815.000000	0.000000	145.000000	55.000000	60.000000	36.000000
1.470000	96.670000	8.540000	796.000000	0.000000	144.000000	54.000000	56.000000	61.000000
1.480000	97.210000	9.310000	784.000000	0.000000	145.000000	55.000000	54.000000	77.000000
1.490000	97.660000	9.970000	762.000000	0.000000	145.000000	55.000000	45.000000	66.000000
1.500000	97.890000	10.580000	759.000000	0.000000	145.000000	56.000000	23.000000	61.000000
1.510000	97.980000	10.840000	779.000000	0.000000	145.000000	56.000000	9.000000	26.000000
1.520000	97.980000	10.840000	790.000000	0.000000	147.000000	56.000000	0.000000	0.000000
1.530000	97.980000	10.750000	797.000000	0.000000	147.000000	56.000000	0.000000	-9.000000
1.540000	97.900000	10.570000	817.000000	0.000000	148.000000	57.000000	-8.000000	-18.000000
1.550000	97.720000	10.220000	826.000000	0.000000	148.000000	57.000000	-18.000000	-35.000000
1.560000	97.590000	9.790000	827.000000	0.000000	148.000000	57.000000	-13.000000	-43.000000
1.570000	97.540000	9.420000	827.000000	0.000000	148.000000	57.000000	-5.000000	-37.000000
1.580000	97.540000	9.420000	820.000000	0.000000	148.000000	57.000000	0.000000	0.000000
1.590000	97.890000	9.150000	814.000000	0.000000	148.000000	57.000000	35.000000	-27.000000
1.600000	98.230000	9.150000	806.000000	0.000000	150.000000	57.000000	34.000000	0.000000
1.610000	98.630000	9.460000	785.000000	0.000000	150.000000	57.000000	40.000000	31.000000
1.620000	99.050000	9.890000	770.000000	0.000000	151.000000	56.000000	42.000000	43.000000
1.630000	99.450000	10.540000	761.000000	0.000000	151.000000	56.000000	40.000000	65.000000
1.640000	99.680000	10.990000	740.000000	0.000000	151.000000	56.000000	23.000000	45.000000
1.650000	99.800000	11.320000	746.000000	0.000000	149.000000	56.000000	12.000000	33.000000
1.660000	99.800000	11.390000	755.000000	0.000000	149.000000	56.000000	0.000000	7.000000
1.670000	99.800000	11.310000	757.000000	0.000000	148.000000	56.000000	0.000000	-8.000000
1.680000	99.800000	11.130000	779.000000	0.000000	148.000000	56.000000	0.000000	-18.000000
1.690000	99.720000	10.690000	784.000000	0.000000	146.000000	55.000000	-8.000000	-44.000000
1.700000	99.640000	10.290000	787.000000	0.000000	145.000000	55.000000	-8.000000	-40.000000
1.710000	99.640000	9.930000	785.000000	0.000000	144.000000	54.000000	0.000000	-36.000000
1.720000	99.720000	9.720000	793.000000	0.000000	144.000000	54.000000	8.000000	-21.000000
1.730000	99.910000	9.640000	777.000000	0.000000	145.000000	54.000000	19.000000	-8.000000
1.740000	100.190000	9.640000	767.000000	0.000000	146.000000	54.000000	28.000000	0.000000
1.750000	100.450000	9.780000	749.000000	0.000000	146.000000	54.000000	26.000000	14.000000
1.760000	100.730000	10.060000	727.000000	0.000000	147.000000	55.000000	28.000000	28.000000
1.770000	100.910000	10.450000	727.000000	0.000000	149.000000	55.000000	18.000000	39.000000
1.780000	101.010000	10.730000	724.000000	0.000000	149.000000	55.000000	10.000000	28.000000
1.790000	101.080000	10.960000	725.000000	0.000000	150.000000	55.000000	7.000000	23.000000
1.800000	101.080000	11.010000	737.000000	0.000000	150.000000	55.000000	0.000000	5.000000
1.810000	101.080000	10.950000	749.000000	0.000000	150.000000	55.000000	0.000000	-6.000000
1.820000	101.030000	10.830000	755.000000	0.000000	150.000000	55.000000	-5.000000	-12.000000
1.830000	100.980000	10.660000	761.000000	0.000000	150.000000	55.000000	-5.000000	-17.000000
1.840000	100.920000	10.440000	760.000000	0.000000	150.000000	55.000000	-6.000000	-22.000000
1.850000	100.920000	10.210000	761.000000	0.000000	150.000000	55.000000	0.000000	-23.000000
1.860000	101.000000	10.100000	739.000000	0.000000	150.000000	55.000000	8.000000	-11.000000
1.870000	101.070000	10.100000	721.000000	0.000000	150.000000	55.000000	7.000000	0.000000
1.880000	101.160000	10.100000	702.000000	0.000000	152.000000	56.000000	9.000000	0.000000
1.890000	101.280000	10.300000	690.000000	0.000000	152.000000	56.000000	12.000000	20.000000
1.900000	101.420000	10.540000	664.000000	0.000000	152.000000	56.000000	14.000000	24.000000
1.910000	101.560000	10.830000	666.000000	0.000000	152.000000	56.000000	14.000000	29.000000
1.920000	101.640000	11.060000	684.000000	0.000000	152.000000	56.000000	8.000000	23.000000
1.930000	101.640000	11.060000	700.000000	0.000000	152.000000	56.000000	0.000000	0.000000
1.940000	101.640000	11.060000	697.000000	0.000000	152.000000	56.000000	0.000000	0.000000
1.950000	101.640000	10.980000	711.000000	0.000000	152.000000	56.000000	0.000000	-8.000000
1.960000	101.640000	10.890000	722.000000	0.000000	152.000000	56.000000	0.000000	-9.000000
1.970000	101.590000	10.760000	724.000000	0.000000	152.000000	56.000000	-5.000000	-13.000000
1.980000	101.520000	10.590000	754.000000	0.000000	152.000000	56.000000	-7.000000	-17.000000
1.990000	101.420000	10.400000	763.000000	0.000000	152.000000	56.000000	-10.000000	-19.000000
2.000000	101.330000	10.210000	773.000000	0.000000	152.000000	56.000000	-9.000000	-19.000000
2.010000	101.240000	10.030000	794.000000	0.000000	152.000000	56.000000	-9.000000	-18.000000
2.020000	101.240000	9.770000	806.000000	0.000000	153.000000	56.000000	0.000000	-26.000000
2.030000	101.240000	9.570000	799.000000	0.000000	153.000000	56.000000	0.000000	-20.000000
2.040000	101.460000	9.420000	794.000000	0.000000	153.000000	56.000000	22.000000	-15.000000
2.050000	101.790000	9.470000	787.000000	0.000000	153.000000	56.000000	33.000000	5.000000
2.060000	102.390000	9.890000	785.000000	0.000000	153.000000	56.000000	60.000000	42.000000
2.070000	103.050000	10.570000	757.000000	0.000000	153.000000	56.000000	66.000000	68.000000
2.080000	103.790000	11.560000	755.000000	0.000000	152.000000	56.000000	74.000000	99.000000
2.090000	104.320000	12.740000	725.000000	0.000000	152.000000	56.000000	53.000000	118.000000
2.100000	104.700000	14.050000	720.000000	0.000000	153.000000	55.000000	38.000000	131.000000
2.110000	104.950000	15.250000	722.000000	0.000000	153.000000	55.000000	25.000000	120.000000
2.120000	105.160000	16.510000	719.000000	0.000000	153.000000	54.000000	21.000000	126.000000
2.130000	105.330000	17.820000	725.000000	0.000000	153.000000	54.000000	17.000000	131.000000
2.140000	105.450000	18.850000	731.000000	0.000000	156.000000	53.000000	12.000000	103.000000
2.150000	105.500000	19.300000	731.000000	0.000000	156.000000	53.000000	5.000000	45.000000
2.160000	105.500000	19.360000	736.000000	0.000000	156.000000	53.000000	0.000000	6.000000
2.170000	105.370000	19.020000	757.000000	0.000000	155.000000	54.000000	-13.000000	-34.000000
2.180000	105.060000	17.870000	779.000000	0.000000	155.000000	54.000000	-31.000000	-115.000000
2.190000	104.630000	16.170000	808.000000	0.000000	155.000000	54.000000	-43.000000	-170.000000
2.200000	104.210000	14.330000	824.000000	0.000000	155.000000	54.000000	-42.000000	-184.000000
