t	x	y	pressure	penup	azimuth	inclination	v_x	v_y
0.000000	52.090000	62.730000	22.000000	1.000000	113.000000	56.000000	0.000000	0.000000
0.010000	52.090000	62.370000	68.000000	0.000000	113.000000	56.000000	0.000000	-36.000000
0.020000	52.010000	62.160000	122.000000	0.000000	113.000000	56.000000	-8.000000	-21.000000
0.030000	51.940000	61.870000	175.000000	0.000000	114.000000	57.000000	-7.000000	-29.000000
0.040000	51.870000	61.580000	247.000000	0.000000	114.000000	57.000000	-7.000000	-29.000000
0.050000	51.790000	61.310000	324.000000	0.000000	114.000000	57.000000	-8.000000	-27.000000
0.060000	51.700000	61.170000	381.000000	0.000000	114.000000	57.000000	-9.000000	-14.000000
0.070000	51.700000	61.100000	428.000000	0.000000	114.000000	57.000000	0.000000	-7.000000
0.080000	51.640000	61.100000	466.000000	0.000000	114.000000	57.000000	-6.000000	0.000000
0.090000	51.640000	61.370000	475.000000	0.000000	114.000000	57.000000	0.000000	27.000000
0.100000	51.710000	61.730000	477.000000	0.000000	113.000000	56.000000	7.000000	36.000000
0.110000	51.810000	62.550000	472.000000	0.000000	112.000000	56.000000	10.000000	82.000000
0.120000	52.080000	63.660000	458.000000	0.000000	112.000000	56.000000	27.000000	111.000000
0.130000	52.450000	64.960000	453.000000	0.000000	112.000000	56.000000	37.000000	130.000000
0.140000	52.990000	66.270000	463.000000	0.000000	112.000000	56.000000	54.000000	131.000000
0.150000	53.560000	67.580000	465.000000	0.000000	112.000000	56.000000	57.000000	131.000000
0.160000	54.210000	68.910000	467.000000	0.000000	112.000000	56.000000	65.000000	133.000000
0.170000	54.950000	70.270000	467.000000	0.000000	113.000000	56.000000	74.000000	136.000000
0.180000	55.700000	71.280000	468.000000	0.000000	116.000000	56.000000	75.000000	101.000000
0.190000	56.440000	72.060000	474.000000	0.000000	117.000000	56.000000	74.000000	78.000000
0.200000	57.080000	72.690000	455.000000	0.000000	118.000000	56.000000	64.000000	63.000000
0.210000	57.650000	73.130000	439.000000	0.000000	120.000000	55.000000	57.000000	44.000000
0.220000	58.070000	73.440000	422.000000	0.000000	122.000000	56.000000	42.000000	31.000000
0.230000	58.290000	73.440000	435.000000	0.000000	124.000000	55.000000	22.000000	0.000000
0.240000	58.380000	73.080000	450.000000	0.000000	125.000000	55.000000	9.000000	-36.000000
0.250000	58.290000	72.560000	474.000000	0.000000	126.000000	56.000000	-9.000000	-52.000000
0.260000	58.100000	71.670000	490.000000	0.000000	127.000000	55.000000	-19.000000	-89.000000
0.270000	57.840000	70.620000	543.000000	0.000000	126.000000	56.000000	-26.000000	-105.000000
0.280000	57.640000	69.470000	565.000000	0.000000	126.000000	56.000000	-20.000000	-115.000000
0.290000	57.460000	68.380000	569.000000	0.000000	125.000000	56.000000	-18.000000	-109.000000
0.300000	57.290000	67.670000	563.000000	0.000000	123.000000	56.000000	-17.000000	-71.000000
0.310000	57.290000	67.210000	542.000000	0.000000	122.000000	57.000000	0.000000	-46.000000
0.320000	57.530000	66.980000	530.000000	0.000000	119.000000	56.000000	24.000000	-23.000000
0.330000	57.830000	66.980000	526.000000	0.000000	118.000000	57.000000	30.000000	0.000000
0.340000	58.250000	67.120000	519.000000	0.000000	116.000000	57.000000	42.000000	14.000000
0.350000	58.690000	67.560000	516.000000	0.000000	116.000000	58.000000	44.000000	44.000000
0.360000	59.160000	68.130000	522.000000	0.000000	114.000000	59.000000	47.000000	57.000000
0.370000	59.640000	68.790000	522.000000	0.000000	114.000000	59.000000	48.000000	66.000000
0.380000	60.090000	69.440000	522.000000	0.000000	115.000000	60.000000	45.000000	65.000000
0.390000	60.510000	70.020000	512.000000	0.000000	118.000000	60.000000	42.000000	58.000000
0.400000	60.860000	70.490000	520.000000	0.000000	119.000000	60.000000	35.000000	47.000000
0.410000	61.140000	70.760000	520.000000	0.000000	122.000000	60.000000	28.000000	27.000000
0.420000	61.380000	70.900000	520.000000	0.000000	124.000000	60.000000	24.000000	14.000000
0.430000	61.550000	71.030000	519.000000	0.000000	125.000000	59.000000	17.000000	13.000000
0.440000	61.630000	71.030000	519.000000	0.000000	127.000000	59.000000	8.000000	0.000000
0.450000	61.630000	70.860000	544.000000	0.000000	128.000000	58.000000	0.000000	-17.000000
0.460000	61.630000	70.600000	545.000000	0.000000	127.000000	57.000000	0.000000	-26.000000
0.470000	61.480000	70.160000	565.000000	0.000000	128.000000	57.000000	-15.000000	-44.000000
0.480000	61.330000	69.610000	564.000000	0.000000	127.000000	57.000000	-15.000000	-55.000000
0.490000	61.220000	69.110000	570.000000	0.000000	127.000000	57.000000	-11.000000	-50.000000
0.500000	61.160000	68.730000	568.000000	0.000000	126.000000	58.000000	-6.000000	-38.000000
0.510000	61.160000	68.430000	546.000000	0.000000	124.000000	58.000000	0.000000	-30.000000
0.520000	61.300000	68.280000	529.000000	0.000000	124.000000	58.000000	14.000000	-15.000000
0.530000	61.450000	68.280000	527.000000	0.000000	123.000000	59.000000	15.000000	0.000000
0.540000	61.650000	68.400000	521.000000	0.000000	121.000000	59.000000	20.000000	12.000000
0.550000	61.900000	68.760000	527.000000	0.000000	121.000000	59.000000	25.000000	36.000000
0.560000	62.200000	69.160000	526.000000	0.000000	121.000000	59.000000	30.000000	40.000000
0.570000	62.550000	69.580000	526.000000	0.000000	121.000000	59.000000	35.000000	42.000000
0.580000	62.880000	69.870000	526.000000	0.000000	121.000000	59.000000	33.000000	29.000000
0.590000	63.190000	70.120000	522.000000	0.000000	121.000000	59.000000	31.000000	25.000000
0.600000	63.480000	70.320000	521.000000	0.000000	123.000000	59.000000	29.000000	20.000000
0.610000	63.690000	70.380000	519.000000	0.000000	123.000000	58.000000	21.000000	6.000000
0.620000	63.850000	70.380000	522.000000	0.000000	123.000000	58.000000	16.000000	0.000000
0.630000	63.920000	70.190000	538.000000	0.000000	123.000000	58.000000	7.000000	-19.000000
0.640000	63.920000	70.000000	543.000000	0.000000	124.000000	57.000000	0.000000	-19.000000
0.650000	63.920000	69.820000	557.000000	0.000000	124.000000	57.000000	0.000000	-18.000000
0.660000	63.980000	69.650000	554.000000	0.000000	124.000000	57.000000	6.000000	-17.000000
0.670000	64.080000	69.570000	545.000000	0.000000	124.000000	57.000000	10.000000	-8.000000
0.680000	64.260000	69.570000	546.000000	0.000000	124.000000	57.000000	18.000000	0.000000
0.690000	64.600000	69.720000	551.000000	0.000000	123.000000	56.000000	34.000000	15.000000
0.700000	65.040000	69.970000	554.000000	0.000000	123.000000	56.000000	44.000000	25.000000
0.710000	65.590000	70.190000	553.000000	0.000000	123.000000	56.000000	55.000000	22.000000
0.720000	66.160000	70.330000	546.000000	0.000000	123.000000	56.000000	57.000000	14.000000
0.730000	66.780000	70.380000	543.000000	0.000000	124.000000	57.000000	62.000000	5.000000
0.740000	67.410000	70.380000	542.000000	0.000000	124.000000	57.000000	63.000000	0.000000
0.750000	68.040000	70.300000	540.000000	0.000000	124.000000	57.000000	63.000000	-8.000000
0.760000	68.580000	70.090000	543.000000	0.000000	126.000000	58.000000	54.000000	-21.000000
0.770000	69.050000	69.770000	551.000000	0.000000	126.000000	58.000000	47.000000	-32.000000
0.780000	69.340000	69.160000	553.000000	0.000000	127.000000	59.000000	29.000000	-61.000000
0.790000	69.440000	68.510000	556.000000	0.000000	126.000000	60.000000	10.000000	-65.000000
0.800000	69.440000	67.780000	557.000000	0.000000	128.000000	61.000000	0.000000	-73.000000
0.810000	69.240000	67.010000	553.000000	0.000000	126.000000	61.000000	-20.000000	-77.000000
0.820000	68.830000	66.230000	537.000000	0.000000	126.000000	62.000000	-41.000000	-78.000000
0.830000	68.270000	65.470000	546.000000	0.000000	124.000000	63.000000	-56.000000	-76.000000
0.840000	67.320000	64.710000	535.000000	0.000000	122.000000	63.000000	-95.000000	-76.000000
0.850000	66.030000	63.970000	529.000000	0.000000	120.000000	64.000000	-129.000000	-74.000000
0.860000	64.510000	63.110000	512.000000	0.000000	120.000000	64.000000	-152.000000	-86.000000
0.870000	62.530000	62.240000	519.000000	0.000000	119.000000	63.000000	-198.000000	-87.000000
0.880000	60.280000	61.360000	546.000000	0.000000	119.000000	63.000000	-225.000000	-88.000000
0.890000	57.860000	60.570000	538.000000	0.000000	118.000000	62.000000	-242.000000	-79.000000
0.900000	55.390000	59.820000	546.000000	0.000000	118.000000	62.000000	-247.000000	-75.000000
0.910000	53.190000	59.220000	536.000000	0.000000	117.000000	61.000000	-220.000000	-60.000000
0.920000	51.160000	58.870000	562.000000	0.000000	119.000000	61.000000	-203.000000	-35.000000
0.930000	49.550000	58.690000	564.000000	0.000000	116.000000	60.000000	-161.000000	-18.000000
0.940000	48.550000	58.770000	578.000000	0.000000	116.000000	60.000000	-100.000000	8.000000
0.950000	47.960000	59.070000	585.000000	0.000000	116.000000	60.000000	-59.000000	30.000000
0.960000	47.960000	59.510000	589.000000	0.000000	116.000000	60.000000	0.000000	44.000000
0.970000	48.520000	60.260000	585.000000	0.000000	116.000000	60.000000	56.000000	75.000000
0.980000	49.480000	61.240000	602.000000	0.000000	116.000000	60.000000	96.000000	98.000000
0.990000	51.040000	62.380000	617.000000	0.000000	116.000000	60.000000	156.000000	114.000000
1.000000	53.110000	63.670000	641.000000	0.000000	118.000000	60.000000	207.000000	129.000000
1.010000	55.520000	64.950000	653.000000	0.000000	118.000000	60.000000	241.000000	128.000000
1.020000	58.240000	66.190000	668.000000	0.000000	119.000000	61.000000	272.000000	124.000000
1.030000	61.040000	67.420000	664.000000	0.000000	120.000000	60.000000	280.000000	123.000000
1.040000	63.890000	68.690000	658.000000	0.000000	120.000000	60.000000	285.000000	127.000000
1.050000	66.900000	70.000000	650.000000	0.000000	122.000000	61.000000	301.000000	131.000000
1.060000	69.930000	71.310000	641.000000	0.000000	123.000000	61.000000	303.000000	131.000000
1.070000	72.960000	72.300000	592.000000	0.000000	123.000000	61.000000	303.000000	99.000000
1.080000	75.630000	73.100000	518.000000	0.000000	126.000000	61.000000	267.000000	80.000000
1.090000	77.900000	73.780000	495.000000	0.000000	128.000000	61.000000	227.000000	68.000000
1.100000	79.900000	74.250000	371.000000	0.000000	131.000000	61.000000	200.000000	47.000000
1.110000	81.280000	74.570000	161.000000	0.000000	134.000000	61.000000	138.000000	32.000000
1.120000	81.280000	74.570000	0.000000	1.000000	134.000000	61.000000	0.000000	0.000000
1.130000	82.900000	74.880000	0.000000	0.000000	134.000000	61.000000	162.000000	31.000000
1.140000	83.220000	75.010000	0.000000	0.000000	134.000000	61.000000	32.000000	13.000000
1.150000	83.370000	75.160000	0.000000	0.000000	134.000000	61.000000	15.000000	15.000000
1.160000	83.370000	75.240000	0.000000	0.000000	134.000000	61.000000	0.000000	8.000000
1.170000	83.300000	75.240000	0.000000	0.000000	134.000000	61.000000	-7.000000	0.000000
1.180000	82.990000	75.240000	0.000000	0.000000	132.000000	60.000000	-31.000000	0.000000
1.190000	82.530000	75.040000	0.000000	0.000000	131.000000	60.000000	-46.000000	-20.000000
1.200000	81.970000	74.860000	0.000000	0.000000	131.000000	58.000000	-56.000000	-18.000000
1.210000	81.440000	74.680000	0.000000	0.000000	130.000000	58.000000	-53.000000	-18.000000
1.220000	80.940000	74.570000	0.000000	0.000000	130.000000	56.000000	-50.000000	-11.000000
1.230000	80.050000	74.520000	0.000000	0.000000	129.000000	56.000000	-89.000000	-5.000000
1.240000	79.180000	74.430000	0.000000	0.000000	128.000000	54.000000	-87.000000	-9.000000
1.250000	78.320000	74.200000	0.000000	0.000000	125.000000	53.000000	-86.000000	-23.000000
1.260000	77.580000	73.870000	0.000000	0.000000	126.000000	51.000000	-74.000000	-33.000000
1.270000	76.780000	73.770000	0.000000	0.000000	126.000000	51.000000	-80.000000	-10.000000
1.280000	75.940000	73.670000	0.000000	0.000000	127.000000	52.000000	-84.000000	-10.000000
1.290000	75.180000	73.670000	0.000000	0.000000	129.000000	52.000000	-76.000000	0.000000
1.300000	74.210000	73.670000	0.000000	0.000000	129.000000	52.000000	-97.000000	0.000000
1.310000	73.090000	73.820000	0.000000	0.000000	130.000000	53.000000	-112.000000	15.000000
1.320000	71.310000	73.940000	0.000000	0.000000	130.000000	53.000000	-178.000000	12.000000
1.330000	69.330000	74.100000	0.000000	0.000000	130.000000	53.000000	-198.000000	16.000000
1.340000	67.210000	74.280000	0.000000	0.000000	131.000000	52.000000	-212.000000	18.000000
1.350000	65.450000	74.370000	0.000000	0.000000	132.000000	51.000000	-176.000000	9.000000
1.360000	63.900000	74.440000	0.000000	0.000000	130.000000	51.000000	-155.000000	7.000000
1.370000	62.490000	74.620000	0.000000	0.000000	129.000000	49.000000	-141.000000	18.000000
1.380000	60.680000	74.880000	0.000000	0.000000	128.000000	47.000000	-181.000000	26.000000
1.390000	58.830000	74.670000	0.000000	0.000000	129.000000	46.000000	-185.000000	-21.000000
1.400000	56.950000	74.040000	0.000000	0.000000	129.000000	45.000000	-188.000000	-63.000000
1.410000	55.510000	73.140000	0.000000	0.000000	128.000000	44.000000	-144.000000	-90.000000
1.420000	54.250000	71.970000	0.000000	0.000000	129.000000	44.000000	-126.000000	-117.000000
1.430000	53.120000	70.620000	0.000000	0.000000	130.000000	46.000000	-113.000000	-135.000000
1.440000	51.760000	69.150000	0.000000	0.000000	131.000000	46.000000	-136.000000	-147.000000
1.450000	50.630000	67.740000	0.000000	0.000000	133.000000	48.000000	-113.000000	-141.000000
1.460000	49.640000	66.660000	0.000000	0.000000	133.000000	51.000000	-99.000000	-108.000000
1.470000	49.480000	65.800000	0.000000	0.000000	133.000000	53.000000	-16.000000	-86.000000
1.480000	49.430000	65.330000	0.000000	0.000000	131.000000	55.000000	-5.000000	-47.000000
1.490000	49.430000	64.980000	0.000000	0.000000	130.000000	56.000000	0.000000	-35.000000
1.500000	49.430000	64.700000	0.000000	0.000000	128.000000	57.000000	0.000000	-28.000000
1.510000	49.480000	64.360000	0.000000	0.000000	127.000000	57.000000	5.000000	-34.000000
1.520000	49.650000	64.040000	0.000000	0.000000	123.000000	58.000000	17.000000	-32.000000
1.530000	49.930000	63.840000	0.000000	0.000000	120.000000	57.000000	28.000000	-20.000000
1.540000	50.270000	63.710000	0.000000	0.000000	120.000000	57.000000	34.000000	-13.000000
1.550000	50.610000	63.760000	0.000000	0.000000	120.000000	57.000000	34.000000	5.000000
1.560000	50.950000	63.810000	0.000000	0.000000	120.000000	57.000000	34.000000	5.000000
1.570000	51.150000	63.810000	0.000000	0.000000	120.000000	57.000000	20.000000	0.000000
1.580000	51.280000	63.750000	0.000000	0.000000	120.000000	57.000000	13.000000	-6.000000
1.590000	51.280000	63.750000	0.000000	0.000000	120.000000	57.000000	0.000000	0.000000
1.600000	51.260000	63.450000	0.000000	0.000000	120.000000	57.000000	-2.000000	-30.000000
1.610000	51.120000	63.250000	0.000000	0.000000	120.000000	57.000000	-14.000000	-20.000000
1.620000	50.980000	63.010000	0.000000	0.000000	120.000000	57.000000	-14.000000	-24.000000
1.630000	50.840000	62.660000	0.000000	0.000000	120.000000	57.000000	-14.000000	-35.000000
1.640000	50.620000	62.280000	0.000000	0.000000	120.000000	57.000000	-22.000000	-38.000000
1.650000	50.350000	62.010000	0.000000	0.000000	120.000000	57.000000	-27.000000	-27.000000
1.660000	50.070000	61.810000	0.000000	0.000000	120.000000	57.000000	-28.000000	-20.000000
1.670000	49.780000	61.600000	0.000000	0.000000	121.000000	58.000000	-29.000000	-21.000000
1.680000	49.480000	61.370000	0.000000	0.000000	121.000000	58.000000	-30.000000	-23.000000
1.690000	49.170000	61.130000	0.000000	0.000000	121.000000	58.000000	-31.000000	-24.000000
1.700000	48.960000	60.860000	0.000000	0.000000	123.000000	59.000000	-21.000000	-27.000000
1.710000	48.790000	60.660000	0.000000	0.000000	123.000000	59.000000	-17.000000	-20.000000
1.720000	48.700000	60.500000	0.000000	0.000000	123.000000	59.000000	-9.000000	-16.000000
1.730000	48.700000	60.390000	0.000000	0.000000	124.000000	60.000000	0.000000	-11.000000
1.740000	48.700000	60.390000	0.000000	0.000000	124.000000	60.000000	0.000000	0.000000
1.750000	48.640000	60.390000	0.000000	0.000000	124.000000	60.000000	-6.000000	0.000000
1.760000	48.640000	60.520000	0.000000	0.000000	124.000000	60.000000	0.000000	13.000000
1.770000	48.640000	60.650000	0.000000	0.000000	124.000000	60.000000	0.000000	13.000000
1.780000	48.640000	60.790000	0.000000	0.000000	124.000000	60.000000	0.000000	14.000000
1.790000	48.640000	60.790000	32.000000	1.000000	124.000000	60.000000	0.000000	0.000000
1.800000	48.580000	61.050000	83.000000	0.000000	124.000000	60.000000	-6.000000	26.000000
1.810000	48.480000	61.130000	81.000000	0.000000	124.000000	60.000000	-10.000000	8.000000
1.820000	48.480000	61.130000	91.000000	0.000000	124.000000	60.000000	0.000000	0.000000
1.830000	48.480000	61.250000	168.000000	0.000000	125.000000	60.000000	0.000000	12.000000
1.840000	48.480000	61.360000	256.000000	0.000000	125.000000	60.000000	0.000000	11.000000
1.850000	48.480000	61.480000	333.000000	0.000000	125.000000	60.000000	0.000000	12.000000
1.860000	48.700000	61.740000	405.000000	0.000000	125.000000	60.000000	22.000000	26.000000
1.870000	48.980000	62.090000	448.000000	0.000000	126.000000	60.000000	28.000000	35.000000
1.880000	49.500000	62.630000	502.000000	0.000000	126.000000	60.000000	52.000000	54.000000
1.890000	50.260000	63.210000	526.000000	0.000000	126.000000	60.000000	76.000000	58.000000
1.900000	51.190000	63.820000	551.000000	0.000000	126.000000	60.000000	93.000000	61.000000
1.910000	52.360000	64.290000	556.000000	0.000000	126.000000	60.000000	117.000000	47.000000
1.920000	53.470000	64.570000	561.000000	0.000000	125.000000	59.000000	111.000000	28.000000
1.930000	54.530000	64.720000	564.000000	0.000000	124.000000	60.000000	106.000000	15.000000
1.940000	55.540000	64.720000	564.000000	0.000000	124.000000	60.000000	101.000000	0.000000
1.950000	56.260000	64.400000	565.000000	0.000000	124.000000	60.000000	72.000000	-32.000000
1.960000	56.780000	63.950000	563.000000	0.000000	123.000000	59.000000	52.000000	-45.000000
1.970000	57.020000	63.300000	575.000000	0.000000	123.000000	59.000000	24.000000	-65.000000
1.980000	56.880000	62.500000	575.000000	0.000000	124.000000	60.000000	-14.000000	-80.000000
1.990000	56.490000	61.590000	580.000000	0.000000	124.000000	60.000000	-39.000000	-91.000000
2.000000	55.770000	60.550000	605.000000	0.000000	124.000000	60.000000	-72.000000	-104.000000
2.010000	54.860000	59.490000	613.000000	0.000000	124.000000	60.000000	-91.000000	-106.000000
2.020000	53.810000	58.570000	631.000000	0.000000	122.000000	60.000000	-105.000000	-92.000000
2.030000	52.940000	57.750000	633.000000	0.000000	122.000000	60.000000	-87.000000	-82.000000
2.040000	52.120000	57.210000	636.000000	0.000000	120.000000	60.000000	-82.000000	-54.000000
2.050000	51.660000	56.910000	647.000000	0.000000	118.000000	60.000000	-46.000000	-30.000000
2.060000	51.430000	56.760000	647.000000	0.000000	116.000000	60.000000	-23.000000	-15.000000
2.070000	51.510000	56.760000	647.000000	0.000000	114.000000	61.000000	8.000000	0.000000
2.080000	51.820000	56.900000	655.000000	0.000000	113.000000	61.000000	31.000000	14.000000
2.090000	52.280000	57.040000	670.000000	0.000000	113.000000	61.000000	46.000000	14.000000
2.100000	53.180000	57.410000	673.000000	0.000000	113.000000	61.000000	90.000000	37.000000
2.110000	54.580000	58.040000	699.000000	0.000000	113.000000	61.000000	140.000000	63.000000
2.120000	56.300000	58.840000	710.000000	0.000000	114.000000	62.000000	172.000000	80.000000
2.130000	58.670000	59.690000	734.000000	0.000000	115.000000	62.000000	237.000000	85.000000
2.140000	61.050000	60.540000	750.000000	0.000000	115.000000	62.000000	238.000000	85.000000
2.150000	63.710000	61.400000	762.000000	0.000000	118.000000	62.000000	266.000000	86.000000
2.160000	66.540000	62.230000	761.000000	0.000000	120.000000	62.000000	283.000000	83.000000
2.170000	69.490000	63.030000	730.000000	0.000000	123.000000	62.000000	295.000000	80.000000
2.180000	72.080000	63.760000	727.000000	0.000000	123.000000	62.000000	259.000000	73.000000
2.190000	74.420000	64.460000	708.000000	0.000000	126.000000	62.000000	234.000000	70.000000
2.200000	76.520000	65.090000	666.000000	0.000000	127.000000	63.000000	210.000000	63.000000
