t	x	y	pressure	penup	azimuth	inclination	v_x	v_y
0.000000	94.010000	31.120000	136.000000	1.000000	145.000000	53.000000	0.000000	0.000000
0.010000	94.010000	31.120000	184.000000	0.000000	145.000000	53.000000	0.000000	0.000000
0.020000	94.010000	31.120000	279.000000	0.000000	146.000000	53.000000	0.000000	0.000000
0.030000	94.010000	31.120000	422.000000	0.000000	146.000000	53.000000	0.000000	0.000000
0.040000	94.010000	31.120000	485.000000	0.000000	146.000000	53.000000	0.000000	0.000000
0.050000	94.010000	31.120000	540.000000	0.000000	146.000000	53.000000	0.000000	0.000000
0.060000	94.430000	31.470000	572.000000	0.000000	147.000000	53.000000	42.000000	35.000000
0.070000	94.790000	31.650000	625.000000	0.000000	147.000000	53.000000	36.000000	18.000000
0.080000	95.170000	31.810000	652.000000	0.000000	148.000000	53.000000	38.000000	16.000000
0.090000	95.570000	31.940000	673.000000	0.000000	148.000000	53.000000	40.000000	13.000000
0.100000	96.030000	32.090000	699.000000	0.000000	149.000000	53.000000	46.000000	15.000000
0.110000	96.520000	32.220000	716.000000	0.000000	149.000000	53.000000	49.000000	13.000000
0.120000	96.840000	32.220000	725.000000	0.000000	149.000000	53.000000	32.000000	0.000000
0.130000	97.030000	32.110000	722.000000	0.000000	149.000000	53.000000	19.000000	-11.000000
0.140000	97.120000	31.990000	761.000000	0.000000	149.000000	53.000000	9.000000	-12.000000
0.150000	97.120000	31.820000	794.000000	0.000000	149.000000	53.000000	0.000000	-17.000000
0.160000	97.050000	31.580000	794.000000	0.000000	149.000000	53.000000	-7.000000	-24.000000
0.170000	96.880000	31.300000	817.000000	0.000000	149.000000	53.000000	-17.000000	-28.000000
0.180000	96.530000	30.810000	827.000000	0.000000	149.000000	53.000000	-35.000000	-49.000000
0.190000	96.050000	30.170000	843.000000	0.000000	149.000000	53.000000	-48.000000	-64.000000
0.200000	95.460000	29.460000	852.000000	0.000000	149.000000	53.000000	-59.000000	-71.000000
0.210000	94.820000	28.730000	866.000000	0.000000	148.000000	54.000000	-64.000000	-73.000000
0.220000	94.150000	27.930000	857.000000	0.000000	148.000000	54.000000	-67.000000	-80.000000
0.230000	93.600000	27.100000	864.000000	0.000000	148.000000	54.000000	-55.000000	-83.000000
0.240000	93.300000	26.740000	879.000000	0.000000	146.000000	54.000000	-30.000000	-36.000000
0.250000	93.170000	26.510000	894.000000	0.000000	146.000000	54.000000	-13.000000	-23.000000
0.260000	93.120000	26.380000	900.000000	0.000000	144.000000	54.000000	-5.000000	-13.000000
0.270000	93.120000	26.380000	908.000000	0.000000	143.000000	55.000000	0.000000	0.000000
0.280000	93.120000	26.300000	896.000000	0.000000	140.000000	55.000000	0.000000	-8.000000
0.290000	93.220000	26.300000	933.000000	0.000000	140.000000	55.000000	10.000000	0.000000
0.300000	93.620000	26.300000	974.000000	0.000000	139.000000	56.000000	40.000000	0.000000
0.310000	94.240000	26.370000	991.000000	0.000000	138.000000	55.000000	62.000000	7.000000
0.320000	95.550000	26.870000	1023.000000	0.000000	139.000000	56.000000	131.000000	50.000000
0.330000	97.600000	27.630000	1023.000000	0.000000	139.000000	56.000000	205.000000	76.000000
0.340000	100.130000	28.560000	1023.000000	0.000000	139.000000	56.000000	253.000000	93.000000
0.350000	102.900000	29.290000	1023.000000	0.000000	141.000000	56.000000	277.000000	73.000000
0.360000	105.730000	29.960000	1023.000000	0.000000	143.000000	56.000000	283.000000	67.000000
0.370000	108.600000	30.340000	1023.000000	0.000000	144.000000	56.000000	287.000000	38.000000
0.380000	111.070000	30.560000	1023.000000	0.000000	145.000000	56.000000	247.000000	22.000000
0.390000	112.920000	30.510000	1023.000000	0.000000	146.000000	55.000000	185.000000	-5.000000
0.400000	114.350000	30.810000	1023.000000	0.000000	145.000000	56.000000	143.000000	30.000000
0.410000	115.180000	30.980000	1023.000000	0.000000	145.000000	56.000000	83.000000	17.000000
0.420000	115.420000	30.980000	1023.000000	0.000000	145.000000	56.000000	24.000000	0.000000
0.430000	115.270000	30.980000	945.000000	0.000000	143.000000	56.000000	-15.000000	0.000000
0.440000	115.090000	31.030000	394.000000	0.000000	142.000000	57.000000	-18.000000	5.000000
0.450000	115.090000	31.030000	0.000000	1.000000	140.000000	56.000000	0.000000	0.000000
0.460000	113.220000	31.030000	0.000000	0.000000	140.000000	56.000000	-187.000000	0.000000
0.470000	111.490000	31.030000	0.000000	0.000000	140.000000	56.000000	-173.000000	0.000000
0.480000	109.750000	31.030000	0.000000	0.000000	139.000000	56.000000	-174.000000	0.000000
0.490000	107.990000	30.980000	0.000000	0.000000	139.000000	56.000000	-176.000000	-5.000000
0.500000	106.790000	30.860000	0.000000	0.000000	140.000000	55.000000	-120.000000	-12.000000
0.510000	106.100000	31.240000	0.000000	0.000000	139.000000	55.000000	-69.000000	38.000000
0.520000	105.750000	31.240000	0.000000	0.000000	140.000000	54.000000	-35.000000	0.000000
0.530000	105.320000	31.090000	0.000000	0.000000	140.000000	54.000000	-43.000000	-15.000000
0.540000	104.660000	30.980000	0.000000	0.000000	141.000000	53.000000	-66.000000	-11.000000
0.550000	103.840000	30.870000	0.000000	0.000000	141.000000	53.000000	-82.000000	-11.000000
0.560000	102.910000	30.770000	0.000000	0.000000	141.000000	53.000000	-93.000000	-10.000000
0.570000	102.140000	30.770000	0.000000	0.000000	142.000000	53.000000	-77.000000	0.000000
0.580000	101.480000	30.820000	0.000000	0.000000	142.000000	53.000000	-66.000000	5.000000
0.590000	101.070000	30.930000	0.000000	0.000000	142.000000	53.000000	-41.000000	11.000000
0.600000	100.870000	30.930000	0.000000	0.000000	141.000000	52.000000	-20.000000	0.000000
0.610000	100.800000	30.760000	0.000000	0.000000	141.000000	52.000000	-7.000000	-17.000000
0.620000	100.800000	31.250000	0.000000	0.000000	141.000000	52.000000	0.000000	49.000000
0.630000	100.800000	31.420000	0.000000	0.000000	141.000000	52.000000	0.000000	17.000000
0.640000	100.800000	31.420000	0.000000	0.000000	142.000000	53.000000	0.000000	0.000000
0.650000	100.740000	31.420000	0.000000	0.000000	143.000000	52.000000	-6.000000	0.000000
0.660000	100.540000	31.490000	0.000000	0.000000	145.000000	53.000000	-20.000000	7.000000
0.670000	100.420000	31.490000	0.000000	0.000000	146.000000	53.000000	-12.000000	0.000000
0.680000	100.310000	31.540000	0.000000	0.000000	146.000000	53.000000	-11.000000	5.000000
0.690000	100.240000	31.540000	0.000000	0.000000	146.000000	53.000000	-7.000000	0.000000
0.700000	100.240000	31.540000	0.000000	0.000000	147.000000	53.000000	0.000000	0.000000
0.710000	100.170000	31.470000	0.000000	0.000000	147.000000	53.000000	-7.000000	-7.000000
0.720000	100.050000	31.470000	0.000000	0.000000	147.000000	53.000000	-12.000000	0.000000
0.730000	99.870000	31.470000	0.000000	0.000000	147.000000	53.000000	-18.000000	0.000000
0.740000	99.600000	31.470000	0.000000	0.000000	147.000000	53.000000	-27.000000	0.000000
0.750000	99.360000	31.550000	0.000000	0.000000	147.000000	53.000000	-24.000000	8.000000
0.760000	99.200000	31.550000	0.000000	0.000000	148.000000	54.000000	-16.000000	0.000000
0.770000	99.100000	31.630000	0.000000	0.000000	148.000000	54.000000	-10.000000	8.000000
0.780000	99.040000	31.630000	0.000000	0.000000	148.000000	54.000000	-6.000000	0.000000
0.790000	98.990000	31.700000	0.000000	0.000000	148.000000	54.000000	-5.000000	7.000000
0.800000	98.990000	31.700000	0.000000	0.000000	148.000000	54.000000	0.000000	0.000000
0.810000	98.900000	31.700000	0.000000	0.000000	147.000000	53.000000	-9.000000	0.000000
0.820000	98.820000	31.700000	0.000000	0.000000	147.000000	53.000000	-8.000000	0.000000
0.830000	98.820000	31.620000	0.000000	0.000000	148.000000	54.000000	0.000000	-8.000000
0.840000	98.720000	31.620000	0.000000	0.000000	148.000000	54.000000	-10.000000	0.000000
0.850000	98.670000	31.570000	0.000000	0.000000	148.000000	54.000000	-5.000000	-5.000000
0.860000	98.610000	31.570000	0.000000	0.000000	148.000000	54.000000	-6.000000	0.000000
0.870000	98.530000	31.640000	0.000000	0.000000	148.000000	54.000000	-8.000000	7.000000
0.880000	98.530000	31.640000	0.000000	0.000000	148.000000	54.000000	0.000000	0.000000
0.890000	98.530000	31.700000	0.000000	0.000000	148.000000	54.000000	0.000000	6.000000
0.900000	98.530000	31.700000	0.000000	0.000000	148.000000	54.000000	0.000000	0.000000
0.910000	98.600000	31.640000	0.000000	0.000000	148.000000	54.000000	7.000000	-6.000000
0.920000	98.600000	31.580000	0.000000	0.000000	148.000000	54.000000	0.000000	-6.000000
0.930000	98.600000	31.530000	0.000000	0.000000	148.000000	54.000000	0.000000	-5.000000
0.940000	98.650000	31.530000	0.000000	0.000000	148.000000	54.000000	5.000000	0.000000
0.950000	98.650000	31.530000	0.000000	0.000000	148.000000	54.000000	0.000000	0.000000
0.960000	98.600000	31.580000	0.000000	0.000000	148.000000	54.000000	-5.000000	5.000000
0.970000	98.600000	31.580000	0.000000	0.000000	148.000000	54.000000	0.000000	0.000000
0.980000	98.600000	31.660000	0.000000	0.000000	150.000000	54.000000	0.000000	8.000000
0.990000	98.660000	31.660000	0.000000	0.000000	150.000000	54.000000	6.000000	0.000000
1.000000	98.660000	31.600000	0.000000	0.000000	150.000000	54.000000	0.000000	-6.000000
1.010000	98.660000	31.520000	0.000000	0.000000	150.000000	54.000000	0.000000	-8.000000
1.020000	98.660000	31.440000	0.000000	0.000000	150.000000	54.000000	0.000000	-8.000000
1.030000	98.720000	31.350000	0.000000	0.000000	150.000000	54.000000	6.000000	-9.000000
1.040000	98.720000	31.350000	10.000000	0.000000	150.000000	54.000000	0.000000	0.000000
1.050000	98.720000	31.350000	81.000000	1.000000	150.000000	54.000000	0.000000	0.000000
1.060000	98.720000	31.350000	104.000000	0.000000	150.000000	54.000000	0.000000	0.000000
1.070000	98.720000	31.350000	170.000000	0.000000	150.000000	54.000000	0.000000	0.000000
1.080000	98.720000	31.350000	212.000000	0.000000	150.000000	54.000000	0.000000	0.000000
1.090000	98.980000	31.330000	279.000000	0.000000	150.000000	54.000000	26.000000	-2.000000
1.100000	99.080000	31.330000	366.000000	0.000000	150.000000	54.000000	10.000000	0.000000
1.110000	99.160000	31.330000	405.000000	0.000000	150.000000	54.000000	8.000000	0.000000
1.120000	99.240000	31.330000	469.000000	0.000000	150.000000	54.000000	8.000000	0.000000
1.130000	99.240000	31.330000	522.000000	0.000000	150.000000	54.000000	0.000000	0.000000
1.140000	99.300000	31.390000	581.000000	0.000000	150.000000	54.000000	6.000000	6.000000
1.150000	99.420000	31.470000	639.000000	0.000000	150.000000	54.000000	12.000000	8.000000
1.160000	99.590000	31.580000	666.000000	0.000000	148.000000	54.000000	17.000000	11.000000
1.170000	99.810000	31.790000	691.000000	0.000000	147.000000	53.000000	22.000000	21.000000
1.180000	100.050000	31.990000	697.000000	0.000000	147.000000	53.000000	24.000000	20.000000
1.190000	100.270000	32.220000	733.000000	0.000000	146.000000	53.000000	22.000000	23.000000
1.200000	100.480000	32.480000	752.000000	0.000000	145.000000	53.000000	21.000000	26.000000
1.210000	100.580000	32.690000	768.000000	0.000000	145.000000	53.000000	10.000000	21.000000
1.220000	100.660000	32.910000	785.000000	0.000000	142.000000	53.000000	8.000000	22.000000
1.230000	100.730000	33.150000	785.000000	0.000000	142.000000	53.000000	7.000000	24.000000
1.240000	100.790000	33.450000	799.000000	0.000000	141.000000	52.000000	6.000000	30.000000
1.250000	100.850000	33.690000	806.000000	0.000000	142.000000	53.000000	6.000000	24.000000
1.260000	100.920000	33.930000	815.000000	0.000000	142.000000	53.000000	7.000000	24.000000
1.270000	100.980000	34.160000	818.000000	0.000000	142.000000	53.000000	6.000000	23.000000
1.280000	101.030000	34.310000	829.000000	0.000000	142.000000	54.000000	5.000000	15.000000
1.290000	101.080000	34.450000	829.000000	0.000000	142.000000	54.000000	5.000000	14.000000
1.300000	101.180000	34.620000	827.000000	0.000000	142.000000	54.000000	10.000000	17.000000
1.310000	101.290000	34.800000	832.000000	0.000000	142.000000	54.000000	11.000000	18.000000
1.320000	101.350000	34.890000	830.000000	0.000000	144.000000	54.000000	6.000000	9.000000
1.330000	101.350000	34.950000	832.000000	0.000000	144.000000	54.000000	0.000000	6.000000
1.340000	101.350000	34.950000	832.000000	0.000000	144.000000	54.000000	0.000000	0.000000
1.350000	101.350000	34.950000	821.000000	0.000000	143.000000	55.000000	0.000000	0.000000
1.360000	101.350000	34.950000	812.000000	0.000000	143.000000	55.000000	0.000000	0.000000
1.370000	101.350000	34.950000	800.000000	0.000000	143.000000	55.000000	0.000000	0.000000
1.380000	101.350000	34.950000	791.000000	0.000000	143.000000	55.000000	0.000000	0.000000
1.390000	101.350000	34.950000	784.000000	0.000000	143.000000	55.000000	0.000000	0.000000
1.400000	101.350000	34.950000	797.000000	0.000000	143.000000	55.000000	0.000000	0.000000
1.410000	101.350000	34.550000	796.000000	0.000000	143.000000	55.000000	0.000000	-40.000000
1.420000	101.350000	34.330000	793.000000	0.000000	143.000000	55.000000	0.000000	-22.000000
1.430000	101.350000	34.120000	785.000000	0.000000	143.000000	55.000000	0.000000	-21.000000
1.440000	101.350000	33.920000	787.000000	0.000000	144.000000	54.000000	0.000000	-20.000000
1.450000	101.280000	33.680000	780.000000	0.000000	144.000000	54.000000	-7.000000	-24.000000
1.460000	101.280000	33.450000	779.000000	0.000000	144.000000	54.000000	0.000000	-23.000000
1.470000	101.280000	33.260000	777.000000	0.000000	144.000000	54.000000	0.000000	-19.000000
1.480000	101.340000	33.160000	777.000000	0.000000	144.000000	54.000000	6.000000	-10.000000
1.490000	101.450000	33.110000	776.000000	0.000000	144.000000	54.000000	11.000000	-5.000000
1.500000	101.580000	33.110000	780.000000	0.000000	144.000000	54.000000	13.000000	0.000000
1.510000	101.740000	33.110000	779.000000	0.000000	145.000000	54.000000	16.000000	0.000000
1.520000	101.900000	33.170000	780.000000	0.000000	145.000000	54.000000	16.000000	6.000000
1.530000	102.060000	33.170000	780.000000	0.000000	145.000000	54.000000	16.000000	0.000000
1.540000	102.230000	33.300000	784.000000	0.000000	143.000000	53.000000	17.000000	13.000000
1.550000	102.410000	33.430000	785.000000	0.000000	145.000000	54.000000	18.000000	13.000000
1.560000	102.580000	33.500000	785.000000	0.000000	145.000000	54.000000	17.000000	7.000000
1.570000	102.740000	33.570000	785.000000	0.000000	145.000000	54.000000	16.000000	7.000000
1.580000	102.850000	33.620000	787.000000	0.000000	145.000000	54.000000	11.000000	5.000000
1.590000	102.950000	33.690000	788.000000	0.000000	145.000000	54.000000	10.000000	7.000000
1.600000	103.070000	33.690000	790.000000	0.000000	144.000000	54.000000	12.000000	0.000000
1.610000	103.190000	33.780000	788.000000	0.000000	144.000000	54.000000	12.000000	9.000000
1.620000	103.350000	33.780000	791.000000	0.000000	144.000000	54.000000	16.000000	0.000000
1.630000	103.530000	33.780000	791.000000	0.000000	144.000000	54.000000	18.000000	0.000000
1.640000	103.700000	33.780000	788.000000	0.000000	144.000000	54.000000	17.000000	0.000000
1.650000	103.850000	33.780000	787.000000	0.000000	144.000000	54.000000	15.000000	0.000000
1.660000	103.930000	33.670000	787.000000	0.000000	144.000000	54.000000	8.000000	-11.000000
1.670000	103.930000	33.560000	791.000000	0.000000	144.000000	54.000000	0.000000	-11.000000
1.680000	103.880000	33.410000	796.000000	0.000000	144.000000	54.000000	-5.000000	-15.000000
1.690000	103.800000	33.180000	783.000000	0.000000	144.000000	54.000000	-8.000000	-23.000000
1.700000	103.620000	32.940000	797.000000	0.000000	144.000000	54.000000	-18.000000	-24.000000
1.710000	103.370000	32.710000	785.000000	0.000000	144.000000	54.000000	-25.000000	-23.000000
1.720000	103.150000	32.520000	785.000000	0.000000	144.000000	54.000000	-22.000000	-19.000000
1.730000	102.950000	32.360000	787.000000	0.000000	145.000000	54.000000	-20.000000	-16.000000
1.740000	102.950000	32.360000	790.000000	0.000000	145.000000	54.000000	0.000000	0.000000
1.750000	102.950000	32.360000	797.000000	0.000000	145.000000	54.000000	0.000000	0.000000
1.760000	102.950000	32.360000	800.000000	0.000000	145.000000	54.000000	0.000000	0.000000
1.770000	102.950000	32.360000	803.000000	0.000000	145.000000	54.000000	0.000000	0.000000
1.780000	102.950000	32.360000	805.000000	0.000000	145.000000	54.000000	0.000000	0.000000
1.790000	102.950000	32.360000	805.000000	0.000000	145.000000	54.000000	0.000000	0.000000
1.800000	102.950000	32.360000	805.000000	0.000000	145.000000	54.000000	0.000000	0.000000
1.810000	102.950000	32.360000	806.000000	0.000000	145.000000	54.000000	0.000000	0.000000
1.820000	102.950000	32.360000	808.000000	0.000000	145.000000	54.000000	0.000000	0.000000
1.830000	102.950000	32.360000	809.000000	0.000000	145.000000	54.000000	0.000000	0.000000
1.840000	103.270000	32.600000	808.000000	0.000000	145.000000	54.000000	32.000000	24.000000
1.850000	103.500000	32.730000	808.000000	0.000000	145.000000	54.000000	23.000000	13.000000
1.860000	103.710000	32.860000	808.000000	0.000000	145.000000	54.000000	21.000000	13.000000
1.870000	103.870000	32.860000	806.000000	0.000000	145.000000	54.000000	16.000000	0.000000
1.880000	103.980000	32.940000	806.000000	0.000000	145.000000	54.000000	11.000000	8.000000
1.890000	104.060000	32.940000	806.000000	0.000000	146.000000	54.000000	8.000000	0.000000
1.900000	104.140000	32.940000	808.000000	0.000000	146.000000	54.000000	8.000000	0.000000
1.910000	104.230000	32.940000	806.000000	0.000000	146.000000	54.000000	9.000000	0.000000
1.920000	104.330000	32.890000	806.000000	0.000000	146.000000	54.000000	10.000000	-5.000000
1.930000	104.440000	32.890000	803.000000	0.000000	146.000000	54.000000	11.000000	0.000000
1.940000	104.580000	32.800000	802.000000	0.000000	146.000000	54.000000	14.000000	-9.000000
1.950000	104.670000	32.720000	799.000000	0.000000	146.000000	54.000000	9.000000	-8.000000
1.960000	104.730000	32.630000	794.000000	0.000000	146.000000	54.000000	6.000000	-9.000000
1.970000	104.730000	32.580000	791.000000	0.000000	146.000000	54.000000	0.000000	-5.000000
1.980000	104.800000	32.580000	796.000000	0.000000	146.000000	54.000000	7.000000	0.000000
1.990000	104.800000	32.510000	797.000000	0.000000	147.000000	55.000000	0.000000	-7.000000
2.000000	104.800000	32.460000	797.000000	0.000000	147.000000	55.000000	0.000000	-5.000000
2.010000	104.720000	32.370000	800.000000	0.000000	147.000000	55.000000	-8.000000	-9.000000
2.020000	104.610000	32.270000	802.000000	0.000000	147.000000	55.000000	-11.000000	-10.000000
2.030000	104.460000	32.120000	800.000000	0.000000	147.000000	55.000000	-15.000000	-15.000000
2.040000	104.390000	32.030000	800.000000	0.000000	147.000000	55.000000	-7.000000	-9.000000
2.050000	104.300000	31.980000	799.000000	0.000000	147.000000	55.000000	-9.000000	-5.000000
2.060000	104.130000	31.840000	794.000000	0.000000	147.000000	55.000000	-17.000000	-14.000000
2.070000	103.900000	31.760000	797.000000	0.000000	147.000000	55.000000	-23.000000	-8.000000
2.080000	103.810000	31.760000	797.000000	0.000000	146.000000	54.000000	-9.000000	0.000000
2.090000	103.750000	31.760000	797.000000	0.000000	146.000000	54.000000	-6.000000	0.000000
2.100000	103.750000	31.760000	799.000000	0.000000	146.000000	54.000000	0.000000	0.000000
2.110000	103.750000	31.760000	800.000000	0.000000	146.000000	54.000000	0.000000	0.000000
2.120000	103.750000	31.760000	800.000000	0.000000	146.000000	54.000000	0.000000	0.000000
2.130000	103.750000	31.760000	799.000000	0.000000	146.000000	54.000000	0.000000	0.000000
2.140000	103.750000	31.760000	802.000000	0.000000	146.000000	54.000000	0.000000	0.000000
2.150000	103.750000	31.760000	803.000000	0.000000	146.000000	54.000000	0.000000	0.000000
2.160000	103.800000	31.760000	802.000000	0.000000	146.000000	54.000000	5.000000	0.000000
2.170000	103.860000	31.760000	800.000000	0.000000	146.000000	54.000000	6.000000	0.000000
2.180000	103.950000	31.830000	799.000000	0.000000	146.000000	54.000000	9.000000	7.000000
2.190000	104.130000	31.910000	797.000000	0.000000	146.000000	54.000000	18.000000	8.000000
2.200000	104.370000	32.050000	794.000000	0.000000	146.000000	54.000000	24.000000	14.000000
2.210000	104.580000	32.140000	793.000000	0.000000	146.000000	54.000000	21.000000	9.000000
