t	x	y	pressure	penup	azimuth	inclination	v_x	v_y
0.000000	88.780000	49.790000	235.000000	1.000000	126.000000	50.000000	0.000000	0.000000
0.010000	88.470000	48.620000	256.000000	0.000000	127.000000	51.000000	-31.000000	-117.000000
0.020000	88.070000	48.290000	250.000000	0.000000	128.000000	52.000000	-40.000000	-33.000000
0.030000	87.800000	48.220000	254.000000	0.000000	128.000000	52.000000	-27.000000	-7.000000
0.040000	87.610000	48.130000	241.000000	0.000000	129.000000	52.000000	-19.000000	-9.000000
0.050000	87.740000	48.210000	275.000000	0.000000	129.000000	52.000000	13.000000	8.000000
0.060000	87.910000	48.410000	319.000000	0.000000	130.000000	53.000000	17.000000	20.000000
0.070000	88.290000	48.670000	367.000000	0.000000	130.000000	53.000000	38.000000	26.000000
0.080000	88.780000	49.060000	420.000000	0.000000	130.000000	53.000000	49.000000	39.000000
0.090000	89.450000	49.530000	447.000000	0.000000	130.000000	53.000000	67.000000	47.000000
0.100000	90.060000	49.770000	467.000000	0.000000	130.000000	53.000000	61.000000	24.000000
0.110000	90.630000	49.960000	498.000000	0.000000	131.000000	52.000000	57.000000	19.000000
0.120000	91.130000	50.060000	509.000000	0.000000	130.000000	52.000000	50.000000	10.000000
0.130000	91.450000	49.880000	521.000000	0.000000	130.000000	52.000000	32.000000	-18.000000
0.140000	91.660000	49.540000	564.000000	0.000000	132.000000	51.000000	21.000000	-34.000000
0.150000	91.660000	48.950000	595.000000	0.000000	132.000000	51.000000	0.000000	-59.000000
0.160000	91.300000	47.970000	606.000000	0.000000	130.000000	52.000000	-36.000000	-98.000000
0.170000	90.710000	46.730000	627.000000	0.000000	130.000000	52.000000	-59.000000	-124.000000
0.180000	89.880000	45.470000	637.000000	0.000000	128.000000	52.000000	-83.000000	-126.000000
0.190000	89.090000	44.460000	669.000000	0.000000	128.000000	52.000000	-79.000000	-101.000000
0.200000	88.330000	43.610000	676.000000	0.000000	127.000000	52.000000	-76.000000	-85.000000
0.210000	88.250000	43.400000	656.000000	0.000000	127.000000	52.000000	-8.000000	-21.000000
0.220000	88.250000	43.340000	658.000000	0.000000	127.000000	52.000000	0.000000	-6.000000
0.230000	88.520000	43.390000	666.000000	0.000000	127.000000	52.000000	27.000000	5.000000
0.240000	88.990000	43.450000	681.000000	0.000000	127.000000	52.000000	47.000000	6.000000
0.250000	89.700000	43.600000	688.000000	0.000000	127.000000	52.000000	71.000000	15.000000
0.260000	90.560000	43.800000	690.000000	0.000000	128.000000	53.000000	86.000000	20.000000
0.270000	91.530000	44.080000	710.000000	0.000000	128.000000	53.000000	97.000000	28.000000
0.280000	92.580000	44.620000	746.000000	0.000000	127.000000	53.000000	105.000000	54.000000
0.290000	93.840000	45.330000	767.000000	0.000000	127.000000	53.000000	126.000000	71.000000
0.300000	95.250000	46.170000	771.000000	0.000000	127.000000	53.000000	141.000000	84.000000
0.310000	96.410000	46.970000	782.000000	0.000000	127.000000	53.000000	116.000000	80.000000
0.320000	97.320000	47.580000	794.000000	0.000000	127.000000	53.000000	91.000000	61.000000
0.330000	98.070000	48.070000	794.000000	0.000000	127.000000	53.000000	75.000000	49.000000
0.340000	98.680000	48.510000	791.000000	0.000000	128.000000	54.000000	61.000000	44.000000
0.350000	99.100000	48.800000	779.000000	0.000000	129.000000	55.000000	42.000000	29.000000
0.360000	99.400000	48.990000	736.000000	0.000000	129.000000	55.000000	30.000000	19.000000
0.370000	99.700000	49.250000	641.000000	0.000000	129.000000	55.000000	30.000000	26.000000
0.380000	99.960000	49.250000	527.000000	0.000000	130.000000	54.000000	26.000000	0.000000
0.390000	100.190000	49.100000	297.000000	0.000000	130.000000	54.000000	23.000000	-15.000000
0.400000	100.190000	49.100000	0.000000	1.000000	129.000000	55.000000	0.000000	0.000000
0.410000	100.550000	48.230000	0.000000	0.000000	129.000000	55.000000	36.000000	-87.000000
0.420000	100.600000	47.550000	0.000000	0.000000	129.000000	55.000000	5.000000	-68.000000
0.430000	100.390000	47.240000	0.000000	0.000000	127.000000	55.000000	-21.000000	-31.000000
0.440000	100.180000	47.160000	0.000000	0.000000	127.000000	55.000000	-21.000000	-8.000000
0.450000	99.990000	47.230000	0.000000	0.000000	127.000000	55.000000	-19.000000	7.000000
0.460000	99.740000	47.340000	0.000000	0.000000	127.000000	55.000000	-25.000000	11.000000
0.470000	99.440000	47.550000	0.000000	0.000000	128.000000	54.000000	-30.000000	21.000000
0.480000	99.300000	47.820000	0.000000	0.000000	128.000000	54.000000	-14.000000	27.000000
0.490000	99.300000	47.950000	0.000000	0.000000	128.000000	53.000000	0.000000	13.000000
0.500000	99.300000	48.020000	0.000000	0.000000	128.000000	52.000000	0.000000	7.000000
0.510000	99.470000	48.020000	0.000000	0.000000	127.000000	51.000000	17.000000	0.000000
0.520000	99.650000	48.020000	0.000000	0.000000	128.000000	50.000000	18.000000	0.000000
0.530000	99.840000	48.020000	0.000000	0.000000	128.000000	49.000000	19.000000	0.000000
0.540000	100.010000	48.100000	0.000000	0.000000	128.000000	49.000000	17.000000	8.000000
0.550000	100.140000	48.210000	0.000000	0.000000	128.000000	49.000000	13.000000	11.000000
0.560000	100.140000	48.210000	0.000000	0.000000	128.000000	49.000000	0.000000	0.000000
0.570000	100.140000	48.210000	0.000000	0.000000	129.000000	50.000000	0.000000	0.000000
0.580000	99.980000	48.280000	0.000000	0.000000	129.000000	50.000000	-16.000000	7.000000
0.590000	99.750000	48.210000	0.000000	0.000000	129.000000	50.000000	-23.000000	-7.000000
0.600000	99.490000	48.150000	0.000000	0.000000	129.000000	50.000000	-26.000000	-6.000000
0.610000	99.220000	48.090000	0.000000	0.000000	129.000000	50.000000	-27.000000	-6.000000
0.620000	98.940000	47.960000	0.000000	0.000000	130.000000	51.000000	-28.000000	-13.000000
0.630000	98.680000	47.810000	0.000000	0.000000	130.000000	51.000000	-26.000000	-15.000000
0.640000	98.410000	47.680000	0.000000	0.000000	133.000000	52.000000	-27.000000	-13.000000
0.650000	98.210000	47.560000	0.000000	0.000000	134.000000	52.000000	-20.000000	-12.000000
0.660000	98.030000	47.490000	0.000000	0.000000	134.000000	54.000000	-18.000000	-7.000000
0.670000	97.860000	47.430000	0.000000	0.000000	136.000000	55.000000	-17.000000	-6.000000
0.680000	97.720000	47.360000	0.000000	0.000000	138.000000	55.000000	-14.000000	-7.000000
0.690000	97.590000	47.280000	0.000000	0.000000	139.000000	56.000000	-13.000000	-8.000000
0.700000	97.480000	47.190000	0.000000	0.000000	138.000000	57.000000	-11.000000	-9.000000
0.710000	97.390000	47.080000	0.000000	0.000000	139.000000	57.000000	-9.000000	-11.000000
0.720000	97.320000	46.970000	0.000000	0.000000	138.000000	57.000000	-7.000000	-11.000000
0.730000	97.320000	46.970000	0.000000	0.000000	136.000000	57.000000	0.000000	0.000000
0.740000	97.320000	46.970000	0.000000	0.000000	136.000000	57.000000	0.000000	0.000000
0.750000	97.120000	46.660000	0.000000	0.000000	135.000000	57.000000	-20.000000	-31.000000
0.760000	97.120000	46.660000	0.000000	0.000000	135.000000	57.000000	0.000000	0.000000
0.770000	97.120000	46.660000	0.000000	0.000000	134.000000	57.000000	0.000000	0.000000
0.780000	97.180000	46.720000	0.000000	0.000000	134.000000	57.000000	6.000000	6.000000
0.790000	97.310000	46.790000	0.000000	0.000000	134.000000	57.000000	13.000000	7.000000
0.800000	97.470000	46.890000	0.000000	0.000000	132.000000	58.000000	16.000000	10.000000
0.810000	97.660000	47.030000	0.000000	0.000000	132.000000	58.000000	19.000000	14.000000
0.820000	97.660000	47.030000	32.000000	1.000000	131.000000	57.000000	0.000000	0.000000
0.830000	97.660000	47.030000	54.000000	0.000000	131.000000	57.000000	0.000000	0.000000
0.840000	97.660000	47.030000	46.000000	0.000000	131.000000	57.000000	0.000000	0.000000
0.850000	97.660000	47.030000	80.000000	0.000000	130.000000	56.000000	0.000000	0.000000
0.860000	97.950000	47.230000	136.000000	0.000000	130.000000	56.000000	29.000000	20.000000
0.870000	98.140000	47.450000	216.000000	0.000000	130.000000	56.000000	19.000000	22.000000
0.880000	98.420000	47.760000	319.000000	0.000000	129.000000	56.000000	28.000000	31.000000
0.890000	98.940000	48.180000	399.000000	0.000000	129.000000	56.000000	52.000000	42.000000
0.900000	99.600000	48.790000	445.000000	0.000000	129.000000	56.000000	66.000000	61.000000
0.910000	100.450000	49.540000	493.000000	0.000000	129.000000	56.000000	85.000000	75.000000
0.920000	101.470000	50.190000	512.000000	0.000000	130.000000	55.000000	102.000000	65.000000
0.930000	102.600000	51.080000	544.000000	0.000000	130.000000	55.000000	113.000000	89.000000
0.940000	103.770000	52.120000	542.000000	0.000000	130.000000	55.000000	117.000000	104.000000
0.950000	104.870000	52.640000	544.000000	0.000000	131.000000	55.000000	110.000000	52.000000
0.960000	105.590000	52.960000	474.000000	0.000000	131.000000	55.000000	72.000000	32.000000
0.970000	106.070000	53.160000	242.000000	0.000000	131.000000	55.000000	48.000000	20.000000
0.980000	106.070000	53.160000	0.000000	1.000000	131.000000	55.000000	0.000000	0.000000
0.990000	107.080000	53.600000	0.000000	0.000000	131.000000	55.000000	101.000000	44.000000
1.000000	107.080000	54.020000	0.000000	0.000000	131.000000	55.000000	0.000000	42.000000
1.010000	106.850000	54.360000	0.000000	0.000000	131.000000	55.000000	-23.000000	34.000000
1.020000	106.500000	54.680000	0.000000	0.000000	131.000000	55.000000	-35.000000	32.000000
1.030000	106.150000	54.900000	0.000000	0.000000	131.000000	55.000000	-35.000000	22.000000
1.040000	105.810000	55.080000	0.000000	0.000000	131.000000	55.000000	-34.000000	18.000000
1.050000	105.230000	55.250000	0.000000	0.000000	131.000000	55.000000	-58.000000	17.000000
1.060000	104.660000	55.370000	0.000000	0.000000	133.000000	54.000000	-57.000000	12.000000
1.070000	104.100000	55.440000	0.000000	0.000000	133.000000	54.000000	-56.000000	7.000000
1.080000	103.640000	55.500000	0.000000	0.000000	133.000000	54.000000	-46.000000	6.000000
1.090000	103.160000	55.350000	0.000000	0.000000	133.000000	54.000000	-48.000000	-15.000000
1.100000	102.840000	55.250000	0.000000	0.000000	133.000000	54.000000	-32.000000	-10.000000
1.110000	102.620000	55.180000	0.000000	0.000000	131.000000	54.000000	-22.000000	-7.000000
1.120000	102.440000	54.830000	0.000000	0.000000	131.000000	54.000000	-18.000000	-35.000000
1.130000	102.440000	54.620000	0.000000	0.000000	131.000000	52.000000	0.000000	-21.000000
1.140000	102.530000	54.500000	0.000000	0.000000	131.000000	52.000000	9.000000	-12.000000
1.150000	102.600000	54.290000	0.000000	0.000000	130.000000	51.000000	7.000000	-21.000000
1.160000	102.710000	54.180000	0.000000	0.000000	129.000000	49.000000	11.000000	-11.000000
1.170000	102.840000	54.110000	0.000000	0.000000	127.000000	46.000000	13.000000	-7.000000
1.180000	102.940000	54.040000	0.000000	0.000000	127.000000	45.000000	10.000000	-7.000000
1.190000	102.940000	54.040000	0.000000	0.000000	126.000000	44.000000	0.000000	0.000000
1.200000	102.410000	53.690000	0.000000	0.000000	126.000000	43.000000	-53.000000	-35.000000
1.210000	102.120000	53.510000	0.000000	0.000000	125.000000	41.000000	-29.000000	-18.000000
1.220000	101.750000	53.360000	0.000000	0.000000	124.000000	40.000000	-37.000000	-15.000000
1.230000	101.130000	53.050000	0.000000	0.000000	123.000000	38.000000	-62.000000	-31.000000
1.240000	100.360000	52.750000	0.000000	0.000000	120.000000	37.000000	-77.000000	-30.000000
1.250000	99.470000	52.430000	0.000000	0.000000	119.000000	36.000000	-89.000000	-32.000000
1.260000	98.750000	52.120000	0.000000	0.000000	119.000000	37.000000	-72.000000	-31.000000
1.270000	98.150000	51.790000	0.000000	0.000000	118.000000	38.000000	-60.000000	-33.000000
1.280000	97.450000	51.470000	0.000000	0.000000	119.000000	40.000000	-70.000000	-32.000000
1.290000	96.760000	51.070000	0.000000	0.000000	121.000000	43.000000	-69.000000	-40.000000
1.300000	96.080000	50.660000	0.000000	0.000000	121.000000	44.000000	-68.000000	-41.000000
1.310000	95.030000	50.260000	0.000000	0.000000	121.000000	47.000000	-105.000000	-40.000000
1.320000	94.370000	49.890000	0.000000	0.000000	123.000000	49.000000	-66.000000	-37.000000
1.330000	93.970000	49.540000	0.000000	0.000000	123.000000	51.000000	-40.000000	-35.000000
1.340000	94.230000	49.330000	0.000000	0.000000	123.000000	52.000000	26.000000	-21.000000
1.350000	93.990000	49.230000	0.000000	0.000000	123.000000	53.000000	-24.000000	-10.000000
1.360000	93.410000	49.230000	0.000000	0.000000	122.000000	54.000000	-58.000000	0.000000
1.370000	93.410000	49.440000	0.000000	0.000000	121.000000	53.000000	0.000000	21.000000
1.380000	93.360000	49.690000	0.000000	0.000000	121.000000	53.000000	-5.000000	25.000000
1.390000	93.290000	49.950000	0.000000	0.000000	120.000000	52.000000	-7.000000	26.000000
1.400000	93.200000	50.150000	0.000000	0.000000	120.000000	52.000000	-9.000000	20.000000
1.410000	93.200000	50.330000	0.000000	0.000000	121.000000	52.000000	0.000000	18.000000
1.420000	93.200000	50.430000	0.000000	0.000000	122.000000	51.000000	0.000000	10.000000
1.430000	93.200000	50.340000	0.000000	0.000000	122.000000	51.000000	0.000000	-9.000000
1.440000	93.300000	50.150000	0.000000	0.000000	122.000000	51.000000	10.000000	-19.000000
1.450000	93.400000	49.910000	0.000000	0.000000	123.000000	51.000000	10.000000	-24.000000
1.460000	93.510000	49.650000	0.000000	0.000000	123.000000	51.000000	11.000000	-26.000000
1.470000	93.510000	49.370000	0.000000	0.000000	123.000000	51.000000	0.000000	-28.000000
1.480000	93.510000	49.170000	0.000000	0.000000	124.000000	52.000000	0.000000	-20.000000
1.490000	93.350000	49.030000	0.000000	0.000000	123.000000	52.000000	-16.000000	-14.000000
1.500000	93.160000	48.870000	0.000000	0.000000	123.000000	52.000000	-19.000000	-16.000000
1.510000	92.940000	48.750000	0.000000	0.000000	123.000000	52.000000	-22.000000	-12.000000
1.520000	92.830000	48.670000	0.000000	0.000000	122.000000	53.000000	-11.000000	-8.000000
1.530000	92.760000	48.580000	0.000000	0.000000	122.000000	53.000000	-7.000000	-9.000000
1.540000	92.760000	48.480000	0.000000	0.000000	121.000000	53.000000	0.000000	-10.000000
1.550000	92.880000	48.410000	0.000000	0.000000	121.000000	53.000000	12.000000	-7.000000
1.560000	92.980000	48.360000	0.000000	0.000000	121.000000	53.000000	10.000000	-5.000000
1.570000	93.070000	48.230000	0.000000	0.000000	121.000000	53.000000	9.000000	-13.000000
1.580000	93.610000	48.080000	0.000000	0.000000	122.000000	54.000000	54.000000	-15.000000
1.590000	93.610000	47.880000	0.000000	0.000000	122.000000	54.000000	0.000000	-20.000000
1.600000	93.300000	47.610000	0.000000	0.000000	122.000000	54.000000	-31.000000	-27.000000
1.610000	93.300000	47.610000	53.000000	1.000000	124.000000	54.000000	0.000000	0.000000
1.620000	93.400000	46.980000	144.000000	0.000000	124.000000	54.000000	10.000000	-63.000000
1.630000	93.240000	46.900000	206.000000	0.000000	124.000000	54.000000	-16.000000	-8.000000
1.640000	93.240000	46.980000	296.000000	0.000000	125.000000	54.000000	0.000000	8.000000
1.650000	93.240000	46.980000	361.000000	0.000000	125.000000	54.000000	0.000000	0.000000
1.660000	93.240000	47.250000	455.000000	0.000000	125.000000	54.000000	0.000000	27.000000
1.670000	93.240000	47.610000	509.000000	0.000000	125.000000	54.000000	0.000000	36.000000
1.680000	93.190000	48.480000	545.000000	0.000000	127.000000	53.000000	-5.000000	87.000000
1.690000	93.190000	49.620000	577.000000	0.000000	127.000000	53.000000	0.000000	114.000000
1.700000	93.320000	50.930000	570.000000	0.000000	127.000000	53.000000	13.000000	131.000000
1.710000	93.510000	52.380000	591.000000	0.000000	127.000000	53.000000	19.000000	145.000000
1.720000	93.690000	53.710000	588.000000	0.000000	128.000000	53.000000	18.000000	133.000000
1.730000	93.860000	54.970000	591.000000	0.000000	129.000000	52.000000	17.000000	126.000000
1.740000	94.020000	55.390000	560.000000	0.000000	129.000000	52.000000	16.000000	42.000000
1.750000	94.100000	55.310000	561.000000	0.000000	130.000000	52.000000	8.000000	-8.000000
1.760000	94.100000	54.900000	568.000000	0.000000	130.000000	52.000000	0.000000	-41.000000
1.770000	94.170000	53.690000	566.000000	0.000000	130.000000	52.000000	7.000000	-121.000000
1.780000	94.170000	52.500000	595.000000	0.000000	132.000000	51.000000	0.000000	-119.000000
1.790000	94.170000	51.320000	622.000000	0.000000	132.000000	51.000000	0.000000	-118.000000
1.800000	94.360000	50.760000	642.000000	0.000000	133.000000	52.000000	19.000000	-56.000000
1.810000	94.580000	50.540000	661.000000	0.000000	131.000000	52.000000	22.000000	-22.000000
1.820000	94.970000	50.540000	696.000000	0.000000	131.000000	52.000000	39.000000	0.000000
1.830000	95.450000	50.680000	730.000000	0.000000	131.000000	52.000000	48.000000	14.000000
1.840000	95.980000	51.130000	733.000000	0.000000	133.000000	53.000000	53.000000	45.000000
1.850000	96.530000	51.800000	745.000000	0.000000	131.000000	54.000000	55.000000	67.000000
1.860000	97.100000	52.650000	746.000000	0.000000	131.000000	54.000000	57.000000	85.000000
1.870000	97.650000	53.290000	746.000000	0.000000	131.000000	54.000000	55.000000	64.000000
1.880000	97.910000	53.780000	728.000000	0.000000	131.000000	54.000000	26.000000	49.000000
1.890000	97.980000	53.680000	725.000000	0.000000	131.000000	54.000000	7.000000	-10.000000
1.900000	97.910000	53.340000	724.000000	0.000000	131.000000	54.000000	-7.000000	-34.000000
1.910000	97.840000	52.840000	725.000000	0.000000	131.000000	54.000000	-7.000000	-50.000000
1.920000	97.790000	52.290000	728.000000	0.000000	133.000000	53.000000	-5.000000	-55.000000
1.930000	97.790000	51.930000	721.000000	0.000000	133.000000	53.000000	0.000000	-36.000000
1.940000	98.010000	51.690000	728.000000	0.000000	133.000000	53.000000	22.000000	-24.000000
1.950000	98.670000	51.690000	730.000000	0.000000	133.000000	53.000000	66.000000	0.000000
1.960000	99.590000	52.000000	731.000000	0.000000	133.000000	53.000000	92.000000	31.000000
1.970000	100.540000	52.450000	728.000000	0.000000	133.000000	53.000000	95.000000	45.000000
1.980000	101.430000	53.030000	731.000000	0.000000	133.000000	53.000000	89.000000	58.000000
1.990000	102.280000	53.570000	737.000000	0.000000	133.000000	53.000000	85.000000	54.000000
2.000000	103.030000	54.090000	737.000000	0.000000	133.000000	53.000000	75.000000	52.000000
2.010000	103.370000	54.230000	731.000000	0.000000	133.000000	53.000000	34.000000	14.000000
2.020000	103.440000	54.130000	746.000000	0.000000	133.000000	53.000000	7.000000	-10.000000
2.030000	103.110000	53.860000	755.000000	0.000000	134.000000	54.000000	-33.000000	-27.000000
2.040000	102.360000	52.930000	757.000000	0.000000	134.000000	54.000000	-75.000000	-93.000000
2.050000	101.320000	52.180000	762.000000	0.000000	134.000000	54.000000	-104.000000	-75.000000
2.060000	100.590000	51.540000	751.000000	0.000000	135.000000	54.000000	-73.000000	-64.000000
2.070000	100.460000	51.370000	730.000000	0.000000	135.000000	54.000000	-13.000000	-17.000000
2.080000	100.740000	51.370000	717.000000	0.000000	136.000000	54.000000	28.000000	0.000000
2.090000	101.390000	51.370000	705.000000	0.000000	136.000000	54.000000	65.000000	0.000000
2.100000	102.300000	51.640000	703.000000	0.000000	136.000000	54.000000	91.000000	27.000000
2.110000	103.390000	51.970000	710.000000	0.000000	136.000000	54.000000	109.000000	33.000000
2.120000	104.520000	52.350000	725.000000	0.000000	136.000000	54.000000	113.000000	38.000000
2.130000	105.550000	52.670000	720.000000	0.000000	136.000000	54.000000	103.000000	32.000000
2.140000	106.280000	52.840000	727.000000	0.000000	135.000000	54.000000	73.000000	17.000000
2.150000	106.850000	52.900000	725.000000	0.000000	136.000000	55.000000	57.000000	6.000000
2.160000	107.100000	52.960000	720.000000	0.000000	136.000000	55.000000	25.000000	6.000000
2.170000	107.030000	52.960000	720.000000	0.000000	136.000000	55.000000	-7.000000	0.000000
2.180000	106.740000	52.820000	719.000000	0.000000	138.000000	55.000000	-29.000000	-14.000000
2.190000	106.090000	52.570000	711.000000	0.000000	138.000000	55.000000	-65.000000	-25.000000
2.200000	105.050000	52.210000	725.000000	0.000000	138.000000	55.000000	-104.000000	-36.000000
2.210000	103.740000	51.770000	727.000000	0.000000	138.000000	55.000000	-131.000000	-44.000000
