t	x	y	pressure	penup	azimuth	inclination	v_x	v_y
0.000000	48.440000	10.010000	101.000000	1.000000	121.000000	66.000000	0.000000	0.000000
0.010000	48.440000	10.010000	113.000000	0.000000	120.000000	67.000000	0.000000	0.000000
0.020000	48.440000	10.010000	173.000000	0.000000	120.000000	67.000000	0.000000	0.000000
0.030000	48.440000	10.010000	241.000000	0.000000	119.000000	68.000000	0.000000	0.000000
0.040000	48.440000	10.010000	286.000000	0.000000	119.000000	68.000000	0.000000	0.000000
0.050000	48.590000	10.000000	342.000000	0.000000	117.000000	69.000000	15.000000	-1.000000
0.060000	48.750000	10.100000	371.000000	0.000000	117.000000	69.000000	16.000000	10.000000
0.070000	48.990000	10.350000	399.000000	0.000000	117.000000	69.000000	24.000000	25.000000
0.080000	49.280000	10.690000	423.000000	0.000000	117.000000	69.000000	29.000000	34.000000
0.090000	49.640000	11.150000	469.000000	0.000000	117.000000	69.000000	36.000000	46.000000
0.100000	50.020000	11.850000	480.000000	0.000000	117.000000	69.000000	38.000000	70.000000
0.110000	50.380000	12.710000	492.000000	0.000000	117.000000	69.000000	36.000000	86.000000
0.120000	50.650000	13.790000	509.000000	0.000000	117.000000	69.000000	27.000000	108.000000
0.130000	50.880000	15.070000	504.000000	0.000000	116.000000	68.000000	23.000000	128.000000
0.140000	51.050000	16.480000	513.000000	0.000000	118.000000	68.000000	17.000000	141.000000
0.150000	51.230000	17.720000	512.000000	0.000000	122.000000	67.000000	18.000000	124.000000
0.160000	51.360000	18.510000	519.000000	0.000000	123.000000	65.000000	13.000000	79.000000
0.170000	51.460000	19.010000	522.000000	0.000000	127.000000	64.000000	10.000000	50.000000
0.180000	51.460000	19.250000	512.000000	0.000000	129.000000	64.000000	0.000000	24.000000
0.190000	51.540000	19.250000	512.000000	0.000000	132.000000	63.000000	8.000000	0.000000
0.200000	51.540000	19.050000	512.000000	0.000000	133.000000	62.000000	0.000000	-20.000000
0.210000	51.440000	18.280000	518.000000	0.000000	135.000000	63.000000	-10.000000	-77.000000
0.220000	51.390000	17.030000	529.000000	0.000000	137.000000	62.000000	-5.000000	-125.000000
0.230000	51.320000	15.460000	535.000000	0.000000	135.000000	63.000000	-7.000000	-157.000000
0.240000	51.320000	14.270000	538.000000	0.000000	135.000000	63.000000	0.000000	-119.000000
0.250000	51.270000	13.430000	538.000000	0.000000	133.000000	63.000000	-5.000000	-84.000000
0.260000	51.520000	12.830000	535.000000	0.000000	132.000000	64.000000	25.000000	-60.000000
0.270000	51.770000	12.420000	538.000000	0.000000	128.000000	65.000000	25.000000	-41.000000
0.280000	52.020000	12.280000	538.000000	0.000000	126.000000	66.000000	25.000000	-14.000000
0.290000	52.270000	12.280000	537.000000	0.000000	122.000000	67.000000	25.000000	0.000000
0.300000	52.560000	12.560000	540.000000	0.000000	120.000000	67.000000	29.000000	28.000000
0.310000	52.890000	13.140000	542.000000	0.000000	118.000000	68.000000	33.000000	58.000000
0.320000	53.270000	13.940000	550.000000	0.000000	119.000000	68.000000	38.000000	80.000000
0.330000	53.720000	14.840000	546.000000	0.000000	119.000000	68.000000	45.000000	90.000000
0.340000	54.090000	15.780000	561.000000	0.000000	122.000000	68.000000	37.000000	94.000000
0.350000	54.410000	16.750000	561.000000	0.000000	124.000000	67.000000	32.000000	97.000000
0.360000	54.750000	17.600000	570.000000	0.000000	128.000000	68.000000	34.000000	85.000000
0.370000	55.020000	18.200000	570.000000	0.000000	130.000000	67.000000	27.000000	60.000000
0.380000	55.230000	18.640000	583.000000	0.000000	133.000000	66.000000	21.000000	44.000000
0.390000	55.320000	18.870000	586.000000	0.000000	137.000000	66.000000	9.000000	23.000000
0.400000	55.320000	18.870000	585.000000	0.000000	138.000000	65.000000	0.000000	0.000000
0.410000	55.320000	18.810000	595.000000	0.000000	140.000000	65.000000	0.000000	-6.000000
0.420000	55.260000	18.710000	588.000000	0.000000	140.000000	65.000000	-6.000000	-10.000000
0.430000	55.260000	18.280000	605.000000	0.000000	141.000000	64.000000	0.000000	-43.000000
0.440000	55.120000	17.630000	610.000000	0.000000	141.000000	64.000000	-14.000000	-65.000000
0.450000	54.960000	16.610000	633.000000	0.000000	141.000000	64.000000	-16.000000	-102.000000
0.460000	54.810000	15.630000	647.000000	0.000000	140.000000	65.000000	-15.000000	-98.000000
0.470000	54.680000	14.690000	652.000000	0.000000	140.000000	65.000000	-13.000000	-94.000000
0.480000	54.600000	13.750000	661.000000	0.000000	138.000000	65.000000	-8.000000	-94.000000
0.490000	54.510000	12.910000	670.000000	0.000000	137.000000	66.000000	-9.000000	-84.000000
0.500000	54.400000	12.130000	669.000000	0.000000	133.000000	67.000000	-11.000000	-78.000000
0.510000	54.400000	11.570000	670.000000	0.000000	131.000000	68.000000	0.000000	-56.000000
0.520000	54.400000	11.070000	669.000000	0.000000	129.000000	68.000000	0.000000	-50.000000
0.530000	54.240000	10.620000	666.000000	0.000000	125.000000	70.000000	-16.000000	-45.000000
0.540000	54.240000	10.410000	652.000000	0.000000	122.000000	70.000000	0.000000	-21.000000
0.550000	54.240000	10.300000	613.000000	0.000000	120.000000	71.000000	0.000000	-11.000000
0.560000	54.240000	10.250000	530.000000	0.000000	120.000000	71.000000	0.000000	-5.000000
0.570000	54.240000	10.250000	425.000000	0.000000	116.000000	70.000000	0.000000	0.000000
0.580000	54.240000	10.420000	160.000000	0.000000	116.000000	70.000000	0.000000	17.000000
0.590000	54.240000	10.420000	0.000000	1.000000	116.000000	70.000000	0.000000	0.000000
0.600000	54.340000	10.990000	0.000000	0.000000	116.000000	70.000000	10.000000	57.000000
0.610000	54.430000	11.260000	0.000000	0.000000	116.000000	70.000000	9.000000	27.000000
0.620000	54.540000	11.470000	0.000000	0.000000	116.000000	70.000000	11.000000	21.000000
0.630000	54.680000	11.650000	0.000000	0.000000	116.000000	70.000000	14.000000	18.000000
0.640000	54.900000	11.830000	0.000000	0.000000	116.000000	70.000000	22.000000	18.000000
0.650000	55.190000	12.010000	0.000000	0.000000	120.000000	71.000000	29.000000	18.000000
0.660000	55.520000	12.130000	0.000000	0.000000	120.000000	71.000000	33.000000	12.000000
0.670000	55.830000	12.220000	0.000000	0.000000	122.000000	70.000000	31.000000	9.000000
0.680000	56.100000	12.290000	0.000000	0.000000	124.000000	71.000000	27.000000	7.000000
0.690000	56.330000	12.380000	0.000000	0.000000	127.000000	70.000000	23.000000	9.000000
0.700000	56.450000	12.460000	0.000000	0.000000	128.000000	71.000000	12.000000	8.000000
0.710000	56.580000	12.520000	0.000000	0.000000	131.000000	71.000000	13.000000	6.000000
0.720000	56.650000	12.520000	0.000000	0.000000	131.000000	71.000000	7.000000	0.000000
0.730000	56.650000	12.520000	0.000000	0.000000	131.000000	71.000000	0.000000	0.000000
0.740000	56.730000	12.520000	0.000000	0.000000	135.000000	71.000000	8.000000	0.000000
0.750000	56.790000	12.520000	0.000000	0.000000	135.000000	71.000000	6.000000	0.000000
0.760000	56.790000	12.520000	0.000000	0.000000	135.000000	71.000000	0.000000	0.000000
0.770000	56.840000	12.470000	0.000000	0.000000	135.000000	71.000000	5.000000	-5.000000
0.780000	56.840000	12.470000	0.000000	0.000000	135.000000	71.000000	0.000000	0.000000
0.790000	56.890000	12.520000	0.000000	0.000000	133.000000	71.000000	5.000000	5.000000
0.800000	56.890000	12.520000	0.000000	0.000000	133.000000	71.000000	0.000000	0.000000
0.810000	56.890000	12.520000	0.000000	0.000000	133.000000	71.000000	0.000000	0.000000
0.820000	56.890000	12.430000	0.000000	0.000000	130.000000	72.000000	0.000000	-9.000000
0.830000	56.890000	12.430000	0.000000	0.000000	128.000000	71.000000	0.000000	0.000000
0.840000	56.950000	12.430000	0.000000	0.000000	128.000000	71.000000	6.000000	0.000000
0.850000	57.030000	12.380000	0.000000	0.000000	128.000000	71.000000	8.000000	-5.000000
0.860000	57.130000	12.380000	0.000000	0.000000	128.000000	71.000000	10.000000	0.000000
0.870000	57.270000	12.430000	0.000000	0.000000	130.000000	72.000000	14.000000	5.000000
0.880000	57.430000	12.500000	0.000000	0.000000	130.000000	72.000000	16.000000	7.000000
0.890000	57.660000	12.620000	0.000000	0.000000	130.000000	72.000000	23.000000	12.000000
0.900000	57.870000	12.710000	0.000000	0.000000	130.000000	72.000000	21.000000	9.000000
0.910000	58.040000	12.760000	0.000000	0.000000	130.000000	72.000000	17.000000	5.000000
0.920000	58.180000	12.760000	0.000000	0.000000	130.000000	72.000000	14.000000	0.000000
0.930000	58.180000	12.760000	22.000000	1.000000	130.000000	72.000000	0.000000	0.000000
0.940000	58.180000	12.760000	53.000000	0.000000	128.000000	71.000000	0.000000	0.000000
0.950000	58.180000	12.760000	141.000000	0.000000	128.000000	71.000000	0.000000	0.000000
0.960000	58.280000	13.120000	220.000000	0.000000	128.000000	71.000000	10.000000	36.000000
0.970000	58.280000	13.310000	255.000000	0.000000	127.000000	70.000000	0.000000	19.000000
0.980000	58.280000	13.530000	294.000000	0.000000	127.000000	70.000000	0.000000	22.000000
0.990000	58.280000	13.770000	344.000000	0.000000	125.000000	70.000000	0.000000	24.000000
1.000000	58.280000	13.960000	396.000000	0.000000	125.000000	70.000000	0.000000	19.000000
1.010000	58.220000	14.060000	455.000000	0.000000	123.000000	69.000000	-6.000000	10.000000
1.020000	58.160000	14.060000	481.000000	0.000000	123.000000	69.000000	-6.000000	0.000000
1.030000	58.040000	14.060000	522.000000	0.000000	125.000000	68.000000	-12.000000	0.000000
1.040000	57.870000	14.060000	553.000000	0.000000	124.000000	67.000000	-17.000000	0.000000
1.050000	57.720000	13.940000	567.000000	0.000000	124.000000	67.000000	-15.000000	-12.000000
1.060000	57.470000	13.640000	592.000000	0.000000	128.000000	68.000000	-25.000000	-30.000000
1.070000	57.140000	13.240000	636.000000	0.000000	125.000000	68.000000	-33.000000	-40.000000
1.080000	56.940000	12.690000	659.000000	0.000000	127.000000	69.000000	-20.000000	-55.000000
1.090000	56.780000	12.140000	664.000000	0.000000	127.000000	69.000000	-16.000000	-55.000000
1.100000	56.690000	11.600000	678.000000	0.000000	127.000000	70.000000	-9.000000	-54.000000
1.110000	56.690000	11.230000	690.000000	0.000000	128.000000	71.000000	0.000000	-37.000000
1.120000	56.740000	10.940000	691.000000	0.000000	126.000000	72.000000	5.000000	-29.000000
1.130000	56.880000	10.710000	688.000000	0.000000	126.000000	72.000000	14.000000	-23.000000
1.140000	57.050000	10.570000	693.000000	0.000000	123.000000	72.000000	17.000000	-14.000000
1.150000	57.300000	10.430000	690.000000	0.000000	123.000000	72.000000	25.000000	-14.000000
1.160000	57.550000	10.370000	691.000000	0.000000	123.000000	72.000000	25.000000	-6.000000
1.170000	57.790000	10.370000	687.000000	0.000000	123.000000	72.000000	24.000000	0.000000
1.180000	58.050000	10.460000	687.000000	0.000000	123.000000	72.000000	26.000000	9.000000
1.190000	58.360000	10.710000	684.000000	0.000000	123.000000	72.000000	31.000000	25.000000
1.200000	58.750000	11.070000	684.000000	0.000000	123.000000	72.000000	39.000000	36.000000
1.210000	59.130000	11.510000	678.000000	0.000000	122.000000	71.000000	38.000000	44.000000
1.220000	59.390000	12.010000	670.000000	0.000000	122.000000	71.000000	26.000000	50.000000
1.230000	59.590000	12.560000	669.000000	0.000000	120.000000	71.000000	20.000000	55.000000
1.240000	59.670000	12.900000	682.000000	0.000000	118.000000	70.000000	8.000000	34.000000
1.250000	59.670000	13.190000	690.000000	0.000000	118.000000	70.000000	0.000000	29.000000
1.260000	59.600000	13.280000	693.000000	0.000000	118.000000	70.000000	-7.000000	9.000000
1.270000	59.520000	13.280000	696.000000	0.000000	117.000000	69.000000	-8.000000	0.000000
1.280000	59.430000	13.200000	696.000000	0.000000	119.000000	68.000000	-9.000000	-8.000000
1.290000	59.350000	13.090000	702.000000	0.000000	119.000000	68.000000	-8.000000	-11.000000
1.300000	59.220000	12.700000	690.000000	0.000000	119.000000	68.000000	-13.000000	-39.000000
1.310000	59.060000	12.150000	696.000000	0.000000	122.000000	68.000000	-16.000000	-55.000000
1.320000	59.000000	11.570000	690.000000	0.000000	121.000000	69.000000	-6.000000	-58.000000
1.330000	59.000000	11.190000	676.000000	0.000000	121.000000	69.000000	0.000000	-38.000000
1.340000	59.120000	10.950000	647.000000	0.000000	121.000000	69.000000	12.000000	-24.000000
1.350000	59.260000	10.730000	530.000000	0.000000	120.000000	71.000000	14.000000	-22.000000
1.360000	59.400000	10.640000	354.000000	0.000000	120.000000	71.000000	14.000000	-9.000000
1.370000	59.690000	10.640000	129.000000	0.000000	120.000000	71.000000	29.000000	0.000000
1.380000	59.690000	10.640000	0.000000	1.000000	122.000000	71.000000	0.000000	0.000000
1.390000	60.350000	10.930000	0.000000	0.000000	122.000000	71.000000	66.000000	29.000000
1.400000	60.640000	11.200000	0.000000	0.000000	122.000000	71.000000	29.000000	27.000000
1.410000	60.900000	11.430000	0.000000	0.000000	122.000000	71.000000	26.000000	23.000000
1.420000	61.200000	11.660000	0.000000	0.000000	122.000000	71.000000	30.000000	23.000000
1.430000	61.510000	11.890000	0.000000	0.000000	124.000000	71.000000	31.000000	23.000000
1.440000	61.850000	12.070000	0.000000	0.000000	124.000000	71.000000	34.000000	18.000000
1.450000	62.170000	12.230000	0.000000	0.000000	127.000000	70.000000	32.000000	16.000000
1.460000	62.490000	12.390000	0.000000	0.000000	127.000000	70.000000	32.000000	16.000000
1.470000	62.490000	12.390000	149.000000	1.000000	127.000000	70.000000	0.000000	0.000000
1.480000	62.950000	12.720000	172.000000	0.000000	131.000000	71.000000	46.000000	33.000000
1.490000	62.950000	12.840000	257.000000	0.000000	131.000000	71.000000	0.000000	12.000000
1.500000	63.010000	12.890000	351.000000	0.000000	131.000000	71.000000	6.000000	5.000000
1.510000	63.010000	12.890000	381.000000	0.000000	131.000000	71.000000	0.000000	0.000000
1.520000	63.080000	12.890000	391.000000	0.000000	131.000000	71.000000	7.000000	0.000000
1.530000	63.150000	12.890000	397.000000	0.000000	130.000000	72.000000	7.000000	0.000000
1.540000	63.250000	12.830000	425.000000	0.000000	130.000000	72.000000	10.000000	-6.000000
1.550000	63.380000	12.830000	456.000000	0.000000	130.000000	72.000000	13.000000	0.000000
1.560000	63.530000	12.740000	491.000000	0.000000	130.000000	72.000000	15.000000	-9.000000
1.570000	63.680000	12.740000	518.000000	0.000000	130.000000	72.000000	15.000000	0.000000
1.580000	63.850000	12.670000	540.000000	0.000000	130.000000	72.000000	17.000000	-7.000000
1.590000	64.040000	12.670000	546.000000	0.000000	130.000000	72.000000	19.000000	0.000000
1.600000	64.230000	12.670000	548.000000	0.000000	130.000000	72.000000	19.000000	0.000000
1.610000	64.430000	12.790000	551.000000	0.000000	130.000000	72.000000	20.000000	12.000000
1.620000	64.720000	12.910000	553.000000	0.000000	130.000000	72.000000	29.000000	12.000000
1.630000	64.920000	13.040000	565.000000	0.000000	130.000000	72.000000	20.000000	13.000000
1.640000	65.060000	13.220000	570.000000	0.000000	130.000000	72.000000	14.000000	18.000000
1.650000	65.190000	13.380000	588.000000	0.000000	130.000000	72.000000	13.000000	16.000000
1.660000	65.280000	13.530000	614.000000	0.000000	130.000000	72.000000	9.000000	15.000000
1.670000	65.280000	13.670000	630.000000	0.000000	130.000000	72.000000	0.000000	14.000000
1.680000	65.150000	13.830000	659.000000	0.000000	135.000000	72.000000	-13.000000	16.000000
1.690000	65.060000	14.000000	678.000000	0.000000	135.000000	72.000000	-9.000000	17.000000
1.700000	64.930000	14.080000	687.000000	0.000000	135.000000	72.000000	-13.000000	8.000000
1.710000	64.770000	14.130000	697.000000	0.000000	135.000000	72.000000	-16.000000	5.000000
1.720000	64.600000	14.130000	697.000000	0.000000	137.000000	71.000000	-17.000000	0.000000
1.730000	64.480000	14.130000	705.000000	0.000000	137.000000	71.000000	-12.000000	0.000000
1.740000	64.430000	14.130000	716.000000	0.000000	137.000000	71.000000	-5.000000	0.000000
1.750000	64.360000	14.050000	722.000000	0.000000	137.000000	71.000000	-7.000000	-8.000000
1.760000	64.130000	13.730000	722.000000	0.000000	137.000000	71.000000	-23.000000	-32.000000
1.770000	63.810000	13.270000	739.000000	0.000000	137.000000	71.000000	-32.000000	-46.000000
1.780000	63.630000	12.840000	758.000000	0.000000	135.000000	72.000000	-18.000000	-43.000000
1.790000	63.490000	12.410000	760.000000	0.000000	135.000000	72.000000	-14.000000	-43.000000
1.800000	63.420000	11.960000	768.000000	0.000000	133.000000	73.000000	-7.000000	-45.000000
1.810000	63.420000	11.600000	784.000000	0.000000	130.000000	72.000000	0.000000	-36.000000
1.820000	63.490000	11.300000	779.000000	0.000000	128.000000	72.000000	7.000000	-30.000000
1.830000	63.650000	11.090000	787.000000	0.000000	128.000000	72.000000	16.000000	-21.000000
1.840000	63.820000	10.970000	790.000000	0.000000	125.000000	73.000000	17.000000	-12.000000
1.850000	64.020000	10.910000	785.000000	0.000000	125.000000	73.000000	20.000000	-6.000000
1.860000	64.200000	10.860000	791.000000	0.000000	125.000000	73.000000	18.000000	-5.000000
1.870000	64.420000	10.860000	797.000000	0.000000	123.000000	72.000000	22.000000	0.000000
1.880000	64.650000	10.860000	800.000000	0.000000	121.000000	73.000000	23.000000	0.000000
1.890000	64.920000	10.860000	797.000000	0.000000	121.000000	73.000000	27.000000	0.000000
1.900000	65.230000	11.000000	800.000000	0.000000	121.000000	73.000000	31.000000	14.000000
1.910000	65.560000	11.080000	797.000000	0.000000	121.000000	73.000000	33.000000	8.000000
1.920000	65.880000	11.250000	797.000000	0.000000	122.000000	74.000000	32.000000	17.000000
1.930000	66.290000	11.480000	791.000000	0.000000	122.000000	74.000000	41.000000	23.000000
1.940000	66.630000	11.800000	791.000000	0.000000	122.000000	74.000000	34.000000	32.000000
1.950000	66.930000	12.120000	790.000000	0.000000	124.000000	74.000000	30.000000	32.000000
1.960000	67.230000	12.590000	793.000000	0.000000	124.000000	74.000000	30.000000	47.000000
1.970000	67.430000	13.170000	785.000000	0.000000	130.000000	75.000000	20.000000	58.000000
1.980000	67.570000	13.830000	783.000000	0.000000	130.000000	75.000000	14.000000	66.000000
1.990000	67.660000	14.490000	783.000000	0.000000	132.000000	74.000000	9.000000	66.000000
2.000000	67.660000	15.160000	790.000000	0.000000	138.000000	74.000000	0.000000	67.000000
2.010000	67.660000	15.670000	803.000000	0.000000	140.000000	73.000000	0.000000	51.000000
2.020000	67.600000	15.940000	803.000000	0.000000	144.000000	72.000000	-6.000000	27.000000
2.030000	67.500000	16.060000	805.000000	0.000000	146.000000	71.000000	-10.000000	12.000000
2.040000	67.500000	16.120000	800.000000	0.000000	148.000000	70.000000	0.000000	6.000000
2.050000	67.440000	16.120000	791.000000	0.000000	151.000000	68.000000	-6.000000	0.000000
2.060000	67.440000	16.170000	785.000000	0.000000	152.000000	68.000000	0.000000	5.000000
2.070000	67.440000	16.030000	783.000000	0.000000	152.000000	68.000000	0.000000	-14.000000
2.080000	67.510000	15.780000	797.000000	0.000000	153.000000	67.000000	7.000000	-25.000000
2.090000	67.580000	15.430000	796.000000	0.000000	155.000000	67.000000	7.000000	-35.000000
2.100000	67.670000	15.040000	797.000000	0.000000	154.000000	68.000000	9.000000	-39.000000
2.110000	67.840000	14.670000	783.000000	0.000000	154.000000	68.000000	17.000000	-37.000000
2.120000	68.160000	14.330000	784.000000	0.000000	153.000000	69.000000	32.000000	-34.000000
2.130000	68.560000	13.890000	791.000000	0.000000	152.000000	70.000000	40.000000	-44.000000
2.140000	68.910000	13.530000	799.000000	0.000000	150.000000	71.000000	35.000000	-36.000000
2.150000	69.280000	13.220000	815.000000	0.000000	148.000000	71.000000	37.000000	-31.000000
2.160000	69.680000	12.740000	824.000000	0.000000	147.000000	72.000000	40.000000	-48.000000
2.170000	69.950000	12.340000	824.000000	0.000000	145.000000	73.000000	27.000000	-40.000000
2.180000	70.130000	12.000000	840.000000	0.000000	143.000000	74.000000	18.000000	-34.000000
2.190000	70.280000	11.650000	851.000000	0.000000	140.000000	75.000000	15.000000	-35.000000
2.200000	70.330000	11.380000	858.000000	0.000000	143.000000	75.000000	5.000000	-27.000000
2.210000	70.330000	11.160000	878.000000	0.000000	141.000000	76.000000	0.000000	-22.000000
2.220000	70.250000	11.050000	879.000000	0.000000	141.000000	76.000000	-8.000000	-11.000000
