t	x	y	pressure	penup	azimuth	inclination	v_x	v_y
0.000000	91.150000	15.110000	88.000000	1.000000	153.000000	48.000000	0.000000	0.000000
0.010000	91.700000	15.380000	124.000000	0.000000	153.000000	48.000000	55.000000	27.000000
0.020000	91.810000	15.640000	132.000000	0.000000	153.000000	49.000000	11.000000	26.000000
0.030000	91.930000	15.780000	139.000000	0.000000	152.000000	49.000000	12.000000	14.000000
0.040000	92.070000	15.910000	212.000000	0.000000	151.000000	50.000000	14.000000	13.000000
0.050000	92.230000	16.050000	273.000000	0.000000	150.000000	50.000000	16.000000	14.000000
0.060000	92.310000	16.210000	344.000000	0.000000	149.000000	51.000000	8.000000	16.000000
0.070000	92.310000	16.320000	379.000000	0.000000	148.000000	50.000000	0.000000	11.000000
0.080000	92.400000	16.400000	413.000000	0.000000	148.000000	50.000000	9.000000	8.000000
0.090000	92.400000	16.400000	433.000000	0.000000	148.000000	50.000000	0.000000	0.000000
0.100000	92.470000	16.460000	450.000000	0.000000	148.000000	50.000000	7.000000	6.000000
0.110000	92.470000	16.460000	473.000000	0.000000	148.000000	50.000000	0.000000	0.000000
0.120000	92.470000	16.460000	467.000000	0.000000	148.000000	50.000000	0.000000	0.000000
0.130000	92.470000	16.460000	481.000000	0.000000	148.000000	50.000000	0.000000	0.000000
0.140000	92.470000	16.040000	488.000000	0.000000	148.000000	50.000000	0.000000	-42.000000
0.150000	92.330000	15.470000	510.000000	0.000000	148.000000	50.000000	-14.000000	-57.000000
0.160000	92.060000	14.290000	529.000000	0.000000	148.000000	50.000000	-27.000000	-118.000000
0.170000	91.580000	12.640000	553.000000	0.000000	148.000000	51.000000	-48.000000	-165.000000
0.180000	91.120000	10.680000	586.000000	0.000000	147.000000	52.000000	-46.000000	-196.000000
0.190000	90.670000	9.220000	631.000000	0.000000	148.000000	53.000000	-45.000000	-146.000000
0.200000	90.350000	7.980000	636.000000	0.000000	147.000000	53.000000	-32.000000	-124.000000
0.210000	90.300000	6.900000	643.000000	0.000000	147.000000	55.000000	-5.000000	-108.000000
0.220000	90.420000	6.200000	643.000000	0.000000	149.000000	55.000000	12.000000	-70.000000
0.230000	90.910000	5.670000	645.000000	0.000000	149.000000	56.000000	49.000000	-53.000000
0.240000	91.630000	5.250000	622.000000	0.000000	151.000000	56.000000	72.000000	-42.000000
0.250000	92.500000	5.330000	616.000000	0.000000	151.000000	58.000000	87.000000	8.000000
0.260000	93.330000	5.680000	597.000000	0.000000	151.000000	58.000000	83.000000	35.000000
0.270000	94.100000	6.220000	586.000000	0.000000	154.000000	57.000000	77.000000	54.000000
0.280000	94.830000	6.860000	567.000000	0.000000	152.000000	57.000000	73.000000	64.000000
0.290000	95.270000	7.510000	554.000000	0.000000	152.000000	57.000000	44.000000	65.000000
0.300000	95.370000	8.160000	537.000000	0.000000	151.000000	56.000000	10.000000	65.000000
0.310000	95.250000	8.680000	542.000000	0.000000	149.000000	56.000000	-12.000000	52.000000
0.320000	94.650000	9.070000	577.000000	0.000000	150.000000	55.000000	-60.000000	39.000000
0.330000	93.690000	9.380000	614.000000	0.000000	150.000000	55.000000	-96.000000	31.000000
0.340000	92.480000	9.540000	640.000000	0.000000	149.000000	55.000000	-121.000000	16.000000
0.350000	91.170000	9.540000	710.000000	0.000000	149.000000	55.000000	-131.000000	0.000000
0.360000	89.760000	9.400000	763.000000	0.000000	149.000000	55.000000	-141.000000	-14.000000
0.370000	88.290000	9.100000	791.000000	0.000000	149.000000	55.000000	-147.000000	-30.000000
0.380000	87.280000	8.910000	808.000000	0.000000	148.000000	56.000000	-101.000000	-19.000000
0.390000	86.900000	8.790000	797.000000	0.000000	148.000000	56.000000	-38.000000	-12.000000
0.400000	86.950000	8.700000	774.000000	0.000000	148.000000	56.000000	5.000000	-9.000000
0.410000	87.350000	8.490000	750.000000	0.000000	148.000000	56.000000	40.000000	-21.000000
0.420000	88.470000	8.190000	737.000000	0.000000	148.000000	56.000000	112.000000	-30.000000
0.430000	90.070000	8.000000	721.000000	0.000000	150.000000	55.000000	160.000000	-19.000000
0.440000	91.930000	8.140000	722.000000	0.000000	150.000000	55.000000	186.000000	14.000000
0.450000	94.170000	8.490000	716.000000	0.000000	150.000000	55.000000	224.000000	35.000000
0.460000	96.670000	8.920000	696.000000	0.000000	153.000000	55.000000	250.000000	43.000000
0.470000	99.070000	9.360000	652.000000	0.000000	153.000000	55.000000	240.000000	44.000000
0.480000	101.140000	9.770000	592.000000	0.000000	154.000000	55.000000	207.000000	41.000000
0.490000	103.000000	10.140000	513.000000	0.000000	155.000000	54.000000	186.000000	37.000000
0.500000	104.360000	10.420000	448.000000	0.000000	155.000000	54.000000	136.000000	28.000000
0.510000	105.140000	10.610000	301.000000	0.000000	155.000000	54.000000	78.000000	19.000000
0.520000	105.140000	10.610000	0.000000	1.000000	156.000000	53.000000	0.000000	0.000000
0.530000	105.450000	10.670000	0.000000	0.000000	156.000000	53.000000	31.000000	6.000000
0.540000	105.000000	10.670000	0.000000	0.000000	156.000000	53.000000	-45.000000	0.000000
0.550000	104.320000	10.670000	0.000000	0.000000	156.000000	53.000000	-68.000000	0.000000
0.560000	103.500000	10.760000	0.000000	0.000000	154.000000	53.000000	-82.000000	9.000000
0.570000	102.600000	10.760000	0.000000	0.000000	154.000000	53.000000	-90.000000	0.000000
0.580000	101.640000	10.810000	0.000000	0.000000	153.000000	53.000000	-96.000000	5.000000
0.590000	100.670000	10.810000	0.000000	0.000000	153.000000	52.000000	-97.000000	0.000000
0.600000	99.580000	10.860000	0.000000	0.000000	151.000000	51.000000	-109.000000	5.000000
0.610000	98.420000	10.860000	0.000000	0.000000	152.000000	51.000000	-116.000000	0.000000
0.620000	97.410000	10.800000	0.000000	0.000000	153.000000	50.000000	-101.000000	-6.000000
0.630000	96.430000	10.750000	0.000000	0.000000	152.000000	49.000000	-98.000000	-5.000000
0.640000	95.510000	10.690000	0.000000	0.000000	153.000000	49.000000	-92.000000	-6.000000
0.650000	94.790000	10.690000	0.000000	0.000000	153.000000	49.000000	-72.000000	0.000000
0.660000	94.200000	10.690000	0.000000	0.000000	152.000000	49.000000	-59.000000	0.000000
0.670000	93.740000	10.770000	0.000000	0.000000	153.000000	50.000000	-46.000000	8.000000
0.680000	93.420000	10.840000	0.000000	0.000000	152.000000	51.000000	-32.000000	7.000000
0.690000	93.180000	10.900000	0.000000	0.000000	150.000000	52.000000	-24.000000	6.000000
0.700000	93.000000	10.900000	0.000000	0.000000	149.000000	53.000000	-18.000000	0.000000
0.710000	92.850000	10.900000	0.000000	0.000000	149.000000	53.000000	-15.000000	0.000000
0.720000	92.760000	10.900000	0.000000	0.000000	148.000000	54.000000	-9.000000	0.000000
0.730000	92.760000	10.900000	0.000000	0.000000	150.000000	54.000000	0.000000	0.000000
0.740000	92.760000	10.900000	42.000000	1.000000	149.000000	55.000000	0.000000	0.000000
0.750000	92.760000	10.900000	73.000000	0.000000	148.000000	56.000000	0.000000	0.000000
0.760000	92.760000	11.230000	89.000000	0.000000	149.000000	56.000000	0.000000	33.000000
0.770000	92.760000	11.350000	142.000000	0.000000	148.000000	57.000000	0.000000	12.000000
0.780000	92.840000	11.530000	246.000000	0.000000	148.000000	57.000000	8.000000	18.000000
0.790000	92.920000	11.760000	324.000000	0.000000	147.000000	58.000000	8.000000	23.000000
0.800000	92.920000	11.890000	384.000000	0.000000	147.000000	58.000000	0.000000	13.000000
0.810000	92.920000	12.000000	423.000000	0.000000	147.000000	58.000000	0.000000	11.000000
0.820000	92.920000	12.110000	491.000000	0.000000	147.000000	58.000000	0.000000	11.000000
0.830000	92.990000	12.220000	538.000000	0.000000	147.000000	58.000000	7.000000	11.000000
0.840000	92.990000	12.320000	570.000000	0.000000	146.000000	57.000000	0.000000	10.000000
0.850000	93.050000	12.320000	597.000000	0.000000	146.000000	57.000000	6.000000	0.000000
0.860000	93.050000	12.380000	619.000000	0.000000	144.000000	57.000000	0.000000	6.000000
0.870000	93.050000	12.380000	624.000000	0.000000	143.000000	56.000000	0.000000	0.000000
0.880000	93.050000	12.380000	642.000000	0.000000	143.000000	56.000000	0.000000	0.000000
0.890000	93.050000	12.320000	643.000000	0.000000	143.000000	56.000000	0.000000	-6.000000
0.900000	93.050000	12.320000	650.000000	0.000000	141.000000	56.000000	0.000000	0.000000
0.910000	93.050000	12.270000	650.000000	0.000000	141.000000	56.000000	0.000000	-5.000000
0.920000	93.050000	12.210000	653.000000	0.000000	141.000000	56.000000	0.000000	-6.000000
0.930000	93.050000	12.070000	658.000000	0.000000	141.000000	56.000000	0.000000	-14.000000
0.940000	92.940000	11.650000	664.000000	0.000000	141.000000	56.000000	-11.000000	-42.000000
0.950000	92.830000	11.050000	673.000000	0.000000	141.000000	56.000000	-11.000000	-60.000000
0.960000	92.640000	10.480000	676.000000	0.000000	143.000000	56.000000	-19.000000	-57.000000
0.970000	92.440000	9.900000	696.000000	0.000000	143.000000	56.000000	-20.000000	-58.000000
0.980000	92.230000	9.420000	724.000000	0.000000	143.000000	56.000000	-21.000000	-48.000000
0.990000	92.050000	9.010000	740.000000	0.000000	144.000000	57.000000	-18.000000	-41.000000
1.000000	91.910000	8.770000	760.000000	0.000000	147.000000	56.000000	-14.000000	-24.000000
1.010000	91.850000	8.630000	759.000000	0.000000	148.000000	57.000000	-6.000000	-14.000000
1.020000	91.850000	8.570000	787.000000	0.000000	150.000000	57.000000	0.000000	-6.000000
1.030000	91.850000	8.570000	805.000000	0.000000	151.000000	58.000000	0.000000	0.000000
1.040000	91.910000	8.690000	806.000000	0.000000	152.000000	57.000000	6.000000	12.000000
1.050000	92.010000	8.900000	815.000000	0.000000	152.000000	57.000000	10.000000	21.000000
1.060000	92.160000	9.330000	820.000000	0.000000	152.000000	57.000000	15.000000	43.000000
1.070000	92.360000	9.880000	827.000000	0.000000	152.000000	57.000000	20.000000	55.000000
1.080000	92.550000	10.510000	817.000000	0.000000	151.000000	56.000000	19.000000	63.000000
1.090000	92.710000	11.130000	819.000000	0.000000	149.000000	56.000000	16.000000	62.000000
1.100000	92.900000	11.750000	828.000000	0.000000	148.000000	57.000000	19.000000	62.000000
1.110000	93.090000	12.370000	840.000000	0.000000	147.000000	56.000000	19.000000	62.000000
1.120000	93.260000	12.600000	851.000000	0.000000	145.000000	56.000000	17.000000	23.000000
1.130000	93.260000	12.790000	866.000000	0.000000	145.000000	56.000000	0.000000	19.000000
1.140000	93.260000	12.790000	854.000000	0.000000	144.000000	56.000000	0.000000	0.000000
1.150000	93.260000	12.790000	854.000000	0.000000	144.000000	56.000000	0.000000	0.000000
1.160000	93.260000	12.700000	864.000000	0.000000	144.000000	56.000000	0.000000	-9.000000
1.170000	93.260000	12.440000	846.000000	0.000000	144.000000	56.000000	0.000000	-26.000000
1.180000	93.190000	12.040000	828.000000	0.000000	145.000000	56.000000	-7.000000	-40.000000
1.190000	93.360000	11.500000	814.000000	0.000000	145.000000	56.000000	17.000000	-54.000000
1.200000	93.570000	11.100000	776.000000	0.000000	145.000000	56.000000	21.000000	-40.000000
1.210000	93.860000	10.790000	762.000000	0.000000	145.000000	56.000000	29.000000	-31.000000
1.220000	94.190000	10.560000	749.000000	0.000000	147.000000	56.000000	33.000000	-23.000000
1.230000	94.520000	10.460000	733.000000	0.000000	148.000000	56.000000	33.000000	-10.000000
1.240000	94.870000	10.460000	719.000000	0.000000	148.000000	56.000000	35.000000	0.000000
1.250000	95.230000	10.550000	721.000000	0.000000	149.000000	56.000000	36.000000	9.000000
1.260000	95.620000	10.820000	721.000000	0.000000	149.000000	56.000000	39.000000	27.000000
1.270000	96.030000	11.200000	727.000000	0.000000	151.000000	56.000000	41.000000	38.000000
1.280000	96.330000	11.760000	728.000000	0.000000	151.000000	56.000000	30.000000	56.000000
1.290000	96.560000	12.310000	737.000000	0.000000	152.000000	57.000000	23.000000	55.000000
1.300000	96.620000	12.620000	750.000000	0.000000	153.000000	56.000000	6.000000	31.000000
1.310000	96.620000	12.780000	779.000000	0.000000	153.000000	56.000000	0.000000	16.000000
1.320000	96.520000	12.730000	779.000000	0.000000	153.000000	56.000000	-10.000000	-5.000000
1.330000	96.330000	12.640000	783.000000	0.000000	153.000000	56.000000	-19.000000	-9.000000
1.340000	96.020000	12.190000	788.000000	0.000000	153.000000	56.000000	-31.000000	-45.000000
1.350000	95.640000	11.530000	799.000000	0.000000	153.000000	56.000000	-38.000000	-66.000000
1.360000	95.210000	10.840000	809.000000	0.000000	153.000000	56.000000	-43.000000	-69.000000
1.370000	94.860000	10.300000	808.000000	0.000000	153.000000	56.000000	-35.000000	-54.000000
1.380000	94.780000	9.860000	794.000000	0.000000	153.000000	56.000000	-8.000000	-44.000000
1.390000	94.840000	9.400000	753.000000	0.000000	153.000000	56.000000	6.000000	-46.000000
1.400000	94.970000	9.060000	685.000000	0.000000	153.000000	56.000000	13.000000	-34.000000
1.410000	95.160000	8.790000	522.000000	0.000000	153.000000	56.000000	19.000000	-27.000000
1.420000	95.440000	8.630000	237.000000	0.000000	153.000000	56.000000	28.000000	-16.000000
1.430000	95.440000	8.630000	0.000000	1.000000	152.000000	56.000000	0.000000	0.000000
1.440000	96.190000	8.550000	0.000000	0.000000	152.000000	56.000000	75.000000	-8.000000
1.450000	96.590000	8.740000	0.000000	0.000000	152.000000	56.000000	40.000000	19.000000
1.460000	96.980000	9.040000	0.000000	0.000000	153.000000	55.000000	39.000000	30.000000
1.470000	97.350000	9.390000	0.000000	0.000000	153.000000	55.000000	37.000000	35.000000
1.480000	97.710000	9.660000	0.000000	0.000000	153.000000	55.000000	36.000000	27.000000
1.490000	98.080000	9.910000	0.000000	0.000000	153.000000	55.000000	37.000000	25.000000
1.500000	98.080000	9.910000	439.000000	1.000000	155.000000	54.000000	0.000000	0.000000
1.510000	98.430000	10.260000	529.000000	0.000000	155.000000	54.000000	35.000000	35.000000
1.520000	98.300000	10.390000	556.000000	0.000000	155.000000	54.000000	-13.000000	13.000000
1.530000	98.300000	10.520000	591.000000	0.000000	155.000000	55.000000	0.000000	13.000000
1.540000	98.200000	10.650000	665.000000	0.000000	155.000000	55.000000	-10.000000	13.000000
1.550000	98.070000	10.790000	700.000000	0.000000	157.000000	56.000000	-13.000000	14.000000
1.560000	97.890000	10.870000	700.000000	0.000000	156.000000	57.000000	-18.000000	8.000000
1.570000	97.710000	10.930000	693.000000	0.000000	156.000000	57.000000	-18.000000	6.000000
1.580000	97.520000	10.820000	682.000000	0.000000	156.000000	57.000000	-19.000000	-11.000000
1.590000	97.230000	10.600000	676.000000	0.000000	156.000000	57.000000	-29.000000	-22.000000
1.600000	96.880000	10.230000	673.000000	0.000000	156.000000	57.000000	-35.000000	-37.000000
1.610000	96.630000	9.900000	675.000000	0.000000	156.000000	57.000000	-25.000000	-33.000000
1.620000	96.430000	9.600000	673.000000	0.000000	156.000000	57.000000	-20.000000	-30.000000
1.630000	96.430000	9.350000	667.000000	0.000000	154.000000	56.000000	0.000000	-25.000000
1.640000	96.500000	9.200000	670.000000	0.000000	154.000000	56.000000	7.000000	-15.000000
1.650000	96.680000	9.130000	671.000000	0.000000	154.000000	56.000000	18.000000	-7.000000
1.660000	96.920000	9.130000	662.000000	0.000000	153.000000	56.000000	24.000000	0.000000
1.670000	97.260000	9.290000	666.000000	0.000000	153.000000	56.000000	34.000000	16.000000
1.680000	97.670000	9.570000	675.000000	0.000000	153.000000	56.000000	41.000000	28.000000
1.690000	98.130000	9.890000	693.000000	0.000000	154.000000	56.000000	46.000000	32.000000
1.700000	98.420000	10.170000	714.000000	0.000000	155.000000	55.000000	29.000000	28.000000
1.710000	98.610000	10.410000	733.000000	0.000000	155.000000	55.000000	19.000000	24.000000
1.720000	98.720000	10.630000	758.000000	0.000000	157.000000	56.000000	11.000000	22.000000
1.730000	98.720000	10.720000	784.000000	0.000000	157.000000	56.000000	0.000000	9.000000
1.740000	98.720000	10.720000	788.000000	0.000000	158.000000	56.000000	0.000000	0.000000
1.750000	98.720000	10.720000	793.000000	0.000000	158.000000	56.000000	0.000000	0.000000
1.760000	98.650000	10.660000	788.000000	0.000000	160.000000	56.000000	-7.000000	-6.000000
1.770000	98.650000	10.580000	797.000000	0.000000	160.000000	56.000000	0.000000	-8.000000
1.780000	98.650000	10.400000	768.000000	0.000000	160.000000	56.000000	0.000000	-18.000000
1.790000	98.650000	10.150000	730.000000	0.000000	160.000000	56.000000	0.000000	-25.000000
1.800000	98.790000	9.890000	666.000000	0.000000	160.000000	56.000000	14.000000	-26.000000
1.810000	98.950000	9.690000	565.000000	0.000000	160.000000	56.000000	16.000000	-20.000000
1.820000	99.160000	9.520000	388.000000	0.000000	161.000000	57.000000	21.000000	-17.000000
1.830000	99.400000	9.380000	91.000000	0.000000	161.000000	57.000000	24.000000	-14.000000
1.840000	99.400000	9.380000	0.000000	1.000000	161.000000	57.000000	0.000000	0.000000
1.850000	99.950000	9.440000	0.000000	0.000000	160.000000	56.000000	55.000000	6.000000
1.860000	100.100000	9.640000	0.000000	0.000000	160.000000	55.000000	15.000000	20.000000
1.870000	100.170000	9.860000	0.000000	0.000000	159.000000	55.000000	7.000000	22.000000
1.880000	100.170000	10.090000	0.000000	0.000000	159.000000	55.000000	0.000000	23.000000
1.890000	100.170000	10.090000	297.000000	1.000000	158.000000	55.000000	0.000000	0.000000
1.900000	100.170000	10.350000	417.000000	0.000000	158.000000	55.000000	0.000000	26.000000
1.910000	99.970000	10.420000	461.000000	0.000000	156.000000	55.000000	-20.000000	7.000000
1.920000	99.870000	10.420000	472.000000	0.000000	156.000000	55.000000	-10.000000	0.000000
1.930000	99.870000	10.420000	504.000000	0.000000	156.000000	55.000000	0.000000	0.000000
1.940000	99.940000	10.420000	538.000000	0.000000	155.000000	54.000000	7.000000	0.000000
1.950000	100.020000	10.420000	548.000000	0.000000	154.000000	55.000000	8.000000	0.000000
1.960000	100.160000	10.420000	557.000000	0.000000	155.000000	55.000000	14.000000	0.000000
1.970000	100.390000	10.420000	562.000000	0.000000	155.000000	55.000000	23.000000	0.000000
1.980000	100.670000	10.420000	557.000000	0.000000	155.000000	55.000000	28.000000	0.000000
1.990000	100.990000	10.500000	543.000000	0.000000	157.000000	56.000000	32.000000	8.000000
2.000000	101.350000	10.630000	535.000000	0.000000	157.000000	56.000000	36.000000	13.000000
2.010000	101.650000	10.850000	510.000000	0.000000	157.000000	56.000000	30.000000	22.000000
2.020000	101.920000	11.120000	495.000000	0.000000	157.000000	56.000000	27.000000	27.000000
2.030000	102.310000	11.480000	468.000000	0.000000	157.000000	56.000000	39.000000	36.000000
2.040000	102.520000	11.920000	473.000000	0.000000	158.000000	55.000000	21.000000	44.000000
2.050000	102.600000	12.420000	483.000000	0.000000	158.000000	55.000000	8.000000	50.000000
2.060000	102.530000	12.690000	544.000000	0.000000	158.000000	55.000000	-7.000000	27.000000
2.070000	102.480000	12.820000	569.000000	0.000000	156.000000	55.000000	-5.000000	13.000000
2.080000	102.290000	12.820000	597.000000	0.000000	156.000000	55.000000	-19.000000	0.000000
2.090000	101.990000	12.690000	662.000000	0.000000	156.000000	55.000000	-30.000000	-13.000000
2.100000	101.530000	12.390000	740.000000	0.000000	155.000000	54.000000	-46.000000	-30.000000
2.110000	101.110000	12.010000	770.000000	0.000000	155.000000	54.000000	-42.000000	-38.000000
2.120000	100.760000	11.520000	796.000000	0.000000	155.000000	54.000000	-35.000000	-49.000000
2.130000	100.540000	11.030000	806.000000	0.000000	153.000000	54.000000	-22.000000	-49.000000
2.140000	100.400000	10.720000	809.000000	0.000000	153.000000	54.000000	-14.000000	-31.000000
2.150000	100.520000	10.520000	802.000000	0.000000	152.000000	54.000000	12.000000	-20.000000
2.160000	100.680000	10.240000	787.000000	0.000000	152.000000	54.000000	16.000000	-28.000000
2.170000	101.010000	10.110000	785.000000	0.000000	152.000000	54.000000	33.000000	-13.000000
2.180000	101.420000	10.110000	796.000000	0.000000	151.000000	53.000000	41.000000	0.000000
2.190000	101.930000	10.200000	797.000000	0.000000	151.000000	53.000000	51.000000	9.000000
2.200000	102.460000	10.480000	788.000000	0.000000	152.000000	54.000000	53.000000	28.000000
2.210000	102.990000	10.870000	791.000000	0.000000	152.000000	54.000000	53.000000	39.000000
