t	x	y	pressure	penup	azimuth	inclination	v_x	v_y
0.000000	57.770000	17.670000	37.000000	1.000000	139.000000	57.000000	0.000000	0.000000
0.010000	58.170000	18.060000	61.000000	0.000000	139.000000	57.000000	40.000000	39.000000
0.020000	58.290000	18.370000	91.000000	0.000000	138.000000	57.000000	12.000000	31.000000
0.030000	58.340000	18.650000	103.000000	0.000000	136.000000	56.000000	5.000000	28.000000
0.040000	58.480000	18.900000	149.000000	0.000000	136.000000	55.000000	14.000000	25.000000
0.050000	58.630000	19.150000	253.000000	0.000000	136.000000	55.000000	15.000000	25.000000
0.060000	58.680000	19.390000	281.000000	0.000000	136.000000	54.000000	5.000000	24.000000
0.070000	58.680000	19.470000	329.000000	0.000000	136.000000	54.000000	0.000000	8.000000
0.080000	58.680000	19.470000	367.000000	0.000000	136.000000	54.000000	0.000000	0.000000
0.090000	58.600000	19.470000	415.000000	0.000000	137.000000	53.000000	-8.000000	0.000000
0.100000	58.520000	19.380000	439.000000	0.000000	137.000000	53.000000	-8.000000	-9.000000
0.110000	58.320000	18.870000	499.000000	0.000000	137.000000	53.000000	-20.000000	-51.000000
0.120000	57.890000	18.090000	545.000000	0.000000	137.000000	53.000000	-43.000000	-78.000000
0.130000	57.310000	16.820000	581.000000	0.000000	137.000000	53.000000	-58.000000	-127.000000
0.140000	56.640000	15.200000	628.000000	0.000000	136.000000	54.000000	-67.000000	-162.000000
0.150000	55.970000	13.340000	655.000000	0.000000	136.000000	54.000000	-67.000000	-186.000000
0.160000	55.300000	11.320000	666.000000	0.000000	136.000000	55.000000	-67.000000	-202.000000
0.170000	55.080000	10.000000	673.000000	0.000000	135.000000	55.000000	-22.000000	-132.000000
0.180000	55.260000	9.150000	663.000000	0.000000	134.000000	56.000000	18.000000	-85.000000
0.190000	55.700000	8.400000	647.000000	0.000000	135.000000	57.000000	44.000000	-75.000000
0.200000	56.350000	7.870000	644.000000	0.000000	136.000000	57.000000	65.000000	-53.000000
0.210000	57.150000	7.490000	636.000000	0.000000	138.000000	58.000000	80.000000	-38.000000
0.220000	58.040000	7.370000	633.000000	0.000000	139.000000	57.000000	89.000000	-12.000000
0.230000	58.880000	7.550000	611.000000	0.000000	140.000000	58.000000	84.000000	18.000000
0.240000	59.590000	7.920000	617.000000	0.000000	142.000000	57.000000	71.000000	37.000000
0.250000	60.200000	8.460000	591.000000	0.000000	142.000000	57.000000	61.000000	54.000000
0.260000	60.420000	9.120000	546.000000	0.000000	142.000000	57.000000	22.000000	66.000000
0.270000	60.230000	9.850000	501.000000	0.000000	142.000000	57.000000	-19.000000	73.000000
0.280000	59.760000	10.640000	489.000000	0.000000	139.000000	57.000000	-47.000000	79.000000
0.290000	58.810000	11.140000	522.000000	0.000000	138.000000	58.000000	-95.000000	50.000000
0.300000	57.440000	11.460000	588.000000	0.000000	135.000000	58.000000	-137.000000	32.000000
0.310000	55.780000	11.300000	628.000000	0.000000	132.000000	58.000000	-166.000000	-16.000000
0.320000	54.080000	10.900000	673.000000	0.000000	131.000000	58.000000	-170.000000	-40.000000
0.330000	52.190000	10.350000	719.000000	0.000000	129.000000	59.000000	-189.000000	-55.000000
0.340000	50.180000	9.610000	765.000000	0.000000	128.000000	58.000000	-201.000000	-74.000000
0.350000	48.770000	9.110000	793.000000	0.000000	128.000000	58.000000	-141.000000	-50.000000
0.360000	48.230000	8.760000	782.000000	0.000000	130.000000	58.000000	-54.000000	-35.000000
0.370000	48.230000	8.670000	771.000000	0.000000	131.000000	57.000000	0.000000	-9.000000
0.380000	49.030000	8.580000	770.000000	0.000000	132.000000	57.000000	80.000000	-9.000000
0.390000	50.750000	8.670000	761.000000	0.000000	134.000000	56.000000	172.000000	9.000000
0.400000	53.100000	8.880000	754.000000	0.000000	135.000000	55.000000	235.000000	21.000000
0.410000	55.900000	9.280000	773.000000	0.000000	138.000000	55.000000	280.000000	40.000000
0.420000	58.950000	9.820000	780.000000	0.000000	138.000000	55.000000	305.000000	54.000000
0.430000	62.160000	10.450000	763.000000	0.000000	139.000000	56.000000	321.000000	63.000000
0.440000	65.290000	11.050000	733.000000	0.000000	138.000000	57.000000	313.000000	60.000000
0.450000	67.760000	11.660000	673.000000	0.000000	138.000000	58.000000	247.000000	61.000000
0.460000	69.780000	12.290000	559.000000	0.000000	138.000000	59.000000	202.000000	63.000000
0.470000	70.870000	12.640000	225.000000	0.000000	136.000000	60.000000	109.000000	35.000000
0.480000	70.870000	12.640000	0.000000	1.000000	135.000000	60.000000	0.000000	0.000000
0.490000	70.840000	12.560000	0.000000	0.000000	135.000000	60.000000	-3.000000	-8.000000
0.500000	69.960000	12.500000	0.000000	0.000000	135.000000	60.000000	-88.000000	-6.000000
0.510000	68.720000	12.500000	0.000000	0.000000	135.000000	60.000000	-124.000000	0.000000
0.520000	67.250000	12.550000	0.000000	0.000000	135.000000	60.000000	-147.000000	5.000000
0.530000	65.720000	12.440000	0.000000	0.000000	136.000000	60.000000	-153.000000	-11.000000
0.540000	64.210000	12.370000	0.000000	0.000000	138.000000	59.000000	-151.000000	-7.000000
0.550000	62.760000	12.320000	0.000000	0.000000	139.000000	58.000000	-145.000000	-5.000000
0.560000	61.340000	12.320000	0.000000	0.000000	140.000000	56.000000	-142.000000	0.000000
0.570000	60.240000	12.450000	0.000000	0.000000	139.000000	55.000000	-110.000000	13.000000
0.580000	59.350000	12.600000	0.000000	0.000000	140.000000	53.000000	-89.000000	15.000000
0.590000	58.770000	12.830000	0.000000	0.000000	140.000000	52.000000	-58.000000	23.000000
0.600000	58.390000	13.090000	0.000000	0.000000	140.000000	51.000000	-38.000000	26.000000
0.610000	58.150000	13.380000	0.000000	0.000000	140.000000	51.000000	-24.000000	29.000000
0.620000	58.010000	13.530000	0.000000	0.000000	138.000000	50.000000	-14.000000	15.000000
0.630000	57.870000	13.660000	0.000000	0.000000	137.000000	51.000000	-14.000000	13.000000
0.640000	57.710000	13.760000	0.000000	0.000000	137.000000	52.000000	-16.000000	10.000000
0.650000	57.530000	13.830000	0.000000	0.000000	137.000000	53.000000	-18.000000	7.000000
0.660000	57.300000	13.890000	0.000000	0.000000	137.000000	54.000000	-23.000000	6.000000
0.670000	57.060000	13.890000	0.000000	0.000000	139.000000	55.000000	-24.000000	0.000000
0.680000	56.800000	13.890000	0.000000	0.000000	139.000000	56.000000	-26.000000	0.000000
0.690000	56.800000	13.890000	0.000000	0.000000	139.000000	56.000000	0.000000	0.000000
0.700000	56.800000	13.890000	220.000000	1.000000	139.000000	57.000000	0.000000	0.000000
0.710000	56.960000	13.540000	274.000000	0.000000	139.000000	57.000000	16.000000	-35.000000
0.720000	56.960000	13.540000	274.000000	0.000000	138.000000	58.000000	0.000000	0.000000
0.730000	56.910000	13.670000	276.000000	0.000000	138.000000	58.000000	-5.000000	13.000000
0.740000	56.960000	13.670000	311.000000	0.000000	136.000000	58.000000	5.000000	0.000000
0.750000	57.020000	13.850000	381.000000	0.000000	135.000000	59.000000	6.000000	18.000000
0.760000	57.020000	14.050000	445.000000	0.000000	132.000000	59.000000	0.000000	20.000000
0.770000	57.110000	14.220000	520.000000	0.000000	132.000000	59.000000	9.000000	17.000000
0.780000	57.160000	14.340000	563.000000	0.000000	132.000000	59.000000	5.000000	12.000000
0.790000	57.160000	14.340000	616.000000	0.000000	132.000000	59.000000	0.000000	0.000000
0.800000	57.160000	14.390000	644.000000	0.000000	134.000000	60.000000	0.000000	5.000000
0.810000	57.160000	14.390000	665.000000	0.000000	134.000000	60.000000	0.000000	0.000000
0.820000	57.160000	14.390000	673.000000	0.000000	134.000000	60.000000	0.000000	0.000000
0.830000	57.160000	14.390000	685.000000	0.000000	134.000000	60.000000	0.000000	0.000000
0.840000	57.160000	14.330000	691.000000	0.000000	135.000000	59.000000	0.000000	-6.000000
0.850000	57.160000	14.260000	693.000000	0.000000	135.000000	59.000000	0.000000	-7.000000
0.860000	57.110000	14.170000	693.000000	0.000000	135.000000	59.000000	-5.000000	-9.000000
0.870000	57.110000	14.030000	684.000000	0.000000	135.000000	59.000000	0.000000	-14.000000
0.880000	57.190000	13.860000	687.000000	0.000000	136.000000	60.000000	8.000000	-17.000000
0.890000	57.260000	13.490000	688.000000	0.000000	136.000000	60.000000	7.000000	-37.000000
0.900000	57.330000	12.990000	693.000000	0.000000	136.000000	60.000000	7.000000	-50.000000
0.910000	57.410000	12.370000	700.000000	0.000000	135.000000	60.000000	8.000000	-62.000000
0.920000	57.350000	11.710000	714.000000	0.000000	135.000000	60.000000	-6.000000	-66.000000
0.930000	57.200000	11.090000	730.000000	0.000000	135.000000	60.000000	-15.000000	-62.000000
0.940000	57.090000	10.510000	755.000000	0.000000	135.000000	60.000000	-11.000000	-58.000000
0.950000	56.980000	10.060000	784.000000	0.000000	135.000000	60.000000	-11.000000	-45.000000
0.960000	56.900000	9.810000	796.000000	0.000000	135.000000	60.000000	-8.000000	-25.000000
0.970000	56.900000	9.690000	824.000000	0.000000	135.000000	60.000000	0.000000	-12.000000
0.980000	56.900000	9.690000	849.000000	0.000000	135.000000	60.000000	0.000000	0.000000
0.990000	56.900000	9.690000	857.000000	0.000000	136.000000	60.000000	0.000000	0.000000
1.000000	56.900000	9.750000	863.000000	0.000000	136.000000	60.000000	0.000000	6.000000
1.010000	56.970000	9.950000	866.000000	0.000000	136.000000	60.000000	7.000000	20.000000
1.020000	57.090000	10.420000	864.000000	0.000000	139.000000	60.000000	12.000000	47.000000
1.030000	57.220000	11.060000	863.000000	0.000000	138.000000	60.000000	13.000000	64.000000
1.040000	57.350000	11.920000	864.000000	0.000000	138.000000	60.000000	13.000000	86.000000
1.050000	57.450000	12.740000	869.000000	0.000000	138.000000	60.000000	10.000000	82.000000
1.060000	57.540000	13.540000	879.000000	0.000000	138.000000	60.000000	9.000000	80.000000
1.070000	57.710000	14.220000	879.000000	0.000000	138.000000	60.000000	17.000000	68.000000
1.080000	57.830000	14.640000	890.000000	0.000000	138.000000	60.000000	12.000000	42.000000
1.090000	57.910000	14.880000	896.000000	0.000000	138.000000	60.000000	8.000000	24.000000
1.100000	57.910000	14.950000	899.000000	0.000000	138.000000	59.000000	0.000000	7.000000
1.110000	57.910000	14.950000	897.000000	0.000000	136.000000	58.000000	0.000000	0.000000
1.120000	57.910000	14.950000	897.000000	0.000000	138.000000	58.000000	0.000000	0.000000
1.130000	57.910000	14.770000	887.000000	0.000000	136.000000	57.000000	0.000000	-18.000000
1.140000	57.970000	14.390000	885.000000	0.000000	136.000000	57.000000	6.000000	-38.000000
1.150000	58.050000	13.870000	870.000000	0.000000	135.000000	57.000000	8.000000	-52.000000
1.160000	58.240000	13.330000	864.000000	0.000000	135.000000	57.000000	19.000000	-54.000000
1.170000	58.420000	12.830000	852.000000	0.000000	135.000000	57.000000	18.000000	-50.000000
1.180000	58.590000	12.370000	833.000000	0.000000	134.000000	57.000000	17.000000	-46.000000
1.190000	58.900000	11.990000	826.000000	0.000000	134.000000	57.000000	31.000000	-38.000000
1.200000	59.210000	11.790000	817.000000	0.000000	134.000000	57.000000	31.000000	-20.000000
1.210000	59.450000	11.710000	815.000000	0.000000	132.000000	58.000000	24.000000	-8.000000
1.220000	59.640000	11.790000	814.000000	0.000000	132.000000	58.000000	19.000000	8.000000
1.230000	59.880000	12.040000	815.000000	0.000000	134.000000	58.000000	24.000000	25.000000
1.240000	60.120000	12.400000	815.000000	0.000000	134.000000	58.000000	24.000000	36.000000
1.250000	60.350000	12.920000	820.000000	0.000000	134.000000	58.000000	23.000000	52.000000
1.260000	60.490000	13.450000	818.000000	0.000000	134.000000	58.000000	14.000000	53.000000
1.270000	60.570000	14.000000	825.000000	0.000000	134.000000	58.000000	8.000000	55.000000
1.280000	60.640000	14.320000	843.000000	0.000000	134.000000	58.000000	7.000000	32.000000
1.290000	60.700000	14.600000	848.000000	0.000000	135.000000	58.000000	6.000000	28.000000
1.300000	60.700000	14.600000	852.000000	0.000000	135.000000	58.000000	0.000000	0.000000
1.310000	60.700000	14.600000	852.000000	0.000000	135.000000	58.000000	0.000000	0.000000
1.320000	60.700000	14.600000	852.000000	0.000000	136.000000	57.000000	0.000000	0.000000
1.330000	60.750000	14.170000	855.000000	0.000000	136.000000	57.000000	5.000000	-43.000000
1.340000	60.610000	13.650000	855.000000	0.000000	136.000000	57.000000	-14.000000	-52.000000
1.350000	60.440000	12.980000	851.000000	0.000000	136.000000	57.000000	-17.000000	-67.000000
1.360000	60.440000	12.340000	839.000000	0.000000	136.000000	57.000000	0.000000	-64.000000
1.370000	60.440000	11.710000	783.000000	0.000000	135.000000	58.000000	0.000000	-63.000000
1.380000	60.610000	11.240000	691.000000	0.000000	135.000000	58.000000	17.000000	-47.000000
1.390000	60.820000	10.900000	517.000000	0.000000	134.000000	58.000000	21.000000	-34.000000
1.400000	61.080000	10.690000	203.000000	0.000000	135.000000	59.000000	26.000000	-21.000000
1.410000	61.080000	10.690000	0.000000	1.000000	135.000000	59.000000	0.000000	0.000000
1.420000	61.920000	10.510000	0.000000	0.000000	135.000000	59.000000	84.000000	-18.000000
1.430000	62.240000	10.670000	0.000000	0.000000	136.000000	60.000000	32.000000	16.000000
1.440000	62.560000	10.910000	0.000000	0.000000	136.000000	60.000000	32.000000	24.000000
1.450000	62.900000	11.200000	0.000000	0.000000	138.000000	59.000000	34.000000	29.000000
1.460000	63.240000	11.600000	0.000000	0.000000	138.000000	59.000000	34.000000	40.000000
1.470000	63.570000	11.860000	0.000000	0.000000	138.000000	59.000000	33.000000	26.000000
1.480000	63.570000	11.860000	477.000000	1.000000	139.000000	58.000000	0.000000	0.000000
1.490000	63.880000	12.330000	519.000000	0.000000	139.000000	58.000000	31.000000	47.000000
1.500000	63.710000	12.610000	537.000000	0.000000	139.000000	58.000000	-17.000000	28.000000
1.510000	63.710000	12.860000	561.000000	0.000000	138.000000	59.000000	0.000000	25.000000
1.520000	63.640000	13.110000	611.000000	0.000000	138.000000	59.000000	-7.000000	25.000000
1.530000	63.480000	13.330000	647.000000	0.000000	136.000000	60.000000	-16.000000	22.000000
1.540000	63.330000	13.480000	646.000000	0.000000	138.000000	60.000000	-15.000000	15.000000
1.550000	63.220000	13.480000	647.000000	0.000000	136.000000	61.000000	-11.000000	0.000000
1.560000	63.150000	13.480000	633.000000	0.000000	136.000000	61.000000	-7.000000	0.000000
1.570000	62.930000	13.170000	630.000000	0.000000	136.000000	61.000000	-22.000000	-31.000000
1.580000	62.620000	12.660000	622.000000	0.000000	136.000000	61.000000	-31.000000	-51.000000
1.590000	62.310000	12.140000	622.000000	0.000000	136.000000	61.000000	-31.000000	-52.000000
1.600000	62.210000	11.700000	619.000000	0.000000	136.000000	61.000000	-10.000000	-44.000000
1.610000	62.210000	11.320000	614.000000	0.000000	135.000000	60.000000	0.000000	-38.000000
1.620000	62.380000	11.090000	614.000000	0.000000	135.000000	60.000000	17.000000	-23.000000
1.630000	62.540000	10.960000	613.000000	0.000000	135.000000	60.000000	16.000000	-13.000000
1.640000	62.760000	10.910000	619.000000	0.000000	135.000000	60.000000	22.000000	-5.000000
1.650000	63.030000	10.910000	613.000000	0.000000	135.000000	60.000000	27.000000	0.000000
1.660000	63.340000	11.100000	633.000000	0.000000	135.000000	60.000000	31.000000	19.000000
1.670000	63.640000	11.340000	638.000000	0.000000	135.000000	60.000000	30.000000	24.000000
1.680000	63.880000	11.740000	671.000000	0.000000	136.000000	61.000000	24.000000	40.000000
1.690000	64.070000	12.200000	684.000000	0.000000	135.000000	62.000000	19.000000	46.000000
1.700000	64.220000	12.690000	707.000000	0.000000	135.000000	62.000000	15.000000	49.000000
1.710000	64.270000	12.930000	722.000000	0.000000	135.000000	62.000000	5.000000	24.000000
1.720000	64.270000	13.120000	746.000000	0.000000	135.000000	62.000000	0.000000	19.000000
1.730000	64.270000	13.120000	754.000000	0.000000	135.000000	62.000000	0.000000	0.000000
1.740000	64.270000	13.120000	754.000000	0.000000	135.000000	62.000000	0.000000	0.000000
1.750000	64.270000	13.040000	749.000000	0.000000	135.000000	62.000000	0.000000	-8.000000
1.760000	64.270000	12.850000	740.000000	0.000000	135.000000	62.000000	0.000000	-19.000000
1.770000	64.270000	12.580000	721.000000	0.000000	137.000000	62.000000	0.000000	-27.000000
1.780000	64.360000	12.280000	685.000000	0.000000	137.000000	62.000000	9.000000	-30.000000
1.790000	64.510000	12.040000	611.000000	0.000000	137.000000	62.000000	15.000000	-24.000000
1.800000	64.720000	11.840000	467.000000	0.000000	137.000000	62.000000	21.000000	-20.000000
1.810000	64.960000	11.740000	260.000000	0.000000	137.000000	62.000000	24.000000	-10.000000
1.820000	64.960000	11.740000	0.000000	1.000000	137.000000	62.000000	0.000000	0.000000
1.830000	65.490000	11.740000	0.000000	0.000000	137.000000	62.000000	53.000000	0.000000
1.840000	65.720000	11.990000	0.000000	0.000000	137.000000	62.000000	23.000000	25.000000
1.850000	65.860000	12.250000	0.000000	0.000000	137.000000	62.000000	14.000000	26.000000
1.860000	65.930000	12.520000	0.000000	0.000000	138.000000	61.000000	7.000000	27.000000
1.870000	65.930000	12.520000	220.000000	1.000000	138.000000	61.000000	0.000000	0.000000
1.880000	65.930000	12.810000	366.000000	0.000000	138.000000	61.000000	0.000000	29.000000
1.890000	65.820000	12.980000	428.000000	0.000000	138.000000	61.000000	-11.000000	17.000000
1.900000	65.820000	13.080000	489.000000	0.000000	138.000000	61.000000	0.000000	10.000000
1.910000	65.820000	13.140000	561.000000	0.000000	138.000000	61.000000	0.000000	6.000000
1.920000	65.820000	13.140000	586.000000	0.000000	138.000000	61.000000	0.000000	0.000000
1.930000	65.870000	13.140000	591.000000	0.000000	138.000000	61.000000	5.000000	0.000000
1.940000	65.920000	13.140000	595.000000	0.000000	140.000000	62.000000	5.000000	0.000000
1.950000	66.000000	13.140000	586.000000	0.000000	140.000000	62.000000	8.000000	0.000000
1.960000	66.160000	13.140000	592.000000	0.000000	140.000000	62.000000	16.000000	0.000000
1.970000	66.390000	13.140000	578.000000	0.000000	140.000000	62.000000	23.000000	0.000000
1.980000	66.620000	13.140000	560.000000	0.000000	140.000000	62.000000	23.000000	0.000000
1.990000	66.850000	13.240000	559.000000	0.000000	140.000000	62.000000	23.000000	10.000000
2.000000	67.090000	13.390000	530.000000	0.000000	140.000000	62.000000	24.000000	15.000000
2.010000	67.340000	13.670000	514.000000	0.000000	140.000000	62.000000	25.000000	28.000000
2.020000	67.590000	14.040000	512.000000	0.000000	140.000000	62.000000	25.000000	37.000000
2.030000	67.750000	14.380000	510.000000	0.000000	140.000000	62.000000	16.000000	34.000000
2.040000	67.850000	14.700000	521.000000	0.000000	140.000000	62.000000	10.000000	32.000000
2.050000	67.790000	14.980000	554.000000	0.000000	143.000000	62.000000	-6.000000	28.000000
2.060000	67.700000	15.100000	586.000000	0.000000	143.000000	62.000000	-9.000000	12.000000
2.070000	67.580000	15.100000	640.000000	0.000000	144.000000	61.000000	-12.000000	0.000000
2.080000	67.440000	15.020000	685.000000	0.000000	144.000000	61.000000	-14.000000	-8.000000
2.090000	67.180000	14.890000	717.000000	0.000000	144.000000	61.000000	-26.000000	-13.000000
2.100000	66.850000	14.590000	757.000000	0.000000	145.000000	60.000000	-33.000000	-30.000000
2.110000	66.560000	14.190000	796.000000	0.000000	145.000000	60.000000	-29.000000	-40.000000
2.120000	66.310000	13.750000	797.000000	0.000000	144.000000	61.000000	-25.000000	-44.000000
2.130000	66.150000	13.310000	805.000000	0.000000	144.000000	61.000000	-16.000000	-44.000000
2.140000	66.060000	12.930000	806.000000	0.000000	144.000000	61.000000	-9.000000	-38.000000
2.150000	66.140000	12.580000	797.000000	0.000000	141.000000	61.000000	8.000000	-35.000000
2.160000	66.320000	12.260000	787.000000	0.000000	141.000000	61.000000	18.000000	-32.000000
2.170000	66.580000	12.120000	779.000000	0.000000	143.000000	62.000000	26.000000	-14.000000
2.180000	66.900000	12.120000	776.000000	0.000000	143.000000	62.000000	32.000000	0.000000
2.190000	67.280000	12.210000	770.000000	0.000000	143.000000	62.000000	38.000000	9.000000
2.200000	67.660000	12.500000	767.000000	0.000000	143.000000	62.000000	38.000000	29.000000
2.210000	67.960000	12.910000	773.000000	0.000000	143.000000	62.000000	30.000000	41.000000
