t	x	y	pressure	penup	azimuth	inclination	v_x	v_y
0.000000	87.730000	78.290000	163.000000	1.000000	134.000000	61.000000	0.000000	0.000000
0.010000	87.560000	77.960000	170.000000	0.000000	132.000000	61.000000	-17.000000	-33.000000
0.020000	87.370000	77.890000	220.000000	0.000000	132.000000	61.000000	-19.000000	-7.000000
0.030000	87.210000	77.780000	312.000000	0.000000	130.000000	62.000000	-16.000000	-11.000000
0.040000	87.100000	77.690000	422.000000	0.000000	129.000000	61.000000	-11.000000	-9.000000
0.050000	87.020000	77.600000	519.000000	0.000000	127.000000	62.000000	-8.000000	-9.000000
0.060000	87.020000	77.540000	551.000000	0.000000	127.000000	62.000000	0.000000	-6.000000
0.070000	87.020000	77.490000	613.000000	0.000000	127.000000	62.000000	0.000000	-5.000000
0.080000	87.020000	77.440000	666.000000	0.000000	126.000000	61.000000	0.000000	-5.000000
0.090000	87.170000	77.440000	730.000000	0.000000	126.000000	61.000000	15.000000	0.000000
0.100000	87.360000	77.440000	770.000000	0.000000	126.000000	61.000000	19.000000	0.000000
0.110000	87.650000	77.640000	793.000000	0.000000	127.000000	62.000000	29.000000	20.000000
0.120000	88.030000	78.000000	832.000000	0.000000	127.000000	62.000000	38.000000	36.000000
0.130000	88.490000	78.490000	845.000000	0.000000	127.000000	62.000000	46.000000	49.000000
0.140000	89.020000	79.180000	863.000000	0.000000	127.000000	62.000000	53.000000	69.000000
0.150000	89.540000	80.010000	853.000000	0.000000	127.000000	62.000000	52.000000	83.000000
0.160000	89.990000	80.940000	861.000000	0.000000	127.000000	62.000000	45.000000	93.000000
0.170000	90.400000	81.880000	861.000000	0.000000	126.000000	61.000000	41.000000	94.000000
0.180000	90.720000	82.760000	866.000000	0.000000	128.000000	61.000000	32.000000	88.000000
0.190000	90.840000	83.520000	873.000000	0.000000	128.000000	61.000000	12.000000	76.000000
0.200000	90.840000	83.990000	900.000000	0.000000	126.000000	60.000000	0.000000	47.000000
0.210000	90.740000	84.270000	950.000000	0.000000	126.000000	60.000000	-10.000000	28.000000
0.220000	90.670000	84.350000	959.000000	0.000000	126.000000	60.000000	-7.000000	8.000000
0.230000	90.670000	84.350000	959.000000	0.000000	125.000000	59.000000	0.000000	0.000000
0.240000	90.670000	84.350000	949.000000	0.000000	125.000000	59.000000	0.000000	0.000000
0.250000	90.670000	84.300000	959.000000	0.000000	125.000000	59.000000	0.000000	-5.000000
0.260000	90.670000	83.900000	965.000000	0.000000	125.000000	59.000000	0.000000	-40.000000
0.270000	90.670000	83.270000	967.000000	0.000000	125.000000	59.000000	0.000000	-63.000000
0.280000	90.670000	82.580000	970.000000	0.000000	125.000000	59.000000	0.000000	-69.000000
0.290000	90.530000	81.900000	979.000000	0.000000	125.000000	59.000000	-14.000000	-68.000000
0.300000	90.530000	81.280000	977.000000	0.000000	125.000000	59.000000	0.000000	-62.000000
0.310000	90.530000	80.710000	979.000000	0.000000	125.000000	59.000000	0.000000	-57.000000
0.320000	90.590000	80.250000	977.000000	0.000000	125.000000	59.000000	6.000000	-46.000000
0.330000	90.710000	79.950000	973.000000	0.000000	125.000000	59.000000	12.000000	-30.000000
0.340000	90.850000	79.750000	968.000000	0.000000	125.000000	59.000000	14.000000	-20.000000
0.350000	90.980000	79.660000	965.000000	0.000000	125.000000	59.000000	13.000000	-9.000000
0.360000	91.160000	79.710000	967.000000	0.000000	125.000000	59.000000	18.000000	5.000000
0.370000	91.390000	79.860000	965.000000	0.000000	124.000000	60.000000	23.000000	15.000000
0.380000	91.750000	80.250000	958.000000	0.000000	124.000000	60.000000	36.000000	39.000000
0.390000	92.190000	80.780000	950.000000	0.000000	124.000000	60.000000	44.000000	53.000000
0.400000	92.670000	81.400000	946.000000	0.000000	124.000000	60.000000	48.000000	62.000000
0.410000	93.120000	82.040000	949.000000	0.000000	125.000000	60.000000	45.000000	64.000000
0.420000	93.520000	82.650000	962.000000	0.000000	125.000000	60.000000	40.000000	61.000000
0.430000	93.900000	83.160000	967.000000	0.000000	125.000000	60.000000	38.000000	51.000000
0.440000	94.080000	83.580000	980.000000	0.000000	125.000000	60.000000	18.000000	42.000000
0.450000	94.130000	83.780000	987.000000	0.000000	125.000000	60.000000	5.000000	20.000000
0.460000	94.080000	83.850000	1002.000000	0.000000	125.000000	60.000000	-5.000000	7.000000
0.470000	94.080000	83.850000	990.000000	0.000000	126.000000	61.000000	0.000000	0.000000
0.480000	94.080000	83.850000	987.000000	0.000000	126.000000	61.000000	0.000000	0.000000
0.490000	94.080000	83.760000	990.000000	0.000000	126.000000	61.000000	0.000000	-9.000000
0.500000	94.030000	83.460000	990.000000	0.000000	126.000000	61.000000	-5.000000	-30.000000
0.510000	94.030000	83.020000	1008.000000	0.000000	126.000000	61.000000	0.000000	-44.000000
0.520000	93.930000	82.350000	1023.000000	0.000000	126.000000	61.000000	-10.000000	-67.000000
0.530000	93.830000	81.680000	1023.000000	0.000000	126.000000	61.000000	-10.000000	-67.000000
0.540000	93.700000	80.990000	1023.000000	0.000000	126.000000	61.000000	-13.000000	-69.000000
0.550000	93.630000	80.320000	1023.000000	0.000000	126.000000	61.000000	-7.000000	-67.000000
0.560000	93.700000	79.810000	1023.000000	0.000000	126.000000	61.000000	7.000000	-51.000000
0.570000	93.850000	79.400000	1023.000000	0.000000	126.000000	61.000000	15.000000	-41.000000
0.580000	94.040000	79.120000	1023.000000	0.000000	126.000000	61.000000	19.000000	-28.000000
0.590000	94.220000	79.040000	1023.000000	0.000000	126.000000	61.000000	18.000000	-8.000000
0.600000	94.400000	79.090000	1003.000000	0.000000	126.000000	61.000000	18.000000	5.000000
0.610000	94.540000	79.180000	939.000000	0.000000	126.000000	61.000000	14.000000	9.000000
0.620000	94.600000	79.260000	748.000000	0.000000	126.000000	61.000000	6.000000	8.000000
0.630000	94.600000	79.340000	146.000000	0.000000	124.000000	62.000000	0.000000	8.000000
0.640000	94.600000	79.340000	0.000000	1.000000	124.000000	62.000000	0.000000	0.000000
0.650000	94.600000	79.570000	0.000000	0.000000	124.000000	62.000000	0.000000	23.000000
0.660000	94.600000	79.700000	0.000000	0.000000	123.000000	62.000000	0.000000	13.000000
0.670000	94.670000	79.820000	0.000000	0.000000	123.000000	62.000000	7.000000	12.000000
0.680000	94.750000	79.890000	0.000000	0.000000	121.000000	63.000000	8.000000	7.000000
0.690000	94.870000	79.890000	0.000000	0.000000	118.000000	62.000000	12.000000	0.000000
0.700000	95.000000	79.890000	0.000000	0.000000	116.000000	63.000000	13.000000	0.000000
0.710000	95.140000	79.890000	0.000000	0.000000	115.000000	62.000000	14.000000	0.000000
0.720000	95.280000	79.890000	0.000000	0.000000	114.000000	62.000000	14.000000	0.000000
0.730000	95.410000	79.970000	0.000000	0.000000	114.000000	62.000000	13.000000	8.000000
0.740000	95.530000	79.970000	0.000000	0.000000	111.000000	61.000000	12.000000	0.000000
0.750000	95.620000	79.970000	0.000000	0.000000	111.000000	61.000000	9.000000	0.000000
0.760000	95.680000	79.970000	0.000000	0.000000	112.000000	62.000000	6.000000	0.000000
0.770000	95.730000	79.920000	0.000000	0.000000	112.000000	62.000000	5.000000	-5.000000
0.780000	95.730000	79.920000	0.000000	0.000000	112.000000	62.000000	0.000000	0.000000
0.790000	95.790000	79.920000	0.000000	0.000000	112.000000	62.000000	6.000000	0.000000
0.800000	95.890000	80.000000	0.000000	0.000000	115.000000	63.000000	10.000000	8.000000
0.810000	96.030000	80.060000	0.000000	0.000000	115.000000	63.000000	14.000000	6.000000
0.820000	96.240000	80.140000	0.000000	0.000000	115.000000	63.000000	21.000000	8.000000
0.830000	96.450000	80.230000	0.000000	0.000000	115.000000	63.000000	21.000000	9.000000
0.840000	96.650000	80.320000	0.000000	0.000000	115.000000	63.000000	20.000000	9.000000
0.850000	96.840000	80.420000	0.000000	0.000000	115.000000	63.000000	19.000000	10.000000
0.860000	96.980000	80.480000	0.000000	0.000000	115.000000	63.000000	14.000000	6.000000
0.870000	97.090000	80.480000	0.000000	0.000000	115.000000	63.000000	11.000000	0.000000
0.880000	97.180000	80.550000	0.000000	0.000000	115.000000	63.000000	9.000000	7.000000
0.890000	97.260000	80.550000	0.000000	0.000000	116.000000	64.000000	8.000000	0.000000
0.900000	97.330000	80.550000	0.000000	0.000000	116.000000	64.000000	7.000000	0.000000
0.910000	97.330000	80.550000	0.000000	0.000000	116.000000	64.000000	0.000000	0.000000
0.920000	97.330000	80.550000	0.000000	0.000000	116.000000	64.000000	0.000000	0.000000
0.930000	97.670000	80.620000	0.000000	0.000000	117.000000	63.000000	34.000000	7.000000
0.940000	97.740000	80.620000	0.000000	0.000000	119.000000	64.000000	7.000000	0.000000
0.950000	97.740000	80.620000	0.000000	0.000000	119.000000	64.000000	0.000000	0.000000
0.960000	97.740000	80.520000	0.000000	0.000000	119.000000	64.000000	0.000000	-10.000000
0.970000	97.740000	80.450000	0.000000	0.000000	119.000000	64.000000	0.000000	-7.000000
0.980000	97.740000	80.380000	0.000000	0.000000	119.000000	64.000000	0.000000	-7.000000
0.990000	97.810000	80.380000	0.000000	0.000000	120.000000	65.000000	7.000000	0.000000
1.000000	97.810000	80.380000	0.000000	0.000000	120.000000	65.000000	0.000000	0.000000
1.010000	97.890000	80.380000	0.000000	0.000000	120.000000	65.000000	8.000000	0.000000
1.020000	97.970000	80.380000	0.000000	0.000000	120.000000	65.000000	8.000000	0.000000
1.030000	98.040000	80.380000	0.000000	0.000000	120.000000	65.000000	7.000000	0.000000
1.040000	98.100000	80.380000	0.000000	0.000000	120.000000	65.000000	6.000000	0.000000
1.050000	98.100000	80.380000	0.000000	0.000000	120.000000	65.000000	0.000000	0.000000
1.060000	98.160000	80.380000	0.000000	0.000000	120.000000	65.000000	6.000000	0.000000
1.070000	98.210000	80.380000	0.000000	0.000000	120.000000	65.000000	5.000000	0.000000
1.080000	98.260000	80.380000	0.000000	0.000000	120.000000	65.000000	5.000000	0.000000
1.090000	98.370000	80.380000	0.000000	0.000000	120.000000	65.000000	11.000000	0.000000
1.100000	98.450000	80.450000	0.000000	0.000000	120.000000	65.000000	8.000000	7.000000
1.110000	98.510000	80.450000	0.000000	0.000000	120.000000	65.000000	6.000000	0.000000
1.120000	98.560000	80.450000	0.000000	0.000000	120.000000	65.000000	5.000000	0.000000
1.130000	98.560000	80.450000	0.000000	0.000000	120.000000	65.000000	0.000000	0.000000
1.140000	98.560000	80.450000	0.000000	0.000000	120.000000	65.000000	0.000000	0.000000
1.150000	98.560000	80.450000	0.000000	0.000000	120.000000	65.000000	0.000000	0.000000
1.160000	98.560000	80.450000	0.000000	0.000000	120.000000	65.000000	0.000000	0.000000
1.170000	98.560000	80.450000	0.000000	0.000000	120.000000	65.000000	0.000000	0.000000
1.180000	98.560000	80.450000	0.000000	0.000000	120.000000	65.000000	0.000000	0.000000
1.190000	98.560000	80.450000	0.000000	0.000000	120.000000	65.000000	0.000000	0.000000
1.200000	98.560000	80.450000	0.000000	0.000000	120.000000	65.000000	0.000000	0.000000
1.210000	98.560000	80.450000	0.000000	0.000000	121.000000	66.000000	0.000000	0.000000
1.220000	98.560000	80.450000	0.000000	0.000000	121.000000	66.000000	0.000000	0.000000
1.230000	98.560000	80.450000	0.000000	0.000000	121.000000	66.000000	0.000000	0.000000
1.240000	98.560000	80.450000	0.000000	0.000000	121.000000	66.000000	0.000000	0.000000
1.250000	98.830000	80.310000	0.000000	0.000000	121.000000	66.000000	27.000000	-14.000000
1.260000	98.930000	80.410000	0.000000	0.000000	121.000000	66.000000	10.000000	10.000000
1.270000	99.070000	80.490000	0.000000	0.000000	121.000000	66.000000	14.000000	8.000000
1.280000	99.200000	80.550000	0.000000	0.000000	121.000000	66.000000	13.000000	6.000000
1.290000	99.330000	80.550000	0.000000	0.000000	121.000000	66.000000	13.000000	0.000000
1.300000	99.450000	80.610000	0.000000	0.000000	121.000000	66.000000	12.000000	6.000000
1.310000	99.450000	80.610000	90.000000	1.000000	123.000000	65.000000	0.000000	0.000000
1.320000	99.450000	80.610000	269.000000	0.000000	123.000000	65.000000	0.000000	0.000000
1.330000	99.450000	80.610000	399.000000	0.000000	123.000000	65.000000	0.000000	0.000000
1.340000	99.450000	80.610000	512.000000	0.000000	122.000000	65.000000	0.000000	0.000000
1.350000	99.450000	80.610000	619.000000	0.000000	122.000000	65.000000	0.000000	0.000000
1.360000	99.380000	80.900000	699.000000	0.000000	120.000000	64.000000	-7.000000	29.000000
1.370000	99.380000	80.970000	757.000000	0.000000	120.000000	64.000000	0.000000	7.000000
1.380000	99.270000	81.040000	833.000000	0.000000	121.000000	63.000000	-11.000000	7.000000
1.390000	99.170000	81.100000	861.000000	0.000000	122.000000	63.000000	-10.000000	6.000000
1.400000	99.010000	81.100000	888.000000	0.000000	122.000000	63.000000	-16.000000	0.000000
1.410000	98.810000	81.010000	921.000000	0.000000	124.000000	64.000000	-20.000000	-9.000000
1.420000	98.570000	80.870000	927.000000	0.000000	124.000000	64.000000	-24.000000	-14.000000
1.430000	98.320000	80.690000	939.000000	0.000000	127.000000	64.000000	-25.000000	-18.000000
1.440000	98.080000	80.380000	951.000000	0.000000	127.000000	64.000000	-24.000000	-31.000000
1.450000	97.840000	80.050000	933.000000	0.000000	127.000000	64.000000	-24.000000	-33.000000
1.460000	97.730000	79.690000	933.000000	0.000000	127.000000	64.000000	-11.000000	-36.000000
1.470000	97.670000	79.380000	945.000000	0.000000	125.000000	64.000000	-6.000000	-31.000000
1.480000	97.730000	79.110000	935.000000	0.000000	125.000000	64.000000	6.000000	-27.000000
1.490000	97.890000	78.850000	915.000000	0.000000	125.000000	64.000000	16.000000	-26.000000
1.500000	98.130000	78.750000	911.000000	0.000000	125.000000	64.000000	24.000000	-10.000000
1.510000	98.440000	78.750000	896.000000	0.000000	125.000000	64.000000	31.000000	0.000000
1.520000	98.790000	78.900000	909.000000	0.000000	125.000000	64.000000	35.000000	15.000000
1.530000	99.140000	79.160000	905.000000	0.000000	125.000000	64.000000	35.000000	26.000000
1.540000	99.390000	79.490000	902.000000	0.000000	125.000000	64.000000	25.000000	33.000000
1.550000	99.590000	79.830000	909.000000	0.000000	125.000000	64.000000	20.000000	34.000000
1.560000	99.770000	80.120000	905.000000	0.000000	125.000000	64.000000	18.000000	29.000000
1.570000	99.850000	80.330000	933.000000	0.000000	122.000000	63.000000	8.000000	21.000000
1.580000	99.850000	80.330000	950.000000	0.000000	122.000000	63.000000	0.000000	0.000000
1.590000	99.850000	80.210000	949.000000	0.000000	121.000000	63.000000	0.000000	-12.000000
1.600000	99.850000	79.810000	958.000000	0.000000	119.000000	63.000000	0.000000	-40.000000
1.610000	99.780000	79.370000	958.000000	0.000000	118.000000	62.000000	-7.000000	-44.000000
1.620000	99.840000	78.840000	950.000000	0.000000	118.000000	62.000000	6.000000	-53.000000
1.630000	99.930000	78.460000	934.000000	0.000000	118.000000	62.000000	9.000000	-38.000000
1.640000	100.120000	78.190000	926.000000	0.000000	118.000000	62.000000	19.000000	-27.000000
1.650000	100.260000	78.050000	858.000000	0.000000	118.000000	62.000000	14.000000	-14.000000
1.660000	100.370000	78.050000	663.000000	0.000000	118.000000	62.000000	11.000000	0.000000
1.670000	100.440000	78.050000	53.000000	0.000000	118.000000	62.000000	7.000000	0.000000
1.680000	100.440000	78.050000	0.000000	1.000000	119.000000	63.000000	0.000000	0.000000
1.690000	100.660000	78.550000	0.000000	0.000000	119.000000	63.000000	22.000000	50.000000
1.700000	100.760000	79.010000	0.000000	0.000000	117.000000	63.000000	10.000000	46.000000
1.710000	100.880000	79.440000	0.000000	0.000000	117.000000	63.000000	12.000000	43.000000
1.720000	100.970000	79.760000	0.000000	0.000000	117.000000	63.000000	9.000000	32.000000
1.730000	101.040000	80.020000	0.000000	0.000000	116.000000	64.000000	7.000000	26.000000
1.740000	101.200000	80.220000	0.000000	0.000000	114.000000	64.000000	16.000000	20.000000
1.750000	101.370000	80.370000	0.000000	0.000000	114.000000	64.000000	17.000000	15.000000
1.760000	101.560000	80.490000	0.000000	0.000000	112.000000	64.000000	19.000000	12.000000
1.770000	101.940000	80.600000	0.000000	0.000000	109.000000	64.000000	38.000000	11.000000
1.780000	102.450000	80.770000	0.000000	0.000000	106.000000	63.000000	51.000000	17.000000
1.790000	102.980000	80.910000	0.000000	0.000000	105.000000	62.000000	53.000000	14.000000
1.800000	103.330000	80.970000	0.000000	0.000000	105.000000	62.000000	35.000000	6.000000
1.810000	103.560000	80.970000	0.000000	0.000000	105.000000	62.000000	23.000000	0.000000
1.820000	103.670000	80.970000	0.000000	0.000000	105.000000	61.000000	11.000000	0.000000
1.830000	103.670000	81.100000	0.000000	0.000000	105.000000	62.000000	0.000000	13.000000
1.840000	103.670000	81.100000	0.000000	0.000000	105.000000	62.000000	0.000000	0.000000
1.850000	103.610000	81.100000	0.000000	0.000000	107.000000	62.000000	-6.000000	0.000000
1.860000	103.610000	81.180000	0.000000	0.000000	108.000000	63.000000	0.000000	8.000000
1.870000	103.610000	81.240000	0.000000	0.000000	108.000000	63.000000	0.000000	6.000000
1.880000	103.610000	81.240000	0.000000	0.000000	110.000000	63.000000	0.000000	0.000000
1.890000	103.480000	81.240000	0.000000	0.000000	110.000000	63.000000	-13.000000	0.000000
1.900000	103.410000	81.190000	0.000000	0.000000	110.000000	63.000000	-7.000000	-5.000000
1.910000	103.350000	81.140000	0.000000	0.000000	112.000000	62.000000	-6.000000	-5.000000
1.920000	103.300000	81.070000	0.000000	0.000000	113.000000	63.000000	-5.000000	-7.000000
1.930000	103.300000	81.070000	0.000000	0.000000	113.000000	63.000000	0.000000	0.000000
1.940000	103.300000	81.070000	0.000000	0.000000	113.000000	63.000000	0.000000	0.000000
1.950000	103.300000	81.070000	0.000000	0.000000	113.000000	63.000000	0.000000	0.000000
1.960000	103.300000	81.070000	0.000000	0.000000	113.000000	63.000000	0.000000	0.000000
1.970000	103.300000	81.070000	0.000000	0.000000	113.000000	63.000000	0.000000	0.000000
1.980000	103.300000	81.070000	0.000000	0.000000	113.000000	63.000000	0.000000	0.000000
1.990000	103.300000	81.070000	0.000000	0.000000	113.000000	63.000000	0.000000	0.000000
2.000000	102.980000	80.880000	0.000000	0.000000	113.000000	63.000000	-32.000000	-19.000000
2.010000	102.730000	80.740000	0.000000	0.000000	113.000000	63.000000	-25.000000	-14.000000
2.020000	102.580000	80.640000	0.000000	0.000000	116.000000	64.000000	-15.000000	-10.000000
2.030000	102.580000	80.640000	256.000000	1.000000	116.000000	64.000000	0.000000	0.000000
2.040000	102.320000	80.510000	289.000000	0.000000	116.000000	64.000000	-26.000000	-13.000000
2.050000	102.150000	80.460000	382.000000	0.000000	116.000000	64.000000	-17.000000	-5.000000
2.060000	102.150000	80.400000	474.000000	0.000000	116.000000	64.000000	0.000000	-6.000000
2.070000	102.150000	80.320000	526.000000	0.000000	117.000000	63.000000	0.000000	-8.000000
2.080000	102.270000	80.220000	572.000000	0.000000	117.000000	63.000000	12.000000	-10.000000
2.090000	102.430000	80.090000	619.000000	0.000000	117.000000	63.000000	16.000000	-13.000000
2.100000	102.670000	80.020000	676.000000	0.000000	117.000000	63.000000	24.000000	-7.000000
2.110000	102.970000	80.020000	739.000000	0.000000	116.000000	63.000000	30.000000	0.000000
2.120000	103.280000	80.020000	777.000000	0.000000	116.000000	63.000000	31.000000	0.000000
2.130000	103.610000	80.100000	820.000000	0.000000	116.000000	63.000000	33.000000	8.000000
2.140000	103.940000	80.220000	863.000000	0.000000	116.000000	63.000000	33.000000	12.000000
2.150000	104.240000	80.370000	894.000000	0.000000	117.000000	63.000000	30.000000	15.000000
2.160000	104.610000	80.610000	900.000000	0.000000	117.000000	63.000000	37.000000	24.000000
2.170000	104.870000	80.910000	930.000000	0.000000	117.000000	63.000000	26.000000	30.000000
2.180000	105.060000	81.220000	938.000000	0.000000	119.000000	64.000000	19.000000	31.000000
2.190000	105.130000	81.520000	995.000000	0.000000	119.000000	64.000000	7.000000	30.000000
2.200000	105.130000	81.730000	1003.000000	0.000000	119.000000	64.000000	0.000000	21.000000
2.210000	105.050000	81.870000	1023.000000	0.000000	119.000000	64.000000	-8.000000	14.000000
2.220000	104.980000	81.930000	1023.000000	0.000000	120.000000	64.000000	-7.000000	6.000000
2.230000	104.790000	81.930000	1023.000000	0.000000	120.000000	64.000000	-19.000000	0.000000
