t	x	y	pressure	penup	azimuth	inclination	v_x	v_y
0.000000	17.090000	82.680000	216.000000	1.000000	132.000000	60.000000	0.000000	0.000000
0.010000	17.170000	83.860000	334.000000	0.000000	134.000000	61.000000	8.000000	118.000000
0.020000	17.320000	84.090000	480.000000	0.000000	135.000000	60.000000	15.000000	23.000000
0.030000	17.480000	84.260000	565.000000	0.000000	135.000000	60.000000	16.000000	17.000000
0.040000	17.630000	84.400000	595.000000	0.000000	136.000000	60.000000	15.000000	14.000000
0.050000	17.760000	84.400000	606.000000	0.000000	138.000000	60.000000	13.000000	0.000000
0.060000	17.880000	84.310000	611.000000	0.000000	139.000000	60.000000	12.000000	-9.000000
0.070000	18.090000	83.940000	645.000000	0.000000	139.000000	60.000000	21.000000	-37.000000
0.080000	18.310000	83.370000	659.000000	0.000000	141.000000	60.000000	22.000000	-57.000000
0.090000	18.540000	82.500000	685.000000	0.000000	142.000000	59.000000	23.000000	-87.000000
0.100000	18.760000	81.310000	707.000000	0.000000	142.000000	59.000000	22.000000	-119.000000
0.110000	18.910000	79.910000	728.000000	0.000000	142.000000	59.000000	15.000000	-140.000000
0.120000	19.020000	78.320000	758.000000	0.000000	141.000000	60.000000	11.000000	-159.000000
0.130000	19.020000	76.840000	780.000000	0.000000	141.000000	60.000000	0.000000	-148.000000
0.140000	18.960000	75.440000	788.000000	0.000000	141.000000	60.000000	-6.000000	-140.000000
0.150000	18.960000	74.240000	783.000000	0.000000	139.000000	61.000000	0.000000	-120.000000
0.160000	18.820000	73.360000	783.000000	0.000000	139.000000	61.000000	-14.000000	-88.000000
0.170000	18.650000	72.690000	787.000000	0.000000	139.000000	61.000000	-17.000000	-67.000000
0.180000	18.350000	72.130000	777.000000	0.000000	136.000000	61.000000	-30.000000	-56.000000
0.190000	17.830000	71.680000	762.000000	0.000000	136.000000	61.000000	-52.000000	-45.000000
0.200000	17.170000	71.310000	748.000000	0.000000	136.000000	61.000000	-66.000000	-37.000000
0.210000	16.370000	71.180000	734.000000	0.000000	135.000000	60.000000	-80.000000	-13.000000
0.220000	15.580000	71.260000	728.000000	0.000000	135.000000	60.000000	-79.000000	8.000000
0.230000	14.800000	71.490000	703.000000	0.000000	134.000000	60.000000	-78.000000	23.000000
0.240000	14.130000	71.880000	703.000000	0.000000	134.000000	60.000000	-67.000000	39.000000
0.250000	13.730000	72.250000	708.000000	0.000000	132.000000	59.000000	-40.000000	37.000000
0.260000	13.510000	72.580000	728.000000	0.000000	132.000000	59.000000	-22.000000	33.000000
0.270000	13.510000	72.980000	727.000000	0.000000	132.000000	59.000000	0.000000	40.000000
0.280000	13.810000	73.430000	751.000000	0.000000	131.000000	58.000000	30.000000	45.000000
0.290000	14.220000	73.970000	760.000000	0.000000	131.000000	58.000000	41.000000	54.000000
0.300000	14.710000	74.460000	770.000000	0.000000	131.000000	58.000000	49.000000	49.000000
0.310000	15.120000	74.910000	776.000000	0.000000	131.000000	58.000000	41.000000	45.000000
0.320000	15.460000	75.120000	768.000000	0.000000	132.000000	59.000000	34.000000	21.000000
0.330000	15.780000	75.200000	760.000000	0.000000	132.000000	59.000000	32.000000	8.000000
0.340000	16.080000	75.200000	760.000000	0.000000	132.000000	59.000000	30.000000	0.000000
0.350000	16.430000	75.070000	756.000000	0.000000	135.000000	59.000000	35.000000	-13.000000
0.360000	17.120000	74.920000	763.000000	0.000000	135.000000	59.000000	69.000000	-15.000000
0.370000	18.020000	74.750000	753.000000	0.000000	136.000000	60.000000	90.000000	-17.000000
0.380000	19.550000	74.810000	760.000000	0.000000	138.000000	60.000000	153.000000	6.000000
0.390000	21.620000	74.940000	768.000000	0.000000	138.000000	60.000000	207.000000	13.000000
0.400000	24.050000	75.130000	774.000000	0.000000	139.000000	61.000000	243.000000	19.000000
0.410000	26.470000	75.260000	780.000000	0.000000	141.000000	60.000000	242.000000	13.000000
0.420000	28.270000	75.370000	794.000000	0.000000	142.000000	61.000000	180.000000	11.000000
0.430000	29.650000	75.430000	783.000000	0.000000	144.000000	61.000000	138.000000	6.000000
0.440000	30.440000	75.500000	805.000000	0.000000	145.000000	60.000000	79.000000	7.000000
0.450000	30.910000	75.600000	809.000000	0.000000	145.000000	60.000000	47.000000	10.000000
0.460000	31.160000	75.600000	794.000000	0.000000	145.000000	60.000000	25.000000	0.000000
0.470000	31.210000	75.680000	676.000000	0.000000	146.000000	60.000000	5.000000	8.000000
0.480000	31.210000	75.680000	56.000000	0.000000	146.000000	60.000000	0.000000	0.000000
0.490000	31.210000	75.680000	0.000000	1.000000	146.000000	60.000000	0.000000	0.000000
0.500000	30.910000	75.850000	0.000000	0.000000	146.000000	60.000000	-30.000000	17.000000
0.510000	30.690000	76.030000	0.000000	0.000000	146.000000	60.000000	-22.000000	18.000000
0.520000	30.500000	76.180000	0.000000	0.000000	147.000000	59.000000	-19.000000	15.000000
0.530000	30.500000	76.280000	0.000000	0.000000	146.000000	58.000000	0.000000	10.000000
0.540000	30.500000	76.280000	0.000000	0.000000	146.000000	57.000000	0.000000	0.000000
0.550000	30.430000	76.280000	0.000000	0.000000	145.000000	56.000000	-7.000000	0.000000
0.560000	30.290000	76.200000	0.000000	0.000000	145.000000	55.000000	-14.000000	-8.000000
0.570000	29.870000	76.200000	0.000000	0.000000	143.000000	53.000000	-42.000000	0.000000
0.580000	29.120000	76.200000	0.000000	0.000000	143.000000	52.000000	-75.000000	0.000000
0.590000	28.250000	76.200000	0.000000	0.000000	142.000000	50.000000	-87.000000	0.000000
0.600000	27.230000	76.200000	0.000000	0.000000	142.000000	50.000000	-102.000000	0.000000
0.610000	26.270000	76.290000	0.000000	0.000000	141.000000	50.000000	-96.000000	9.000000
0.620000	25.350000	76.440000	0.000000	0.000000	142.000000	50.000000	-92.000000	15.000000
0.630000	24.820000	76.700000	0.000000	0.000000	143.000000	51.000000	-53.000000	26.000000
0.640000	24.540000	77.000000	0.000000	0.000000	143.000000	52.000000	-28.000000	30.000000
0.650000	24.270000	77.320000	0.000000	0.000000	145.000000	53.000000	-27.000000	32.000000
0.660000	23.900000	77.570000	0.000000	0.000000	145.000000	54.000000	-37.000000	25.000000
0.670000	23.460000	77.770000	0.000000	0.000000	146.000000	54.000000	-44.000000	20.000000
0.680000	22.980000	77.920000	0.000000	0.000000	146.000000	55.000000	-48.000000	15.000000
0.690000	22.540000	78.150000	0.000000	0.000000	146.000000	55.000000	-44.000000	23.000000
0.700000	22.370000	78.440000	0.000000	0.000000	144.000000	56.000000	-17.000000	29.000000
0.710000	22.370000	78.740000	0.000000	0.000000	143.000000	55.000000	0.000000	30.000000
0.720000	22.430000	79.030000	0.000000	0.000000	140.000000	55.000000	6.000000	29.000000
0.730000	22.510000	79.150000	0.000000	0.000000	139.000000	55.000000	8.000000	12.000000
0.740000	22.560000	79.150000	0.000000	0.000000	139.000000	55.000000	5.000000	0.000000
0.750000	22.560000	79.150000	0.000000	0.000000	138.000000	55.000000	0.000000	0.000000
0.760000	22.560000	79.060000	0.000000	0.000000	136.000000	55.000000	0.000000	-9.000000
0.770000	22.610000	78.980000	0.000000	0.000000	135.000000	55.000000	5.000000	-8.000000
0.780000	22.610000	78.890000	0.000000	0.000000	135.000000	55.000000	0.000000	-9.000000
0.790000	22.610000	78.790000	0.000000	0.000000	135.000000	55.000000	0.000000	-10.000000
0.800000	22.610000	78.530000	0.000000	0.000000	134.000000	56.000000	0.000000	-26.000000
0.810000	22.460000	78.250000	0.000000	0.000000	134.000000	56.000000	-15.000000	-28.000000
0.820000	22.230000	77.940000	0.000000	0.000000	132.000000	57.000000	-23.000000	-31.000000
0.830000	22.010000	77.640000	0.000000	0.000000	132.000000	57.000000	-22.000000	-30.000000
0.840000	21.810000	77.330000	0.000000	0.000000	134.000000	57.000000	-20.000000	-31.000000
0.850000	21.640000	77.010000	0.000000	0.000000	132.000000	58.000000	-17.000000	-32.000000
0.860000	21.430000	76.680000	0.000000	0.000000	132.000000	58.000000	-21.000000	-33.000000
0.870000	21.190000	76.340000	0.000000	0.000000	131.000000	58.000000	-24.000000	-34.000000
0.880000	21.020000	76.120000	0.000000	0.000000	131.000000	58.000000	-17.000000	-22.000000
0.890000	20.900000	75.940000	0.000000	0.000000	131.000000	58.000000	-12.000000	-18.000000
0.900000	20.900000	75.860000	0.000000	0.000000	131.000000	58.000000	0.000000	-8.000000
0.910000	20.810000	75.860000	0.000000	0.000000	131.000000	58.000000	-9.000000	0.000000
0.920000	20.670000	75.800000	0.000000	0.000000	129.000000	59.000000	-14.000000	-6.000000
0.930000	20.470000	75.920000	0.000000	0.000000	129.000000	59.000000	-20.000000	12.000000
0.940000	20.400000	76.140000	0.000000	0.000000	131.000000	60.000000	-7.000000	22.000000
0.950000	20.400000	76.700000	0.000000	0.000000	131.000000	60.000000	0.000000	56.000000
0.960000	20.470000	77.460000	0.000000	0.000000	131.000000	60.000000	7.000000	76.000000
0.970000	20.630000	78.360000	0.000000	0.000000	131.000000	60.000000	16.000000	90.000000
0.980000	20.830000	79.410000	0.000000	0.000000	131.000000	60.000000	20.000000	105.000000
0.990000	21.030000	80.440000	0.000000	0.000000	131.000000	60.000000	20.000000	103.000000
1.000000	21.030000	80.440000	107.000000	1.000000	131.000000	60.000000	0.000000	0.000000
1.010000	21.190000	81.410000	214.000000	0.000000	131.000000	60.000000	16.000000	97.000000
1.020000	21.190000	81.530000	315.000000	0.000000	132.000000	59.000000	0.000000	12.000000
1.030000	21.190000	81.600000	364.000000	0.000000	132.000000	59.000000	0.000000	7.000000
1.040000	21.190000	81.430000	412.000000	0.000000	132.000000	59.000000	0.000000	-17.000000
1.050000	21.190000	81.130000	461.000000	0.000000	134.000000	58.000000	0.000000	-30.000000
1.060000	21.240000	80.510000	509.000000	0.000000	134.000000	58.000000	5.000000	-62.000000
1.070000	21.290000	79.850000	536.000000	0.000000	134.000000	58.000000	5.000000	-66.000000
1.080000	21.340000	79.030000	572.000000	0.000000	134.000000	58.000000	5.000000	-82.000000
1.090000	21.340000	78.120000	616.000000	0.000000	134.000000	58.000000	0.000000	-91.000000
1.100000	21.390000	77.330000	619.000000	0.000000	134.000000	60.000000	5.000000	-79.000000
1.110000	21.440000	76.780000	624.000000	0.000000	134.000000	60.000000	5.000000	-55.000000
1.120000	21.500000	76.400000	611.000000	0.000000	134.000000	60.000000	6.000000	-38.000000
1.130000	21.560000	76.220000	560.000000	0.000000	134.000000	60.000000	6.000000	-18.000000
1.140000	21.630000	76.220000	491.000000	0.000000	134.000000	60.000000	7.000000	0.000000
1.150000	21.680000	76.350000	284.000000	0.000000	132.000000	60.000000	5.000000	13.000000
1.160000	21.680000	76.790000	148.000000	0.000000	132.000000	60.000000	0.000000	44.000000
1.170000	21.680000	77.450000	107.000000	0.000000	132.000000	60.000000	0.000000	66.000000
1.180000	21.440000	78.260000	112.000000	0.000000	132.000000	60.000000	-24.000000	81.000000
1.190000	21.150000	78.920000	146.000000	0.000000	132.000000	60.000000	-29.000000	66.000000
1.200000	20.950000	79.540000	253.000000	0.000000	132.000000	60.000000	-20.000000	62.000000
1.210000	20.900000	79.790000	333.000000	0.000000	134.000000	60.000000	-5.000000	25.000000
1.220000	20.950000	79.790000	425.000000	0.000000	134.000000	60.000000	5.000000	0.000000
1.230000	21.010000	79.790000	488.000000	0.000000	134.000000	60.000000	6.000000	0.000000
1.240000	21.100000	79.790000	540.000000	0.000000	132.000000	59.000000	9.000000	0.000000
1.250000	21.390000	79.790000	597.000000	0.000000	132.000000	59.000000	29.000000	0.000000
1.260000	21.810000	79.790000	630.000000	0.000000	132.000000	59.000000	42.000000	0.000000
1.270000	22.220000	79.900000	645.000000	0.000000	132.000000	59.000000	41.000000	11.000000
1.280000	22.550000	80.140000	641.000000	0.000000	132.000000	59.000000	33.000000	24.000000
1.290000	22.830000	80.440000	636.000000	0.000000	132.000000	59.000000	28.000000	30.000000
1.300000	23.020000	80.780000	638.000000	0.000000	132.000000	59.000000	19.000000	34.000000
1.310000	23.120000	81.130000	631.000000	0.000000	132.000000	59.000000	10.000000	35.000000
1.320000	23.120000	81.470000	638.000000	0.000000	134.000000	58.000000	0.000000	34.000000
1.330000	23.120000	81.750000	644.000000	0.000000	134.000000	58.000000	0.000000	28.000000
1.340000	23.120000	81.840000	646.000000	0.000000	134.000000	58.000000	0.000000	9.000000
1.350000	23.170000	81.840000	650.000000	0.000000	135.000000	59.000000	5.000000	0.000000
1.360000	23.170000	81.840000	655.000000	0.000000	136.000000	58.000000	0.000000	0.000000
1.370000	23.220000	81.650000	658.000000	0.000000	136.000000	58.000000	5.000000	-19.000000
1.380000	23.320000	81.340000	670.000000	0.000000	136.000000	58.000000	10.000000	-31.000000
1.390000	23.460000	80.790000	681.000000	0.000000	136.000000	58.000000	14.000000	-55.000000
1.400000	23.610000	79.980000	699.000000	0.000000	136.000000	58.000000	15.000000	-81.000000
1.410000	23.760000	79.000000	733.000000	0.000000	136.000000	58.000000	15.000000	-98.000000
1.420000	23.760000	78.060000	755.000000	0.000000	136.000000	58.000000	0.000000	-94.000000
1.430000	23.760000	77.230000	763.000000	0.000000	136.000000	60.000000	0.000000	-83.000000
1.440000	23.810000	76.480000	771.000000	0.000000	136.000000	60.000000	5.000000	-75.000000
1.450000	23.920000	76.050000	774.000000	0.000000	136.000000	60.000000	11.000000	-43.000000
1.460000	24.030000	75.840000	751.000000	0.000000	138.000000	60.000000	11.000000	-21.000000
1.470000	24.100000	75.770000	730.000000	0.000000	138.000000	60.000000	7.000000	-7.000000
1.480000	24.180000	75.840000	646.000000	0.000000	136.000000	61.000000	8.000000	7.000000
1.490000	24.250000	76.070000	396.000000	0.000000	136.000000	61.000000	7.000000	23.000000
1.500000	24.250000	76.070000	0.000000	1.000000	136.000000	61.000000	0.000000	0.000000
1.510000	24.390000	76.760000	0.000000	0.000000	136.000000	61.000000	14.000000	69.000000
1.520000	24.480000	77.060000	0.000000	0.000000	136.000000	61.000000	9.000000	30.000000
1.530000	24.570000	77.300000	0.000000	0.000000	136.000000	61.000000	9.000000	24.000000
1.540000	25.010000	77.530000	0.000000	0.000000	136.000000	61.000000	44.000000	23.000000
1.550000	25.380000	77.710000	0.000000	0.000000	139.000000	61.000000	37.000000	18.000000
1.560000	25.710000	77.800000	0.000000	0.000000	139.000000	61.000000	33.000000	9.000000
1.570000	25.990000	77.800000	0.000000	0.000000	141.000000	60.000000	28.000000	0.000000
1.580000	26.170000	77.800000	0.000000	0.000000	142.000000	61.000000	18.000000	0.000000
1.590000	26.270000	77.720000	0.000000	0.000000	145.000000	60.000000	10.000000	-8.000000
1.600000	26.270000	77.650000	0.000000	0.000000	148.000000	60.000000	0.000000	-7.000000
1.610000	26.270000	77.590000	0.000000	0.000000	148.000000	60.000000	0.000000	-6.000000
1.620000	26.270000	77.500000	0.000000	0.000000	151.000000	60.000000	0.000000	-9.000000
1.630000	26.200000	77.410000	0.000000	0.000000	151.000000	60.000000	-7.000000	-9.000000
1.640000	26.150000	77.300000	0.000000	0.000000	151.000000	60.000000	-5.000000	-11.000000
1.650000	26.090000	77.200000	0.000000	0.000000	151.000000	60.000000	-6.000000	-10.000000
1.660000	26.010000	77.080000	0.000000	0.000000	151.000000	60.000000	-8.000000	-12.000000
1.670000	25.930000	76.950000	0.000000	0.000000	150.000000	60.000000	-8.000000	-13.000000
1.680000	25.850000	76.820000	0.000000	0.000000	150.000000	60.000000	-8.000000	-13.000000
1.690000	25.760000	76.730000	0.000000	0.000000	148.000000	60.000000	-9.000000	-9.000000
1.700000	25.700000	76.620000	0.000000	0.000000	147.000000	61.000000	-6.000000	-11.000000
1.710000	25.700000	76.530000	0.000000	0.000000	147.000000	61.000000	0.000000	-9.000000
1.720000	25.700000	76.440000	0.000000	0.000000	144.000000	61.000000	0.000000	-9.000000
1.730000	25.750000	76.370000	0.000000	0.000000	144.000000	61.000000	5.000000	-7.000000
1.740000	25.800000	76.300000	0.000000	0.000000	144.000000	61.000000	5.000000	-7.000000
1.750000	25.850000	76.230000	0.000000	0.000000	141.000000	61.000000	5.000000	-7.000000
1.760000	25.920000	76.230000	0.000000	0.000000	141.000000	61.000000	7.000000	0.000000
1.770000	26.020000	76.230000	0.000000	0.000000	141.000000	61.000000	10.000000	0.000000
1.780000	26.140000	76.330000	0.000000	0.000000	141.000000	61.000000	12.000000	10.000000
1.790000	26.260000	76.390000	0.000000	0.000000	143.000000	62.000000	12.000000	6.000000
1.800000	26.380000	76.520000	0.000000	0.000000	143.000000	62.000000	12.000000	13.000000
1.810000	26.500000	76.690000	0.000000	0.000000	143.000000	62.000000	12.000000	17.000000
1.820000	26.590000	76.800000	0.000000	0.000000	143.000000	62.000000	9.000000	11.000000
1.830000	26.650000	76.920000	0.000000	0.000000	143.000000	62.000000	6.000000	12.000000
1.840000	26.650000	77.040000	0.000000	0.000000	143.000000	62.000000	0.000000	12.000000
1.850000	26.730000	77.140000	0.000000	0.000000	141.000000	61.000000	8.000000	10.000000
1.860000	26.800000	77.230000	0.000000	0.000000	139.000000	61.000000	7.000000	9.000000
1.870000	26.900000	77.320000	0.000000	0.000000	139.000000	61.000000	10.000000	9.000000
1.880000	27.040000	77.420000	0.000000	0.000000	136.000000	61.000000	14.000000	10.000000
1.890000	27.200000	77.560000	0.000000	0.000000	135.000000	60.000000	16.000000	14.000000
1.900000	27.370000	77.710000	0.000000	0.000000	135.000000	60.000000	17.000000	15.000000
1.910000	27.370000	77.710000	107.000000	1.000000	135.000000	60.000000	0.000000	0.000000
1.920000	27.570000	78.110000	267.000000	0.000000	135.000000	60.000000	20.000000	40.000000
1.930000	27.570000	78.360000	398.000000	0.000000	135.000000	60.000000	0.000000	25.000000
1.940000	27.410000	78.620000	515.000000	0.000000	135.000000	60.000000	-16.000000	26.000000
1.950000	27.190000	78.910000	591.000000	0.000000	135.000000	60.000000	-22.000000	29.000000
1.960000	26.840000	79.170000	647.000000	0.000000	136.000000	60.000000	-35.000000	26.000000
1.970000	26.510000	79.270000	702.000000	0.000000	138.000000	60.000000	-33.000000	10.000000
1.980000	26.200000	79.270000	721.000000	0.000000	138.000000	60.000000	-31.000000	0.000000
1.990000	25.850000	78.960000	730.000000	0.000000	139.000000	60.000000	-35.000000	-31.000000
2.000000	25.520000	78.490000	753.000000	0.000000	139.000000	60.000000	-33.000000	-47.000000
2.010000	25.210000	77.900000	779.000000	0.000000	139.000000	60.000000	-31.000000	-59.000000
2.020000	25.130000	77.260000	785.000000	0.000000	138.000000	60.000000	-8.000000	-64.000000
2.030000	25.190000	76.830000	794.000000	0.000000	139.000000	61.000000	6.000000	-43.000000
2.040000	25.340000	76.550000	788.000000	0.000000	139.000000	61.000000	15.000000	-28.000000
2.050000	25.510000	76.350000	797.000000	0.000000	139.000000	61.000000	17.000000	-20.000000
2.060000	25.710000	76.350000	793.000000	0.000000	138.000000	61.000000	20.000000	0.000000
2.070000	26.070000	76.350000	788.000000	0.000000	138.000000	61.000000	36.000000	0.000000
2.080000	26.530000	76.600000	777.000000	0.000000	138.000000	61.000000	46.000000	25.000000
2.090000	26.940000	76.920000	767.000000	0.000000	138.000000	61.000000	41.000000	32.000000
2.100000	27.220000	77.310000	757.000000	0.000000	138.000000	61.000000	28.000000	39.000000
2.110000	27.420000	77.700000	752.000000	0.000000	138.000000	61.000000	20.000000	39.000000
2.120000	27.550000	78.080000	746.000000	0.000000	136.000000	61.000000	13.000000	38.000000
2.130000	27.680000	78.400000	740.000000	0.000000	136.000000	61.000000	13.000000	32.000000
2.140000	27.770000	78.520000	734.000000	0.000000	136.000000	61.000000	9.000000	12.000000
2.150000	27.830000	78.520000	720.000000	0.000000	136.000000	61.000000	6.000000	0.000000
2.160000	27.890000	78.470000	720.000000	0.000000	136.000000	61.000000	6.000000	-5.000000
2.170000	27.950000	78.300000	722.000000	0.000000	138.000000	61.000000	6.000000	-17.000000
2.180000	28.000000	78.040000	737.000000	0.000000	139.000000	61.000000	5.000000	-26.000000
2.190000	28.050000	77.590000	758.000000	0.000000	139.000000	61.000000	5.000000	-45.000000
2.200000	28.050000	77.120000	750.000000	0.000000	139.000000	61.000000	0.000000	-47.000000
2.210000	28.050000	76.730000	763.000000	0.000000	139.000000	61.000000	0.000000	-39.000000
2.220000	28.050000	76.410000	707.000000	0.000000	139.000000	61.000000	0.000000	-32.000000
