t	x	y	pressure	penup	azimuth	inclination	v_x	v_y
0.000000	95.760000	84.550000	203.000000	1.000000	133.000000	53.000000	0.000000	0.000000
0.010000	95.950000	85.340000	249.000000	0.000000	133.000000	53.000000	19.000000	79.000000
0.020000	95.770000	85.460000	257.000000	0.000000	134.000000	54.000000	-18.000000	12.000000
0.030000	95.690000	85.580000	294.000000	0.000000	134.000000	54.000000	-8.000000	12.000000
0.040000	95.590000	85.710000	391.000000	0.000000	133.000000	54.000000	-10.000000	13.000000
0.050000	95.470000	85.880000	433.000000	0.000000	134.000000	55.000000	-12.000000	17.000000
0.060000	95.390000	86.070000	453.000000	0.000000	134.000000	55.000000	-8.000000	19.000000
0.070000	95.390000	86.190000	460.000000	0.000000	134.000000	55.000000	0.000000	12.000000
0.080000	95.330000	86.280000	489.000000	0.000000	133.000000	54.000000	-6.000000	9.000000
0.090000	95.330000	86.280000	519.000000	0.000000	133.000000	54.000000	0.000000	0.000000
0.100000	95.330000	86.280000	521.000000	0.000000	133.000000	54.000000	0.000000	0.000000
0.110000	95.330000	86.280000	536.000000	0.000000	133.000000	54.000000	0.000000	0.000000
0.120000	95.330000	86.120000	592.000000	0.000000	133.000000	54.000000	0.000000	-16.000000
0.130000	95.050000	85.330000	620.000000	0.000000	134.000000	55.000000	-28.000000	-79.000000
0.140000	94.650000	84.110000	666.000000	0.000000	134.000000	55.000000	-40.000000	-122.000000
0.150000	93.960000	82.420000	727.000000	0.000000	134.000000	55.000000	-69.000000	-169.000000
0.160000	93.230000	80.690000	784.000000	0.000000	134.000000	55.000000	-73.000000	-173.000000
0.170000	92.470000	79.080000	808.000000	0.000000	135.000000	54.000000	-76.000000	-161.000000
0.180000	92.020000	77.570000	830.000000	0.000000	135.000000	54.000000	-45.000000	-151.000000
0.190000	91.970000	76.600000	827.000000	0.000000	135.000000	54.000000	-5.000000	-97.000000
0.200000	92.190000	75.930000	809.000000	0.000000	135.000000	54.000000	22.000000	-67.000000
0.210000	92.850000	75.450000	785.000000	0.000000	135.000000	54.000000	66.000000	-48.000000
0.220000	93.780000	75.310000	777.000000	0.000000	134.000000	54.000000	93.000000	-14.000000
0.230000	94.880000	75.450000	733.000000	0.000000	133.000000	54.000000	110.000000	14.000000
0.240000	95.830000	75.780000	696.000000	0.000000	133.000000	54.000000	95.000000	33.000000
0.250000	96.630000	76.390000	658.000000	0.000000	134.000000	55.000000	80.000000	61.000000
0.260000	97.320000	77.090000	611.000000	0.000000	134.000000	55.000000	69.000000	70.000000
0.270000	97.510000	77.840000	586.000000	0.000000	134.000000	55.000000	19.000000	75.000000
0.280000	97.160000	78.560000	570.000000	0.000000	134.000000	55.000000	-35.000000	72.000000
0.290000	96.460000	79.010000	617.000000	0.000000	134.000000	55.000000	-70.000000	45.000000
0.300000	95.280000	79.270000	652.000000	0.000000	134.000000	55.000000	-118.000000	26.000000
0.310000	93.660000	79.130000	717.000000	0.000000	134.000000	55.000000	-162.000000	-14.000000
0.320000	91.750000	78.660000	770.000000	0.000000	134.000000	55.000000	-191.000000	-47.000000
0.330000	89.870000	77.970000	863.000000	0.000000	135.000000	54.000000	-188.000000	-69.000000
0.340000	88.000000	77.340000	900.000000	0.000000	134.000000	54.000000	-187.000000	-63.000000
0.350000	87.160000	76.990000	887.000000	0.000000	134.000000	54.000000	-84.000000	-35.000000
0.360000	87.010000	76.840000	855.000000	0.000000	135.000000	53.000000	-15.000000	-15.000000
0.370000	87.490000	76.620000	861.000000	0.000000	134.000000	54.000000	48.000000	-22.000000
0.380000	88.830000	76.360000	846.000000	0.000000	135.000000	54.000000	134.000000	-26.000000
0.390000	90.750000	76.310000	837.000000	0.000000	135.000000	54.000000	192.000000	-5.000000
0.400000	93.090000	76.420000	834.000000	0.000000	135.000000	54.000000	234.000000	11.000000
0.410000	95.700000	76.610000	815.000000	0.000000	135.000000	55.000000	261.000000	19.000000
0.420000	98.480000	76.770000	751.000000	0.000000	135.000000	55.000000	278.000000	16.000000
0.430000	100.920000	76.880000	664.000000	0.000000	135.000000	55.000000	244.000000	11.000000
0.440000	102.700000	76.980000	546.000000	0.000000	134.000000	56.000000	178.000000	10.000000
0.450000	104.040000	77.110000	212.000000	0.000000	134.000000	56.000000	134.000000	13.000000
0.460000	104.040000	77.110000	0.000000	1.000000	132.000000	57.000000	0.000000	0.000000
0.470000	104.390000	77.440000	0.000000	0.000000	131.000000	57.000000	35.000000	33.000000
0.480000	103.770000	77.610000	0.000000	0.000000	131.000000	57.000000	-62.000000	17.000000
0.490000	102.690000	77.770000	0.000000	0.000000	130.000000	58.000000	-108.000000	16.000000
0.500000	101.570000	77.770000	0.000000	0.000000	130.000000	58.000000	-112.000000	0.000000
0.510000	100.410000	77.660000	0.000000	0.000000	128.000000	57.000000	-116.000000	-11.000000
0.520000	99.370000	77.500000	0.000000	0.000000	130.000000	56.000000	-104.000000	-16.000000
0.530000	98.540000	77.320000	0.000000	0.000000	131.000000	57.000000	-83.000000	-18.000000
0.540000	97.840000	77.180000	0.000000	0.000000	132.000000	57.000000	-70.000000	-14.000000
0.550000	97.280000	77.070000	0.000000	0.000000	132.000000	57.000000	-56.000000	-11.000000
0.560000	96.780000	77.020000	0.000000	0.000000	135.000000	57.000000	-50.000000	-5.000000
0.570000	96.400000	77.090000	0.000000	0.000000	135.000000	57.000000	-38.000000	7.000000
0.580000	96.100000	77.250000	0.000000	0.000000	138.000000	57.000000	-30.000000	16.000000
0.590000	95.860000	77.520000	0.000000	0.000000	136.000000	57.000000	-24.000000	27.000000
0.600000	95.660000	77.850000	0.000000	0.000000	136.000000	57.000000	-20.000000	33.000000
0.610000	95.480000	78.220000	0.000000	0.000000	136.000000	57.000000	-18.000000	37.000000
0.620000	95.330000	78.680000	0.000000	0.000000	136.000000	57.000000	-15.000000	46.000000
0.630000	95.220000	79.170000	0.000000	0.000000	135.000000	57.000000	-11.000000	49.000000
0.640000	95.220000	79.680000	0.000000	0.000000	135.000000	57.000000	0.000000	51.000000
0.650000	95.220000	79.960000	0.000000	0.000000	134.000000	56.000000	0.000000	28.000000
0.660000	95.360000	80.190000	0.000000	0.000000	134.000000	56.000000	14.000000	23.000000
0.670000	95.420000	80.310000	0.000000	0.000000	132.000000	55.000000	6.000000	12.000000
0.680000	95.420000	80.310000	112.000000	1.000000	132.000000	55.000000	0.000000	0.000000
0.690000	95.420000	80.310000	173.000000	0.000000	132.000000	55.000000	0.000000	0.000000
0.700000	95.320000	80.580000	262.000000	0.000000	131.000000	55.000000	-10.000000	27.000000
0.710000	95.250000	80.660000	343.000000	0.000000	132.000000	55.000000	-7.000000	8.000000
0.720000	95.250000	80.770000	394.000000	0.000000	132.000000	55.000000	0.000000	11.000000
0.730000	95.160000	80.860000	458.000000	0.000000	132.000000	55.000000	-9.000000	9.000000
0.740000	95.160000	80.950000	496.000000	0.000000	134.000000	56.000000	0.000000	9.000000
0.750000	95.160000	80.950000	513.000000	0.000000	134.000000	56.000000	0.000000	0.000000
0.760000	95.160000	80.950000	543.000000	0.000000	134.000000	56.000000	0.000000	0.000000
0.770000	95.160000	80.950000	570.000000	0.000000	134.000000	56.000000	0.000000	0.000000
0.780000	95.100000	80.950000	586.000000	0.000000	135.000000	55.000000	-6.000000	0.000000
0.790000	95.100000	80.950000	613.000000	0.000000	135.000000	55.000000	0.000000	0.000000
0.800000	95.100000	80.950000	622.000000	0.000000	136.000000	56.000000	0.000000	0.000000
0.810000	95.100000	80.950000	638.000000	0.000000	136.000000	56.000000	0.000000	0.000000
0.820000	95.100000	80.950000	644.000000	0.000000	136.000000	56.000000	0.000000	0.000000
0.830000	95.100000	80.950000	653.000000	0.000000	136.000000	56.000000	0.000000	0.000000
0.840000	95.100000	80.630000	661.000000	0.000000	136.000000	56.000000	0.000000	-32.000000
0.850000	95.100000	80.630000	668.000000	0.000000	138.000000	57.000000	0.000000	0.000000
0.860000	95.100000	80.630000	670.000000	0.000000	138.000000	57.000000	0.000000	0.000000
0.870000	95.100000	80.630000	673.000000	0.000000	139.000000	56.000000	0.000000	0.000000
0.880000	95.100000	80.630000	664.000000	0.000000	139.000000	56.000000	0.000000	0.000000
0.890000	95.100000	80.630000	667.000000	0.000000	139.000000	56.000000	0.000000	0.000000
0.900000	95.100000	80.550000	669.000000	0.000000	139.000000	56.000000	0.000000	-8.000000
0.910000	95.050000	80.490000	676.000000	0.000000	139.000000	56.000000	-5.000000	-6.000000
0.920000	95.050000	80.390000	691.000000	0.000000	139.000000	56.000000	0.000000	-10.000000
0.930000	94.850000	80.050000	713.000000	0.000000	139.000000	56.000000	-20.000000	-34.000000
0.940000	94.560000	79.550000	722.000000	0.000000	139.000000	56.000000	-29.000000	-50.000000
0.950000	94.220000	78.900000	757.000000	0.000000	139.000000	56.000000	-34.000000	-65.000000
0.960000	93.920000	78.370000	777.000000	0.000000	139.000000	56.000000	-30.000000	-53.000000
0.970000	93.690000	77.930000	793.000000	0.000000	139.000000	56.000000	-23.000000	-44.000000
0.980000	93.610000	77.750000	797.000000	0.000000	138.000000	55.000000	-8.000000	-18.000000
0.990000	93.610000	77.560000	808.000000	0.000000	138.000000	55.000000	0.000000	-19.000000
1.000000	93.610000	77.500000	827.000000	0.000000	138.000000	55.000000	0.000000	-6.000000
1.010000	93.690000	77.500000	828.000000	0.000000	136.000000	55.000000	8.000000	0.000000
1.020000	93.790000	77.570000	836.000000	0.000000	136.000000	55.000000	10.000000	7.000000
1.030000	93.950000	77.790000	846.000000	0.000000	136.000000	55.000000	16.000000	22.000000
1.040000	94.170000	78.120000	863.000000	0.000000	136.000000	55.000000	22.000000	33.000000
1.050000	94.390000	78.600000	852.000000	0.000000	136.000000	55.000000	22.000000	48.000000
1.060000	94.620000	79.260000	869.000000	0.000000	138.000000	55.000000	23.000000	66.000000
1.070000	94.820000	80.040000	860.000000	0.000000	138.000000	55.000000	20.000000	78.000000
1.080000	95.100000	80.580000	858.000000	0.000000	138.000000	55.000000	28.000000	54.000000
1.090000	95.250000	81.080000	869.000000	0.000000	139.000000	56.000000	15.000000	50.000000
1.100000	95.300000	81.330000	870.000000	0.000000	139.000000	56.000000	5.000000	25.000000
1.110000	95.390000	81.420000	878.000000	0.000000	139.000000	56.000000	9.000000	9.000000
1.120000	95.390000	81.470000	882.000000	0.000000	140.000000	56.000000	0.000000	5.000000
1.130000	95.390000	81.470000	884.000000	0.000000	140.000000	56.000000	0.000000	0.000000
1.140000	95.390000	81.470000	878.000000	0.000000	140.000000	56.000000	0.000000	0.000000
1.150000	95.390000	81.390000	870.000000	0.000000	140.000000	56.000000	0.000000	-8.000000
1.160000	95.390000	81.270000	861.000000	0.000000	140.000000	56.000000	0.000000	-12.000000
1.170000	95.390000	81.070000	860.000000	0.000000	140.000000	56.000000	0.000000	-20.000000
1.180000	95.390000	80.710000	853.000000	0.000000	140.000000	56.000000	0.000000	-36.000000
1.190000	95.390000	80.250000	863.000000	0.000000	140.000000	56.000000	0.000000	-46.000000
1.200000	95.470000	79.970000	843.000000	0.000000	141.000000	56.000000	8.000000	-28.000000
1.210000	95.570000	79.730000	836.000000	0.000000	141.000000	56.000000	10.000000	-24.000000
1.220000	95.730000	79.530000	809.000000	0.000000	141.000000	56.000000	16.000000	-20.000000
1.230000	95.910000	79.530000	805.000000	0.000000	141.000000	56.000000	18.000000	0.000000
1.240000	96.160000	79.430000	805.000000	0.000000	141.000000	56.000000	25.000000	-10.000000
1.250000	96.440000	79.530000	806.000000	0.000000	141.000000	56.000000	28.000000	10.000000
1.260000	96.770000	79.760000	811.000000	0.000000	141.000000	56.000000	33.000000	23.000000
1.270000	97.130000	80.090000	821.000000	0.000000	141.000000	56.000000	36.000000	33.000000
1.280000	97.350000	80.400000	824.000000	0.000000	140.000000	56.000000	22.000000	31.000000
1.290000	97.470000	80.660000	818.000000	0.000000	140.000000	56.000000	12.000000	26.000000
1.300000	97.550000	80.860000	837.000000	0.000000	140.000000	56.000000	8.000000	20.000000
1.310000	97.550000	80.930000	855.000000	0.000000	139.000000	57.000000	0.000000	7.000000
1.320000	97.550000	80.930000	863.000000	0.000000	139.000000	57.000000	0.000000	0.000000
1.330000	97.550000	80.840000	864.000000	0.000000	139.000000	57.000000	0.000000	-9.000000
1.340000	97.330000	80.500000	854.000000	0.000000	139.000000	57.000000	-22.000000	-34.000000
1.350000	97.050000	79.980000	870.000000	0.000000	139.000000	57.000000	-28.000000	-52.000000
1.360000	96.810000	79.360000	867.000000	0.000000	139.000000	57.000000	-24.000000	-62.000000
1.370000	96.620000	78.800000	861.000000	0.000000	139.000000	57.000000	-19.000000	-56.000000
1.380000	96.520000	78.270000	855.000000	0.000000	139.000000	57.000000	-10.000000	-53.000000
1.390000	96.520000	77.810000	799.000000	0.000000	140.000000	56.000000	0.000000	-46.000000
1.400000	96.610000	77.440000	669.000000	0.000000	140.000000	56.000000	9.000000	-37.000000
1.410000	96.820000	77.130000	465.000000	0.000000	140.000000	56.000000	21.000000	-31.000000
1.420000	97.120000	76.890000	36.000000	0.000000	140.000000	56.000000	30.000000	-24.000000
1.430000	97.120000	76.890000	0.000000	1.000000	139.000000	57.000000	0.000000	0.000000
1.440000	97.840000	76.710000	0.000000	0.000000	139.000000	57.000000	72.000000	-18.000000
1.450000	98.190000	77.080000	0.000000	0.000000	139.000000	57.000000	35.000000	37.000000
1.460000	98.600000	77.410000	0.000000	0.000000	139.000000	57.000000	41.000000	33.000000
1.470000	99.040000	77.710000	0.000000	0.000000	140.000000	58.000000	44.000000	30.000000
1.480000	99.550000	78.010000	0.000000	0.000000	142.000000	58.000000	51.000000	30.000000
1.490000	99.550000	78.010000	526.000000	1.000000	142.000000	58.000000	0.000000	0.000000
1.500000	100.050000	78.290000	583.000000	0.000000	142.000000	58.000000	50.000000	28.000000
1.510000	99.960000	78.490000	608.000000	0.000000	142.000000	58.000000	-9.000000	20.000000
1.520000	99.870000	78.680000	691.000000	0.000000	143.000000	57.000000	-9.000000	19.000000
1.530000	99.760000	78.860000	757.000000	0.000000	142.000000	57.000000	-11.000000	18.000000
1.540000	99.530000	79.040000	771.000000	0.000000	142.000000	57.000000	-23.000000	18.000000
1.550000	99.240000	79.210000	762.000000	0.000000	140.000000	56.000000	-29.000000	17.000000
1.560000	98.980000	79.150000	745.000000	0.000000	141.000000	56.000000	-26.000000	-6.000000
1.570000	98.650000	79.070000	720.000000	0.000000	141.000000	56.000000	-33.000000	-8.000000
1.580000	98.280000	78.710000	711.000000	0.000000	141.000000	56.000000	-37.000000	-36.000000
1.590000	97.900000	78.170000	699.000000	0.000000	141.000000	56.000000	-38.000000	-54.000000
1.600000	97.570000	77.610000	682.000000	0.000000	140.000000	56.000000	-33.000000	-56.000000
1.610000	97.440000	77.180000	679.000000	0.000000	142.000000	57.000000	-13.000000	-43.000000
1.620000	97.440000	76.850000	675.000000	0.000000	142.000000	57.000000	0.000000	-33.000000
1.630000	97.510000	76.640000	672.000000	0.000000	140.000000	58.000000	7.000000	-21.000000
1.640000	97.750000	76.580000	681.000000	0.000000	140.000000	58.000000	24.000000	-6.000000
1.650000	98.100000	76.580000	687.000000	0.000000	138.000000	58.000000	35.000000	0.000000
1.660000	98.550000	76.770000	687.000000	0.000000	139.000000	58.000000	45.000000	19.000000
1.670000	98.940000	77.060000	693.000000	0.000000	139.000000	58.000000	39.000000	29.000000
1.680000	99.300000	77.430000	714.000000	0.000000	139.000000	58.000000	36.000000	37.000000
1.690000	99.650000	77.860000	728.000000	0.000000	139.000000	58.000000	35.000000	43.000000
1.700000	99.890000	78.260000	758.000000	0.000000	139.000000	58.000000	24.000000	40.000000
1.710000	100.060000	78.610000	777.000000	0.000000	139.000000	58.000000	17.000000	35.000000
1.720000	100.060000	78.730000	811.000000	0.000000	138.000000	58.000000	0.000000	12.000000
1.730000	100.060000	78.730000	808.000000	0.000000	138.000000	58.000000	0.000000	0.000000
1.740000	100.000000	78.630000	808.000000	0.000000	138.000000	58.000000	-6.000000	-10.000000
1.750000	100.000000	78.550000	809.000000	0.000000	139.000000	57.000000	0.000000	-8.000000
1.760000	99.860000	78.290000	806.000000	0.000000	138.000000	57.000000	-14.000000	-26.000000
1.770000	99.720000	77.930000	779.000000	0.000000	138.000000	57.000000	-14.000000	-36.000000
1.780000	99.720000	77.690000	728.000000	0.000000	138.000000	57.000000	0.000000	-24.000000
1.790000	99.870000	77.440000	644.000000	0.000000	138.000000	57.000000	15.000000	-25.000000
1.800000	100.090000	77.170000	533.000000	0.000000	136.000000	57.000000	22.000000	-27.000000
1.810000	100.330000	76.960000	373.000000	0.000000	136.000000	57.000000	24.000000	-21.000000
1.820000	100.570000	76.790000	98.000000	0.000000	138.000000	58.000000	24.000000	-17.000000
1.830000	100.570000	76.790000	0.000000	1.000000	138.000000	58.000000	0.000000	0.000000
1.840000	101.180000	76.860000	0.000000	0.000000	136.000000	58.000000	61.000000	7.000000
1.850000	101.450000	77.060000	0.000000	0.000000	138.000000	59.000000	27.000000	20.000000
1.860000	101.450000	77.060000	105.000000	1.000000	138.000000	59.000000	0.000000	0.000000
1.870000	101.590000	77.430000	259.000000	0.000000	139.000000	60.000000	14.000000	37.000000
1.880000	101.390000	77.570000	415.000000	0.000000	139.000000	60.000000	-20.000000	14.000000
1.890000	101.180000	77.710000	496.000000	0.000000	141.000000	60.000000	-21.000000	14.000000
1.900000	100.980000	77.770000	566.000000	0.000000	141.000000	60.000000	-20.000000	6.000000
1.910000	100.900000	77.770000	617.000000	0.000000	141.000000	60.000000	-8.000000	0.000000
1.920000	100.900000	77.770000	616.000000	0.000000	141.000000	60.000000	0.000000	0.000000
1.930000	100.900000	77.770000	620.000000	0.000000	141.000000	59.000000	0.000000	0.000000
1.940000	100.950000	77.770000	619.000000	0.000000	141.000000	59.000000	5.000000	0.000000
1.950000	101.050000	77.680000	620.000000	0.000000	139.000000	58.000000	10.000000	-9.000000
1.960000	101.210000	77.620000	606.000000	0.000000	139.000000	58.000000	16.000000	-6.000000
1.970000	101.440000	77.550000	588.000000	0.000000	138.000000	58.000000	23.000000	-7.000000
1.980000	101.720000	77.550000	560.000000	0.000000	138.000000	58.000000	28.000000	0.000000
1.990000	102.030000	77.670000	540.000000	0.000000	138.000000	58.000000	31.000000	12.000000
2.000000	102.350000	77.940000	535.000000	0.000000	138.000000	58.000000	32.000000	27.000000
2.010000	102.660000	78.250000	516.000000	0.000000	138.000000	58.000000	31.000000	31.000000
2.020000	102.930000	78.580000	512.000000	0.000000	138.000000	58.000000	27.000000	33.000000
2.030000	103.180000	78.940000	522.000000	0.000000	138.000000	58.000000	25.000000	36.000000
2.040000	103.180000	79.260000	569.000000	0.000000	138.000000	58.000000	0.000000	32.000000
2.050000	103.120000	79.400000	638.000000	0.000000	138.000000	58.000000	-6.000000	14.000000
2.060000	102.940000	79.400000	671.000000	0.000000	138.000000	58.000000	-18.000000	0.000000
2.070000	102.700000	79.400000	717.000000	0.000000	138.000000	58.000000	-24.000000	0.000000
2.080000	102.330000	79.120000	783.000000	0.000000	138.000000	58.000000	-37.000000	-28.000000
2.090000	101.870000	78.750000	854.000000	0.000000	138.000000	58.000000	-46.000000	-37.000000
2.100000	101.520000	78.380000	888.000000	0.000000	138.000000	58.000000	-35.000000	-37.000000
2.110000	101.200000	77.930000	900.000000	0.000000	136.000000	57.000000	-32.000000	-45.000000
2.120000	100.960000	77.430000	899.000000	0.000000	136.000000	57.000000	-24.000000	-50.000000
2.130000	100.960000	77.170000	897.000000	0.000000	136.000000	57.000000	0.000000	-26.000000
2.140000	101.140000	76.940000	881.000000	0.000000	136.000000	57.000000	18.000000	-23.000000
2.150000	101.440000	76.720000	873.000000	0.000000	138.000000	58.000000	30.000000	-22.000000
2.160000	101.920000	76.720000	861.000000	0.000000	138.000000	58.000000	48.000000	0.000000
2.170000	102.520000	76.950000	858.000000	0.000000	138.000000	58.000000	60.000000	23.000000
2.180000	103.140000	77.310000	851.000000	0.000000	138.000000	58.000000	62.000000	36.000000
2.190000	103.740000	77.700000	849.000000	0.000000	138.000000	58.000000	60.000000	39.000000
2.200000	104.270000	78.100000	855.000000	0.000000	139.000000	58.000000	53.000000	40.000000
