t	x	y	pressure	penup	azimuth	inclination	v_x	v_y
0.000000	92.280000	33.890000	112.000000	1.000000	145.000000	55.000000	0.000000	0.000000
0.010000	92.650000	34.310000	171.000000	0.000000	146.000000	55.000000	37.000000	42.000000
0.020000	92.650000	34.480000	207.000000	0.000000	145.000000	56.000000	0.000000	17.000000
0.030000	92.650000	34.610000	249.000000	0.000000	145.000000	56.000000	0.000000	13.000000
0.040000	92.700000	34.670000	309.000000	0.000000	145.000000	56.000000	5.000000	6.000000
0.050000	92.700000	34.720000	374.000000	0.000000	143.000000	56.000000	0.000000	5.000000
0.060000	92.700000	34.720000	404.000000	0.000000	143.000000	56.000000	0.000000	0.000000
0.070000	92.700000	34.790000	422.000000	0.000000	141.000000	56.000000	0.000000	7.000000
0.080000	92.700000	34.790000	414.000000	0.000000	141.000000	56.000000	0.000000	0.000000
0.090000	92.700000	34.660000	438.000000	0.000000	141.000000	56.000000	0.000000	-13.000000
0.100000	92.620000	34.160000	442.000000	0.000000	140.000000	55.000000	-8.000000	-50.000000
0.110000	92.500000	33.390000	472.000000	0.000000	140.000000	55.000000	-12.000000	-77.000000
0.120000	92.220000	32.050000	519.000000	0.000000	140.000000	55.000000	-28.000000	-134.000000
0.130000	91.840000	30.560000	575.000000	0.000000	141.000000	56.000000	-38.000000	-149.000000
0.140000	91.390000	28.970000	636.000000	0.000000	143.000000	55.000000	-45.000000	-159.000000
0.150000	90.990000	27.440000	669.000000	0.000000	141.000000	56.000000	-40.000000	-153.000000
0.160000	90.650000	26.240000	693.000000	0.000000	141.000000	56.000000	-34.000000	-120.000000
0.170000	90.650000	25.260000	700.000000	0.000000	140.000000	56.000000	0.000000	-98.000000
0.180000	90.770000	24.650000	696.000000	0.000000	139.000000	56.000000	12.000000	-61.000000
0.190000	91.120000	24.280000	675.000000	0.000000	138.000000	57.000000	35.000000	-37.000000
0.200000	91.520000	24.070000	671.000000	0.000000	136.000000	57.000000	40.000000	-21.000000
0.210000	92.000000	24.070000	647.000000	0.000000	136.000000	57.000000	48.000000	0.000000
0.220000	92.520000	24.370000	636.000000	0.000000	135.000000	58.000000	52.000000	30.000000
0.230000	93.070000	24.830000	617.000000	0.000000	135.000000	58.000000	55.000000	46.000000
0.240000	93.390000	25.520000	589.000000	0.000000	135.000000	58.000000	32.000000	69.000000
0.250000	93.560000	26.290000	561.000000	0.000000	135.000000	58.000000	17.000000	77.000000
0.260000	93.270000	27.120000	575.000000	0.000000	135.000000	58.000000	-29.000000	83.000000
0.270000	92.560000	27.810000	602.000000	0.000000	136.000000	58.000000	-71.000000	69.000000
0.280000	91.560000	28.170000	644.000000	0.000000	138.000000	58.000000	-100.000000	36.000000
0.290000	90.440000	28.310000	685.000000	0.000000	138.000000	58.000000	-112.000000	14.000000
0.300000	89.190000	28.110000	722.000000	0.000000	139.000000	57.000000	-125.000000	-20.000000
0.310000	87.860000	27.700000	808.000000	0.000000	139.000000	57.000000	-133.000000	-41.000000
0.320000	86.790000	27.140000	831.000000	0.000000	139.000000	57.000000	-107.000000	-56.000000
0.330000	86.350000	26.830000	830.000000	0.000000	140.000000	56.000000	-44.000000	-31.000000
0.340000	86.350000	26.640000	821.000000	0.000000	140.000000	56.000000	0.000000	-19.000000
0.350000	86.650000	26.540000	818.000000	0.000000	140.000000	58.000000	30.000000	-10.000000
0.360000	87.870000	26.410000	800.000000	0.000000	140.000000	58.000000	122.000000	-13.000000
0.370000	89.690000	26.540000	793.000000	0.000000	140.000000	58.000000	182.000000	13.000000
0.380000	91.760000	26.840000	791.000000	0.000000	140.000000	58.000000	207.000000	30.000000
0.390000	94.220000	27.350000	791.000000	0.000000	142.000000	58.000000	246.000000	51.000000
0.400000	96.930000	27.870000	737.000000	0.000000	142.000000	58.000000	271.000000	52.000000
0.410000	99.350000	28.400000	661.000000	0.000000	142.000000	58.000000	242.000000	53.000000
0.420000	101.180000	28.840000	588.000000	0.000000	143.000000	59.000000	183.000000	44.000000
0.430000	102.610000	29.120000	461.000000	0.000000	143.000000	59.000000	143.000000	28.000000
0.440000	103.420000	29.300000	184.000000	0.000000	143.000000	59.000000	81.000000	18.000000
0.450000	103.420000	29.300000	0.000000	1.000000	144.000000	58.000000	0.000000	0.000000
0.460000	103.460000	29.450000	0.000000	0.000000	144.000000	58.000000	4.000000	15.000000
0.470000	102.820000	29.450000	0.000000	0.000000	144.000000	58.000000	-64.000000	0.000000
0.480000	101.910000	29.360000	0.000000	0.000000	143.000000	59.000000	-91.000000	-9.000000
0.490000	100.820000	29.280000	0.000000	0.000000	143.000000	59.000000	-109.000000	-8.000000
0.500000	99.900000	29.190000	0.000000	0.000000	145.000000	59.000000	-92.000000	-9.000000
0.510000	98.990000	29.140000	0.000000	0.000000	145.000000	59.000000	-91.000000	-5.000000
0.520000	98.100000	29.140000	0.000000	0.000000	145.000000	59.000000	-89.000000	0.000000
0.530000	97.240000	29.050000	0.000000	0.000000	145.000000	59.000000	-86.000000	-9.000000
0.540000	96.430000	29.050000	0.000000	0.000000	144.000000	60.000000	-81.000000	0.000000
0.550000	95.690000	29.050000	0.000000	0.000000	142.000000	59.000000	-74.000000	0.000000
0.560000	95.020000	29.050000	0.000000	0.000000	142.000000	59.000000	-67.000000	0.000000
0.570000	94.410000	29.100000	0.000000	0.000000	141.000000	59.000000	-61.000000	5.000000
0.580000	93.840000	29.170000	0.000000	0.000000	139.000000	58.000000	-57.000000	7.000000
0.590000	93.470000	29.320000	0.000000	0.000000	139.000000	57.000000	-37.000000	15.000000
0.600000	93.220000	29.510000	0.000000	0.000000	139.000000	57.000000	-25.000000	19.000000
0.610000	93.150000	29.740000	0.000000	0.000000	138.000000	57.000000	-7.000000	23.000000
0.620000	93.150000	29.940000	0.000000	0.000000	139.000000	56.000000	0.000000	20.000000
0.630000	93.150000	30.180000	0.000000	0.000000	139.000000	56.000000	0.000000	24.000000
0.640000	93.250000	30.430000	0.000000	0.000000	139.000000	56.000000	10.000000	25.000000
0.650000	93.350000	30.690000	0.000000	0.000000	140.000000	55.000000	10.000000	26.000000
0.660000	93.450000	30.890000	0.000000	0.000000	140.000000	55.000000	10.000000	20.000000
0.670000	93.520000	31.090000	0.000000	0.000000	141.000000	55.000000	7.000000	20.000000
0.680000	93.520000	31.090000	161.000000	1.000000	143.000000	55.000000	0.000000	0.000000
0.690000	93.520000	31.090000	228.000000	0.000000	143.000000	55.000000	0.000000	0.000000
0.700000	93.270000	31.320000	275.000000	0.000000	144.000000	54.000000	-25.000000	23.000000
0.710000	93.140000	31.320000	371.000000	0.000000	144.000000	54.000000	-13.000000	0.000000
0.720000	93.010000	31.380000	469.000000	0.000000	144.000000	54.000000	-13.000000	6.000000
0.730000	92.960000	31.380000	537.000000	0.000000	145.000000	55.000000	-5.000000	0.000000
0.740000	92.960000	31.380000	561.000000	0.000000	145.000000	55.000000	0.000000	0.000000
0.750000	92.960000	31.380000	585.000000	0.000000	146.000000	54.000000	0.000000	0.000000
0.760000	92.960000	31.380000	605.000000	0.000000	146.000000	54.000000	0.000000	0.000000
0.770000	92.960000	31.380000	620.000000	0.000000	146.000000	54.000000	0.000000	0.000000
0.780000	92.960000	31.380000	616.000000	0.000000	146.000000	54.000000	0.000000	0.000000
0.790000	93.010000	31.320000	625.000000	0.000000	146.000000	54.000000	5.000000	-6.000000
0.800000	93.060000	31.270000	638.000000	0.000000	147.000000	55.000000	5.000000	-5.000000
0.810000	93.060000	31.180000	653.000000	0.000000	147.000000	55.000000	0.000000	-9.000000
0.820000	93.060000	30.950000	673.000000	0.000000	147.000000	55.000000	0.000000	-23.000000
0.830000	92.960000	30.640000	667.000000	0.000000	147.000000	55.000000	-10.000000	-31.000000
0.840000	92.880000	30.350000	690.000000	0.000000	147.000000	55.000000	-8.000000	-29.000000
0.850000	92.640000	29.940000	711.000000	0.000000	147.000000	55.000000	-24.000000	-41.000000
0.860000	92.290000	29.310000	722.000000	0.000000	147.000000	55.000000	-35.000000	-63.000000
0.870000	92.000000	28.750000	757.000000	0.000000	146.000000	55.000000	-29.000000	-56.000000
0.880000	91.750000	28.220000	785.000000	0.000000	146.000000	55.000000	-25.000000	-53.000000
0.890000	91.590000	27.770000	794.000000	0.000000	146.000000	55.000000	-16.000000	-45.000000
0.900000	91.520000	27.520000	811.000000	0.000000	145.000000	56.000000	-7.000000	-25.000000
0.910000	91.520000	27.400000	817.000000	0.000000	145.000000	56.000000	0.000000	-12.000000
0.920000	91.570000	27.400000	843.000000	0.000000	145.000000	56.000000	5.000000	0.000000
0.930000	91.630000	27.400000	867.000000	0.000000	144.000000	57.000000	6.000000	0.000000
0.940000	91.710000	27.510000	867.000000	0.000000	144.000000	57.000000	8.000000	11.000000
0.950000	91.830000	27.780000	885.000000	0.000000	143.000000	56.000000	12.000000	27.000000
0.960000	92.050000	28.390000	887.000000	0.000000	144.000000	57.000000	22.000000	61.000000
0.970000	92.320000	29.220000	896.000000	0.000000	144.000000	57.000000	27.000000	83.000000
0.980000	92.550000	29.950000	902.000000	0.000000	144.000000	57.000000	23.000000	73.000000
0.990000	92.680000	30.540000	909.000000	0.000000	144.000000	57.000000	13.000000	59.000000
1.000000	92.730000	31.050000	903.000000	0.000000	145.000000	56.000000	5.000000	51.000000
1.010000	92.910000	31.490000	908.000000	0.000000	147.000000	56.000000	18.000000	44.000000
1.020000	92.980000	31.660000	918.000000	0.000000	148.000000	56.000000	7.000000	17.000000
1.030000	92.980000	31.660000	921.000000	0.000000	148.000000	56.000000	0.000000	0.000000
1.040000	92.980000	31.660000	917.000000	0.000000	148.000000	56.000000	0.000000	0.000000
1.050000	92.980000	31.560000	909.000000	0.000000	149.000000	55.000000	0.000000	-10.000000
1.060000	92.980000	31.430000	897.000000	0.000000	149.000000	55.000000	0.000000	-13.000000
1.070000	93.050000	31.210000	905.000000	0.000000	149.000000	55.000000	7.000000	-22.000000
1.080000	93.160000	30.900000	879.000000	0.000000	149.000000	55.000000	11.000000	-31.000000
1.090000	93.320000	30.550000	869.000000	0.000000	149.000000	55.000000	16.000000	-35.000000
1.100000	93.570000	30.270000	864.000000	0.000000	149.000000	55.000000	25.000000	-28.000000
1.110000	93.900000	30.080000	842.000000	0.000000	150.000000	55.000000	33.000000	-19.000000
1.120000	94.250000	29.950000	829.000000	0.000000	150.000000	55.000000	35.000000	-13.000000
1.130000	94.600000	29.950000	805.000000	0.000000	150.000000	55.000000	35.000000	0.000000
1.140000	94.940000	30.010000	796.000000	0.000000	152.000000	56.000000	34.000000	6.000000
1.150000	95.260000	30.170000	788.000000	0.000000	152.000000	56.000000	32.000000	16.000000
1.160000	95.690000	30.550000	785.000000	0.000000	152.000000	56.000000	43.000000	38.000000
1.170000	96.100000	30.960000	787.000000	0.000000	152.000000	56.000000	41.000000	41.000000
1.180000	96.380000	31.400000	788.000000	0.000000	153.000000	56.000000	28.000000	44.000000
1.190000	96.580000	31.720000	808.000000	0.000000	153.000000	56.000000	20.000000	32.000000
1.200000	96.580000	31.810000	824.000000	0.000000	153.000000	56.000000	0.000000	9.000000
1.210000	96.580000	31.750000	819.000000	0.000000	153.000000	56.000000	0.000000	-6.000000
1.220000	96.500000	31.590000	833.000000	0.000000	153.000000	56.000000	-8.000000	-16.000000
1.230000	96.280000	31.370000	869.000000	0.000000	153.000000	56.000000	-22.000000	-22.000000
1.240000	95.830000	30.780000	863.000000	0.000000	153.000000	56.000000	-45.000000	-59.000000
1.250000	95.220000	29.970000	870.000000	0.000000	153.000000	56.000000	-61.000000	-81.000000
1.260000	94.760000	29.290000	867.000000	0.000000	153.000000	56.000000	-46.000000	-68.000000
1.270000	94.550000	28.720000	869.000000	0.000000	152.000000	57.000000	-21.000000	-57.000000
1.280000	94.550000	28.230000	818.000000	0.000000	152.000000	57.000000	0.000000	-49.000000
1.290000	94.660000	27.810000	739.000000	0.000000	152.000000	57.000000	11.000000	-42.000000
1.300000	94.850000	27.390000	541.000000	0.000000	151.000000	58.000000	19.000000	-42.000000
1.310000	95.140000	27.140000	253.000000	0.000000	151.000000	58.000000	29.000000	-25.000000
1.320000	95.140000	27.140000	0.000000	1.000000	151.000000	58.000000	0.000000	0.000000
1.330000	96.000000	27.010000	0.000000	0.000000	150.000000	58.000000	86.000000	-13.000000
1.340000	96.420000	27.360000	0.000000	0.000000	150.000000	58.000000	42.000000	35.000000
1.350000	96.780000	27.860000	0.000000	0.000000	147.000000	59.000000	36.000000	50.000000
1.360000	97.280000	28.350000	0.000000	0.000000	147.000000	59.000000	50.000000	49.000000
1.370000	97.670000	28.830000	0.000000	0.000000	147.000000	59.000000	39.000000	48.000000
1.380000	97.990000	29.130000	0.000000	0.000000	149.000000	59.000000	32.000000	30.000000
1.390000	97.990000	29.130000	501.000000	1.000000	149.000000	59.000000	0.000000	0.000000
1.400000	98.550000	29.440000	591.000000	0.000000	149.000000	59.000000	56.000000	31.000000
1.410000	98.550000	29.650000	606.000000	0.000000	151.000000	60.000000	0.000000	21.000000
1.420000	98.550000	29.910000	611.000000	0.000000	152.000000	59.000000	0.000000	26.000000
1.430000	98.500000	30.070000	653.000000	0.000000	152.000000	59.000000	-5.000000	16.000000
1.440000	98.400000	30.270000	697.000000	0.000000	154.000000	58.000000	-10.000000	20.000000
1.450000	98.220000	30.490000	721.000000	0.000000	154.000000	58.000000	-18.000000	22.000000
1.460000	98.080000	30.490000	699.000000	0.000000	154.000000	58.000000	-14.000000	0.000000
1.470000	97.900000	30.490000	682.000000	0.000000	155.000000	58.000000	-18.000000	0.000000
1.480000	97.520000	30.270000	671.000000	0.000000	155.000000	58.000000	-38.000000	-22.000000
1.490000	97.010000	29.840000	661.000000	0.000000	155.000000	58.000000	-51.000000	-43.000000
1.500000	96.610000	29.370000	655.000000	0.000000	155.000000	58.000000	-40.000000	-47.000000
1.510000	96.380000	28.880000	649.000000	0.000000	155.000000	58.000000	-23.000000	-49.000000
1.520000	96.250000	28.510000	641.000000	0.000000	155.000000	58.000000	-13.000000	-37.000000
1.530000	96.370000	28.240000	628.000000	0.000000	154.000000	58.000000	12.000000	-27.000000
1.540000	96.530000	28.090000	625.000000	0.000000	154.000000	58.000000	16.000000	-15.000000
1.550000	96.770000	28.030000	627.000000	0.000000	153.000000	58.000000	24.000000	-6.000000
1.560000	97.170000	28.030000	628.000000	0.000000	153.000000	58.000000	40.000000	0.000000
1.570000	97.670000	28.280000	639.000000	0.000000	153.000000	58.000000	50.000000	25.000000
1.580000	98.100000	28.590000	646.000000	0.000000	154.000000	58.000000	43.000000	31.000000
1.590000	98.410000	28.960000	673.000000	0.000000	154.000000	58.000000	31.000000	37.000000
1.600000	98.640000	29.270000	691.000000	0.000000	154.000000	58.000000	23.000000	31.000000
1.610000	98.800000	29.620000	739.000000	0.000000	154.000000	58.000000	16.000000	35.000000
1.620000	98.800000	29.780000	768.000000	0.000000	154.000000	58.000000	0.000000	16.000000
1.630000	98.800000	29.780000	787.000000	0.000000	156.000000	59.000000	0.000000	0.000000
1.640000	98.800000	29.780000	803.000000	0.000000	156.000000	59.000000	0.000000	0.000000
1.650000	98.740000	29.780000	800.000000	0.000000	156.000000	59.000000	-6.000000	0.000000
1.660000	98.740000	29.780000	794.000000	0.000000	157.000000	58.000000	0.000000	0.000000
1.670000	98.740000	29.630000	773.000000	0.000000	158.000000	58.000000	0.000000	-15.000000
1.680000	98.740000	29.430000	737.000000	0.000000	158.000000	58.000000	0.000000	-20.000000
1.690000	98.740000	29.140000	671.000000	0.000000	158.000000	58.000000	0.000000	-29.000000
1.700000	98.920000	28.860000	566.000000	0.000000	158.000000	58.000000	18.000000	-28.000000
1.710000	99.140000	28.660000	366.000000	0.000000	157.000000	59.000000	22.000000	-20.000000
1.720000	99.400000	28.520000	93.000000	0.000000	157.000000	59.000000	26.000000	-14.000000
1.730000	99.400000	28.520000	0.000000	1.000000	157.000000	59.000000	0.000000	0.000000
1.740000	99.930000	28.510000	0.000000	0.000000	157.000000	60.000000	53.000000	-1.000000
1.750000	100.130000	28.700000	0.000000	0.000000	157.000000	60.000000	20.000000	19.000000
1.760000	100.280000	28.910000	0.000000	0.000000	157.000000	60.000000	15.000000	21.000000
1.770000	100.280000	28.910000	168.000000	1.000000	155.000000	60.000000	0.000000	0.000000
1.780000	100.290000	29.330000	339.000000	0.000000	155.000000	60.000000	1.000000	42.000000
1.790000	100.160000	29.510000	412.000000	0.000000	155.000000	60.000000	-13.000000	18.000000
1.800000	100.060000	29.670000	494.000000	0.000000	153.000000	59.000000	-10.000000	16.000000
1.810000	100.000000	29.730000	570.000000	0.000000	153.000000	59.000000	-6.000000	6.000000
1.820000	100.000000	29.730000	617.000000	0.000000	152.000000	59.000000	0.000000	0.000000
1.830000	100.000000	29.730000	627.000000	0.000000	153.000000	58.000000	0.000000	0.000000
1.840000	100.050000	29.730000	631.000000	0.000000	151.000000	58.000000	5.000000	0.000000
1.850000	100.110000	29.730000	631.000000	0.000000	151.000000	58.000000	6.000000	0.000000
1.860000	100.230000	29.730000	624.000000	0.000000	152.000000	57.000000	12.000000	0.000000
1.870000	100.430000	29.790000	611.000000	0.000000	152.000000	57.000000	20.000000	6.000000
1.880000	100.660000	29.840000	588.000000	0.000000	152.000000	57.000000	23.000000	5.000000
1.890000	100.900000	29.960000	543.000000	0.000000	152.000000	57.000000	24.000000	12.000000
1.900000	101.160000	30.190000	517.000000	0.000000	152.000000	57.000000	26.000000	23.000000
1.910000	101.440000	30.500000	466.000000	0.000000	152.000000	57.000000	28.000000	31.000000
1.920000	101.720000	30.830000	440.000000	0.000000	152.000000	57.000000	28.000000	33.000000
1.930000	101.920000	31.200000	443.000000	0.000000	152.000000	57.000000	20.000000	37.000000
1.940000	102.080000	31.610000	456.000000	0.000000	152.000000	57.000000	16.000000	41.000000
1.950000	102.140000	31.820000	515.000000	0.000000	152.000000	57.000000	6.000000	21.000000
1.960000	102.140000	31.890000	589.000000	0.000000	152.000000	57.000000	0.000000	7.000000
1.970000	102.030000	31.890000	610.000000	0.000000	152.000000	57.000000	-11.000000	0.000000
1.980000	101.840000	31.770000	673.000000	0.000000	152.000000	57.000000	-19.000000	-12.000000
1.990000	101.500000	31.430000	753.000000	0.000000	152.000000	57.000000	-34.000000	-34.000000
2.000000	101.060000	30.930000	799.000000	0.000000	152.000000	57.000000	-44.000000	-50.000000
2.010000	100.750000	30.490000	817.000000	0.000000	151.000000	56.000000	-31.000000	-44.000000
2.020000	100.480000	30.050000	842.000000	0.000000	151.000000	56.000000	-27.000000	-44.000000
2.030000	100.280000	29.620000	843.000000	0.000000	151.000000	56.000000	-20.000000	-43.000000
2.040000	100.280000	29.320000	845.000000	0.000000	152.000000	57.000000	0.000000	-30.000000
2.050000	100.410000	29.100000	834.000000	0.000000	152.000000	57.000000	13.000000	-22.000000
2.060000	100.630000	28.970000	827.000000	0.000000	152.000000	57.000000	22.000000	-13.000000
2.070000	100.980000	29.040000	821.000000	0.000000	152.000000	57.000000	35.000000	7.000000
2.080000	101.410000	29.240000	824.000000	0.000000	154.000000	57.000000	43.000000	20.000000
2.090000	101.860000	29.680000	818.000000	0.000000	154.000000	57.000000	45.000000	44.000000
2.100000	102.310000	30.150000	812.000000	0.000000	154.000000	57.000000	45.000000	47.000000
2.110000	102.750000	30.650000	814.000000	0.000000	154.000000	57.000000	44.000000	50.000000
2.120000	103.020000	31.010000	815.000000	0.000000	155.000000	58.000000	27.000000	36.000000
2.130000	103.200000	31.140000	823.000000	0.000000	155.000000	58.000000	18.000000	13.000000
2.140000	103.200000	31.140000	826.000000	0.000000	155.000000	58.000000	0.000000	0.000000
2.150000	103.200000	31.070000	827.000000	0.000000	155.000000	58.000000	0.000000	-7.000000
2.160000	103.200000	30.980000	832.000000	0.000000	155.000000	58.000000	0.000000	-9.000000
2.170000	103.330000	30.680000	832.000000	0.000000	154.000000	58.000000	13.000000	-30.000000
2.180000	103.430000	30.250000	827.000000	0.000000	154.000000	58.000000	10.000000	-43.000000
2.190000	103.430000	29.720000	821.000000	0.000000	153.000000	58.000000	0.000000	-53.000000
2.200000	103.430000	29.190000	806.000000	0.000000	153.000000	58.000000	0.000000	-53.000000
