t	x	y	pressure	penup	azimuth	inclination	v_x	v_y
0.000000	49.170000	62.950000	22.000000	1.000000	143.000000	63.000000	0.000000	0.000000
0.010000	49.170000	62.950000	94.000000	0.000000	143.000000	63.000000	0.000000	0.000000
0.020000	49.170000	62.950000	160.000000	0.000000	143.000000	63.000000	0.000000	0.000000
0.030000	49.170000	62.950000	244.000000	0.000000	143.000000	63.000000	0.000000	0.000000
0.040000	49.170000	62.950000	307.000000	0.000000	145.000000	64.000000	0.000000	0.000000
0.050000	49.170000	62.950000	366.000000	0.000000	145.000000	64.000000	0.000000	0.000000
0.060000	49.170000	62.950000	418.000000	0.000000	145.000000	64.000000	0.000000	0.000000
0.070000	49.460000	63.000000	473.000000	0.000000	145.000000	64.000000	29.000000	5.000000
0.080000	49.630000	63.000000	516.000000	0.000000	145.000000	64.000000	17.000000	0.000000
0.090000	49.930000	63.220000	553.000000	0.000000	145.000000	64.000000	30.000000	22.000000
0.100000	50.310000	63.510000	585.000000	0.000000	145.000000	64.000000	38.000000	29.000000
0.110000	50.760000	64.010000	613.000000	0.000000	143.000000	63.000000	45.000000	50.000000
0.120000	51.230000	64.630000	636.000000	0.000000	143.000000	63.000000	47.000000	62.000000
0.130000	51.730000	65.330000	649.000000	0.000000	143.000000	63.000000	50.000000	70.000000
0.140000	52.260000	66.180000	661.000000	0.000000	143.000000	63.000000	53.000000	85.000000
0.150000	52.810000	67.270000	643.000000	0.000000	143.000000	63.000000	55.000000	109.000000
0.160000	53.210000	68.520000	645.000000	0.000000	143.000000	63.000000	40.000000	125.000000
0.170000	53.510000	69.880000	622.000000	0.000000	143.000000	63.000000	30.000000	136.000000
0.180000	53.590000	71.090000	628.000000	0.000000	144.000000	62.000000	8.000000	121.000000
0.190000	53.650000	71.930000	628.000000	0.000000	146.000000	62.000000	6.000000	84.000000
0.200000	53.650000	72.590000	627.000000	0.000000	147.000000	61.000000	0.000000	66.000000
0.210000	53.730000	73.040000	628.000000	0.000000	148.000000	60.000000	8.000000	45.000000
0.220000	53.730000	73.190000	622.000000	0.000000	152.000000	59.000000	0.000000	15.000000
0.230000	53.730000	73.140000	613.000000	0.000000	153.000000	58.000000	0.000000	-5.000000
0.240000	53.730000	72.880000	616.000000	0.000000	154.000000	57.000000	0.000000	-26.000000
0.250000	53.650000	72.150000	627.000000	0.000000	154.000000	57.000000	-8.000000	-73.000000
0.260000	53.500000	71.100000	634.000000	0.000000	154.000000	56.000000	-15.000000	-105.000000
0.270000	53.390000	69.940000	637.000000	0.000000	154.000000	57.000000	-11.000000	-116.000000
0.280000	53.390000	68.740000	641.000000	0.000000	154.000000	57.000000	0.000000	-120.000000
0.290000	53.480000	67.780000	644.000000	0.000000	153.000000	58.000000	9.000000	-96.000000
0.300000	53.480000	66.990000	646.000000	0.000000	152.000000	59.000000	0.000000	-79.000000
0.310000	53.480000	66.400000	646.000000	0.000000	151.000000	60.000000	0.000000	-59.000000
0.320000	53.530000	65.950000	652.000000	0.000000	150.000000	60.000000	5.000000	-45.000000
0.330000	53.580000	65.600000	655.000000	0.000000	147.000000	62.000000	5.000000	-35.000000
0.340000	53.660000	65.280000	655.000000	0.000000	144.000000	62.000000	8.000000	-32.000000
0.350000	53.790000	65.100000	649.000000	0.000000	144.000000	62.000000	13.000000	-18.000000
0.360000	53.940000	65.020000	649.000000	0.000000	143.000000	63.000000	15.000000	-8.000000
0.370000	54.120000	65.020000	653.000000	0.000000	143.000000	63.000000	18.000000	0.000000
0.380000	54.450000	65.260000	658.000000	0.000000	143.000000	63.000000	33.000000	24.000000
0.390000	54.890000	65.650000	655.000000	0.000000	145.000000	64.000000	44.000000	39.000000
0.400000	55.300000	66.220000	659.000000	0.000000	145.000000	64.000000	41.000000	57.000000
0.410000	55.680000	66.990000	650.000000	0.000000	145.000000	64.000000	38.000000	77.000000
0.420000	56.040000	67.890000	644.000000	0.000000	145.000000	64.000000	36.000000	90.000000
0.430000	56.330000	68.880000	637.000000	0.000000	146.000000	64.000000	29.000000	99.000000
0.440000	56.520000	69.800000	638.000000	0.000000	148.000000	63.000000	19.000000	92.000000
0.450000	56.630000	70.680000	643.000000	0.000000	148.000000	63.000000	11.000000	88.000000
0.460000	56.690000	71.380000	638.000000	0.000000	151.000000	63.000000	6.000000	70.000000
0.470000	56.750000	71.860000	650.000000	0.000000	153.000000	61.000000	6.000000	48.000000
0.480000	56.850000	72.190000	652.000000	0.000000	156.000000	61.000000	10.000000	33.000000
0.490000	56.850000	72.330000	646.000000	0.000000	157.000000	60.000000	0.000000	14.000000
0.500000	56.850000	72.260000	644.000000	0.000000	157.000000	59.000000	0.000000	-7.000000
0.510000	56.850000	72.040000	650.000000	0.000000	158.000000	58.000000	0.000000	-22.000000
0.520000	56.850000	71.520000	668.000000	0.000000	158.000000	58.000000	0.000000	-52.000000
0.530000	56.800000	70.510000	684.000000	0.000000	158.000000	58.000000	-5.000000	-101.000000
0.540000	56.630000	69.180000	717.000000	0.000000	158.000000	58.000000	-17.000000	-133.000000
0.550000	56.460000	67.900000	736.000000	0.000000	157.000000	59.000000	-17.000000	-128.000000
0.560000	56.300000	66.820000	752.000000	0.000000	157.000000	60.000000	-16.000000	-108.000000
0.570000	56.140000	65.870000	757.000000	0.000000	156.000000	61.000000	-16.000000	-95.000000
0.580000	56.030000	65.020000	758.000000	0.000000	153.000000	61.000000	-11.000000	-85.000000
0.590000	56.030000	64.250000	751.000000	0.000000	152.000000	62.000000	0.000000	-77.000000
0.600000	55.870000	63.540000	761.000000	0.000000	151.000000	63.000000	-16.000000	-71.000000
0.610000	55.770000	62.980000	750.000000	0.000000	150.000000	64.000000	-10.000000	-56.000000
0.620000	55.700000	62.570000	757.000000	0.000000	148.000000	65.000000	-7.000000	-41.000000
0.630000	55.700000	62.270000	733.000000	0.000000	146.000000	64.000000	0.000000	-30.000000
0.640000	55.700000	62.010000	682.000000	0.000000	146.000000	64.000000	0.000000	-26.000000
0.650000	55.790000	61.900000	595.000000	0.000000	146.000000	64.000000	9.000000	-11.000000
0.660000	55.890000	61.900000	446.000000	0.000000	146.000000	64.000000	10.000000	0.000000
0.670000	55.890000	61.900000	0.000000	1.000000	146.000000	64.000000	0.000000	0.000000
0.680000	56.240000	62.420000	0.000000	0.000000	146.000000	64.000000	35.000000	52.000000
0.690000	56.410000	62.960000	0.000000	0.000000	146.000000	64.000000	17.000000	54.000000
0.700000	56.510000	63.400000	0.000000	0.000000	148.000000	65.000000	10.000000	44.000000
0.710000	56.580000	63.710000	0.000000	0.000000	148.000000	65.000000	7.000000	31.000000
0.720000	56.840000	63.940000	0.000000	0.000000	148.000000	65.000000	26.000000	23.000000
0.730000	57.140000	64.060000	0.000000	0.000000	150.000000	65.000000	30.000000	12.000000
0.740000	57.480000	64.180000	0.000000	0.000000	152.000000	65.000000	34.000000	12.000000
0.750000	57.830000	64.310000	0.000000	0.000000	152.000000	65.000000	35.000000	13.000000
0.760000	58.180000	64.410000	0.000000	0.000000	153.000000	65.000000	35.000000	10.000000
0.770000	58.520000	64.500000	0.000000	0.000000	153.000000	65.000000	34.000000	9.000000
0.780000	58.850000	64.550000	0.000000	0.000000	153.000000	65.000000	33.000000	5.000000
0.790000	59.040000	64.550000	0.000000	0.000000	153.000000	65.000000	19.000000	0.000000
0.800000	59.150000	64.620000	0.000000	0.000000	153.000000	65.000000	11.000000	7.000000
0.810000	59.150000	64.620000	5.000000	0.000000	153.000000	65.000000	0.000000	0.000000
0.820000	59.150000	64.620000	56.000000	1.000000	153.000000	65.000000	0.000000	0.000000
0.830000	59.150000	64.620000	70.000000	0.000000	155.000000	65.000000	0.000000	0.000000
0.840000	59.160000	64.940000	137.000000	0.000000	155.000000	65.000000	1.000000	32.000000
0.850000	59.160000	65.070000	175.000000	0.000000	155.000000	65.000000	0.000000	13.000000
0.860000	59.110000	65.220000	195.000000	0.000000	156.000000	66.000000	-5.000000	15.000000
0.870000	59.110000	65.380000	259.000000	0.000000	156.000000	66.000000	0.000000	16.000000
0.880000	59.110000	65.510000	312.000000	0.000000	156.000000	66.000000	0.000000	13.000000
0.890000	59.020000	65.570000	376.000000	0.000000	156.000000	66.000000	-9.000000	6.000000
0.900000	58.890000	65.570000	422.000000	0.000000	156.000000	66.000000	-13.000000	0.000000
0.910000	58.700000	65.570000	449.000000	0.000000	156.000000	66.000000	-19.000000	0.000000
0.920000	58.480000	65.400000	478.000000	0.000000	156.000000	66.000000	-22.000000	-17.000000
0.930000	58.150000	65.130000	537.000000	0.000000	156.000000	66.000000	-33.000000	-27.000000
0.940000	57.830000	64.720000	588.000000	0.000000	156.000000	66.000000	-32.000000	-41.000000
0.950000	57.660000	64.290000	611.000000	0.000000	154.000000	66.000000	-17.000000	-43.000000
0.960000	57.600000	63.850000	610.000000	0.000000	154.000000	66.000000	-6.000000	-44.000000
0.970000	57.600000	63.480000	619.000000	0.000000	152.000000	65.000000	0.000000	-37.000000
0.980000	57.600000	63.160000	627.000000	0.000000	152.000000	65.000000	0.000000	-32.000000
0.990000	57.760000	63.000000	633.000000	0.000000	152.000000	65.000000	16.000000	-16.000000
1.000000	58.020000	62.890000	631.000000	0.000000	150.000000	65.000000	26.000000	-11.000000
1.010000	58.300000	62.820000	628.000000	0.000000	150.000000	65.000000	28.000000	-7.000000
1.020000	58.600000	62.870000	627.000000	0.000000	150.000000	65.000000	30.000000	5.000000
1.030000	58.900000	62.990000	624.000000	0.000000	152.000000	65.000000	30.000000	12.000000
1.040000	59.170000	63.170000	617.000000	0.000000	152.000000	65.000000	27.000000	18.000000
1.050000	59.380000	63.330000	610.000000	0.000000	152.000000	65.000000	21.000000	16.000000
1.060000	59.550000	63.560000	613.000000	0.000000	154.000000	66.000000	17.000000	23.000000
1.070000	59.660000	63.850000	609.000000	0.000000	154.000000	66.000000	11.000000	29.000000
1.080000	59.730000	64.190000	611.000000	0.000000	156.000000	66.000000	7.000000	34.000000
1.090000	59.780000	64.520000	611.000000	0.000000	156.000000	66.000000	5.000000	33.000000
1.100000	59.860000	64.810000	617.000000	0.000000	156.000000	66.000000	8.000000	29.000000
1.110000	59.920000	65.060000	620.000000	0.000000	156.000000	66.000000	6.000000	25.000000
1.120000	59.920000	65.200000	616.000000	0.000000	156.000000	66.000000	0.000000	14.000000
1.130000	59.920000	65.270000	619.000000	0.000000	156.000000	66.000000	0.000000	7.000000
1.140000	59.920000	65.270000	622.000000	0.000000	156.000000	66.000000	0.000000	0.000000
1.150000	59.920000	65.270000	620.000000	0.000000	156.000000	66.000000	0.000000	0.000000
1.160000	59.920000	65.200000	625.000000	0.000000	156.000000	66.000000	0.000000	-7.000000
1.170000	59.920000	64.970000	638.000000	0.000000	156.000000	66.000000	0.000000	-23.000000
1.180000	59.870000	64.630000	641.000000	0.000000	156.000000	66.000000	-5.000000	-34.000000
1.190000	59.870000	64.320000	646.000000	0.000000	156.000000	66.000000	0.000000	-31.000000
1.200000	59.810000	63.990000	655.000000	0.000000	156.000000	66.000000	-6.000000	-33.000000
1.210000	59.810000	63.660000	662.000000	0.000000	156.000000	66.000000	0.000000	-33.000000
1.220000	59.880000	63.430000	662.000000	0.000000	156.000000	66.000000	7.000000	-23.000000
1.230000	59.960000	63.250000	661.000000	0.000000	156.000000	66.000000	8.000000	-18.000000
1.240000	60.070000	63.070000	656.000000	0.000000	156.000000	66.000000	11.000000	-18.000000
1.250000	60.170000	62.890000	641.000000	0.000000	156.000000	66.000000	10.000000	-18.000000
1.260000	60.270000	62.790000	622.000000	0.000000	156.000000	66.000000	10.000000	-10.000000
1.270000	60.380000	62.740000	584.000000	0.000000	156.000000	66.000000	11.000000	-5.000000
1.280000	60.510000	62.740000	544.000000	0.000000	156.000000	66.000000	13.000000	0.000000
1.290000	60.660000	62.740000	473.000000	0.000000	156.000000	66.000000	15.000000	0.000000
1.300000	60.770000	62.810000	379.000000	0.000000	156.000000	66.000000	11.000000	7.000000
1.310000	60.870000	62.890000	253.000000	0.000000	156.000000	66.000000	10.000000	8.000000
1.320000	60.970000	63.010000	34.000000	0.000000	156.000000	66.000000	10.000000	12.000000
1.330000	60.970000	63.010000	0.000000	1.000000	156.000000	66.000000	0.000000	0.000000
1.340000	61.110000	63.280000	0.000000	0.000000	156.000000	66.000000	14.000000	27.000000
1.350000	61.110000	63.460000	0.000000	0.000000	156.000000	66.000000	0.000000	18.000000
1.360000	61.190000	63.590000	0.000000	0.000000	156.000000	66.000000	8.000000	13.000000
1.370000	61.270000	63.710000	0.000000	0.000000	156.000000	66.000000	8.000000	12.000000
1.380000	61.360000	63.810000	0.000000	0.000000	156.000000	66.000000	9.000000	10.000000
1.390000	61.470000	63.930000	0.000000	0.000000	156.000000	66.000000	11.000000	12.000000
1.400000	61.560000	64.050000	0.000000	0.000000	154.000000	66.000000	9.000000	12.000000
1.410000	61.660000	64.180000	0.000000	0.000000	154.000000	66.000000	10.000000	13.000000
1.420000	61.780000	64.300000	0.000000	0.000000	154.000000	66.000000	12.000000	12.000000
1.430000	61.920000	64.420000	0.000000	0.000000	155.000000	65.000000	14.000000	12.000000
1.440000	62.060000	64.520000	0.000000	0.000000	155.000000	65.000000	14.000000	10.000000
1.450000	62.160000	64.600000	0.000000	0.000000	155.000000	65.000000	10.000000	8.000000
1.460000	62.230000	64.600000	0.000000	0.000000	155.000000	65.000000	7.000000	0.000000
1.470000	62.230000	64.600000	65.000000	1.000000	156.000000	66.000000	0.000000	0.000000
1.480000	62.230000	64.600000	94.000000	0.000000	156.000000	66.000000	0.000000	0.000000
1.490000	62.230000	64.600000	142.000000	0.000000	156.000000	66.000000	0.000000	0.000000
1.500000	62.230000	64.600000	220.000000	0.000000	156.000000	66.000000	0.000000	0.000000
1.510000	62.230000	64.600000	270.000000	0.000000	156.000000	66.000000	0.000000	0.000000
1.520000	62.230000	64.600000	317.000000	0.000000	156.000000	66.000000	0.000000	0.000000
1.530000	62.500000	64.810000	363.000000	0.000000	156.000000	66.000000	27.000000	21.000000
1.540000	62.590000	64.860000	425.000000	0.000000	156.000000	66.000000	9.000000	5.000000
1.550000	62.700000	64.860000	445.000000	0.000000	156.000000	66.000000	11.000000	0.000000
1.560000	62.810000	64.860000	488.000000	0.000000	156.000000	66.000000	11.000000	0.000000
1.570000	62.970000	64.810000	513.000000	0.000000	156.000000	66.000000	16.000000	-5.000000
1.580000	63.140000	64.810000	540.000000	0.000000	156.000000	66.000000	17.000000	0.000000
1.590000	63.330000	64.810000	537.000000	0.000000	156.000000	66.000000	19.000000	0.000000
1.600000	63.530000	64.810000	543.000000	0.000000	156.000000	66.000000	20.000000	0.000000
1.610000	63.750000	64.900000	550.000000	0.000000	156.000000	66.000000	22.000000	9.000000
1.620000	63.900000	64.970000	556.000000	0.000000	156.000000	66.000000	15.000000	7.000000
1.630000	63.990000	65.040000	568.000000	0.000000	156.000000	66.000000	9.000000	7.000000
1.640000	64.070000	65.200000	560.000000	0.000000	156.000000	66.000000	8.000000	16.000000
1.650000	64.150000	65.410000	572.000000	0.000000	156.000000	66.000000	8.000000	21.000000
1.660000	64.150000	65.570000	594.000000	0.000000	156.000000	66.000000	0.000000	16.000000
1.670000	64.150000	65.720000	616.000000	0.000000	156.000000	66.000000	0.000000	15.000000
1.680000	64.150000	65.840000	617.000000	0.000000	156.000000	66.000000	0.000000	12.000000
1.690000	64.060000	65.920000	624.000000	0.000000	156.000000	66.000000	-9.000000	8.000000
1.700000	63.990000	65.980000	627.000000	0.000000	156.000000	66.000000	-7.000000	6.000000
1.710000	63.930000	65.980000	627.000000	0.000000	156.000000	66.000000	-6.000000	0.000000
1.720000	63.810000	65.980000	630.000000	0.000000	154.000000	66.000000	-12.000000	0.000000
1.730000	63.650000	65.910000	649.000000	0.000000	154.000000	66.000000	-16.000000	-7.000000
1.740000	63.470000	65.760000	661.000000	0.000000	154.000000	66.000000	-18.000000	-15.000000
1.750000	63.300000	65.580000	672.000000	0.000000	154.000000	66.000000	-17.000000	-18.000000
1.760000	63.140000	65.350000	696.000000	0.000000	154.000000	66.000000	-16.000000	-23.000000
1.770000	62.980000	65.050000	714.000000	0.000000	154.000000	66.000000	-16.000000	-30.000000
1.780000	62.850000	64.760000	722.000000	0.000000	154.000000	66.000000	-13.000000	-29.000000
1.790000	62.800000	64.480000	745.000000	0.000000	154.000000	66.000000	-5.000000	-28.000000
1.800000	62.800000	64.200000	748.000000	0.000000	154.000000	66.000000	0.000000	-28.000000
1.810000	62.800000	63.930000	757.000000	0.000000	154.000000	66.000000	0.000000	-27.000000
1.820000	62.870000	63.660000	751.000000	0.000000	154.000000	66.000000	7.000000	-27.000000
1.830000	62.870000	63.510000	759.000000	0.000000	154.000000	66.000000	0.000000	-15.000000
1.840000	63.090000	63.370000	760.000000	0.000000	154.000000	66.000000	22.000000	-14.000000
1.850000	63.260000	63.240000	762.000000	0.000000	154.000000	66.000000	17.000000	-13.000000
1.860000	63.410000	63.160000	751.000000	0.000000	154.000000	66.000000	15.000000	-8.000000
1.870000	63.690000	63.160000	740.000000	0.000000	154.000000	66.000000	28.000000	0.000000
1.880000	63.960000	63.160000	730.000000	0.000000	154.000000	66.000000	27.000000	0.000000
1.890000	64.210000	63.210000	696.000000	0.000000	154.000000	66.000000	25.000000	5.000000
1.900000	64.530000	63.340000	638.000000	0.000000	154.000000	66.000000	32.000000	13.000000
1.910000	64.830000	63.490000	605.000000	0.000000	154.000000	66.000000	30.000000	15.000000
1.920000	65.100000	63.670000	580.000000	0.000000	154.000000	66.000000	27.000000	18.000000
1.930000	65.310000	63.860000	567.000000	0.000000	154.000000	66.000000	21.000000	19.000000
1.940000	65.480000	64.060000	564.000000	0.000000	156.000000	66.000000	17.000000	20.000000
1.950000	65.630000	64.310000	581.000000	0.000000	156.000000	66.000000	15.000000	25.000000
1.960000	65.740000	64.570000	595.000000	0.000000	156.000000	66.000000	11.000000	26.000000
1.970000	65.820000	64.770000	628.000000	0.000000	156.000000	66.000000	8.000000	20.000000
1.980000	65.870000	65.050000	649.000000	0.000000	156.000000	66.000000	5.000000	28.000000
1.990000	65.930000	65.390000	661.000000	0.000000	156.000000	66.000000	6.000000	34.000000
2.000000	65.930000	65.760000	667.000000	0.000000	156.000000	66.000000	0.000000	37.000000
2.010000	65.980000	66.110000	670.000000	0.000000	158.000000	67.000000	5.000000	35.000000
2.020000	65.980000	66.410000	664.000000	0.000000	158.000000	67.000000	0.000000	30.000000
2.030000	65.980000	66.670000	681.000000	0.000000	158.000000	67.000000	0.000000	26.000000
2.040000	65.980000	66.920000	697.000000	0.000000	158.000000	67.000000	0.000000	25.000000
2.050000	65.870000	67.100000	699.000000	0.000000	158.000000	67.000000	-11.000000	18.000000
2.060000	65.770000	67.280000	708.000000	0.000000	158.000000	67.000000	-10.000000	18.000000
2.070000	65.670000	67.430000	710.000000	0.000000	158.000000	67.000000	-10.000000	15.000000
2.080000	65.570000	67.550000	714.000000	0.000000	158.000000	67.000000	-10.000000	12.000000
2.090000	65.480000	67.610000	710.000000	0.000000	158.000000	67.000000	-9.000000	6.000000
2.100000	65.480000	67.610000	707.000000	0.000000	158.000000	67.000000	0.000000	0.000000
2.110000	65.430000	67.610000	702.000000	0.000000	159.000000	67.000000	-5.000000	0.000000
2.120000	65.430000	67.610000	699.000000	0.000000	156.000000	66.000000	0.000000	0.000000
2.130000	65.430000	67.560000	700.000000	0.000000	156.000000	66.000000	0.000000	-5.000000
2.140000	65.430000	67.420000	697.000000	0.000000	156.000000	66.000000	0.000000	-14.000000
2.150000	65.480000	67.200000	703.000000	0.000000	156.000000	66.000000	5.000000	-22.000000
2.160000	65.560000	66.870000	707.000000	0.000000	156.000000	66.000000	8.000000	-33.000000
2.170000	65.750000	66.550000	717.000000	0.000000	156.000000	66.000000	19.000000	-32.000000
2.180000	65.990000	66.250000	721.000000	0.000000	159.000000	67.000000	24.000000	-30.000000
2.190000	66.220000	65.970000	728.000000	0.000000	158.000000	67.000000	23.000000	-28.000000
2.200000	66.420000	65.720000	745.000000	0.000000	158.000000	67.000000	20.000000	-25.000000
2.210000	66.690000	65.480000	770.000000	0.000000	158.000000	67.000000	27.000000	-24.000000
