t	x	y	pressure	penup	azimuth	inclination	v_x	v_y
0.000000	53.150000	66.410000	89.000000	1.000000	138.000000	55.000000	0.000000	0.000000
0.010000	52.750000	66.150000	428.000000	0.000000	136.000000	56.000000	-40.000000	-26.000000
0.020000	52.490000	66.090000	559.000000	0.000000	136.000000	56.000000	-26.000000	-6.000000
0.030000	52.330000	66.090000	694.000000	0.000000	135.000000	57.000000	-16.000000	0.000000
0.040000	52.210000	66.090000	784.000000	0.000000	135.000000	57.000000	-12.000000	0.000000
0.050000	52.210000	66.090000	829.000000	0.000000	135.000000	57.000000	0.000000	0.000000
0.060000	52.210000	66.090000	884.000000	0.000000	136.000000	57.000000	0.000000	0.000000
0.070000	52.540000	66.090000	940.000000	0.000000	136.000000	57.000000	33.000000	0.000000
0.080000	52.990000	66.140000	974.000000	0.000000	136.000000	57.000000	45.000000	5.000000
0.090000	53.470000	66.220000	1021.000000	0.000000	136.000000	57.000000	48.000000	8.000000
0.100000	53.970000	66.330000	1023.000000	0.000000	136.000000	57.000000	50.000000	11.000000
0.110000	54.500000	66.230000	1023.000000	0.000000	136.000000	57.000000	53.000000	-10.000000
0.120000	55.030000	66.230000	1023.000000	0.000000	136.000000	57.000000	53.000000	0.000000
0.130000	55.370000	66.380000	1023.000000	0.000000	136.000000	57.000000	34.000000	15.000000
0.140000	55.590000	66.430000	1023.000000	0.000000	136.000000	57.000000	22.000000	5.000000
0.150000	55.590000	66.430000	1023.000000	0.000000	136.000000	57.000000	0.000000	0.000000
0.160000	55.590000	66.430000	1023.000000	0.000000	136.000000	57.000000	0.000000	0.000000
0.170000	55.590000	66.430000	933.000000	0.000000	136.000000	57.000000	0.000000	0.000000
0.180000	55.500000	66.430000	638.000000	0.000000	136.000000	57.000000	-9.000000	0.000000
0.190000	55.500000	66.430000	0.000000	1.000000	136.000000	57.000000	0.000000	0.000000
0.200000	55.060000	66.350000	0.000000	0.000000	136.000000	57.000000	-44.000000	-8.000000
0.210000	54.870000	66.270000	0.000000	0.000000	136.000000	57.000000	-19.000000	-8.000000
0.220000	54.670000	66.270000	0.000000	0.000000	136.000000	57.000000	-20.000000	0.000000
0.230000	54.460000	66.270000	0.000000	0.000000	136.000000	57.000000	-21.000000	0.000000
0.240000	54.320000	66.270000	0.000000	0.000000	138.000000	57.000000	-14.000000	0.000000
0.250000	54.270000	66.400000	0.000000	0.000000	138.000000	57.000000	-5.000000	13.000000
0.260000	54.270000	66.550000	0.000000	0.000000	139.000000	56.000000	0.000000	15.000000
0.270000	54.270000	66.700000	0.000000	0.000000	139.000000	56.000000	0.000000	15.000000
0.280000	54.210000	66.840000	0.000000	0.000000	140.000000	55.000000	-6.000000	14.000000
0.290000	54.100000	66.970000	0.000000	0.000000	140.000000	55.000000	-11.000000	13.000000
0.300000	54.050000	67.100000	0.000000	0.000000	140.000000	55.000000	-5.000000	13.000000
0.310000	54.050000	67.220000	0.000000	0.000000	141.000000	55.000000	0.000000	12.000000
0.320000	54.050000	67.340000	0.000000	0.000000	140.000000	55.000000	0.000000	12.000000
0.330000	54.050000	67.470000	0.000000	0.000000	140.000000	55.000000	0.000000	13.000000
0.340000	54.140000	67.600000	0.000000	0.000000	140.000000	55.000000	9.000000	13.000000
0.350000	54.200000	67.730000	0.000000	0.000000	139.000000	56.000000	6.000000	13.000000
0.360000	54.200000	67.730000	68.000000	1.000000	139.000000	56.000000	0.000000	0.000000
0.370000	54.200000	67.730000	195.000000	0.000000	139.000000	56.000000	0.000000	0.000000
0.380000	54.280000	68.050000	327.000000	0.000000	139.000000	56.000000	8.000000	32.000000
0.390000	54.280000	68.050000	456.000000	0.000000	140.000000	56.000000	0.000000	0.000000
0.400000	54.280000	68.100000	551.000000	0.000000	140.000000	56.000000	0.000000	5.000000
0.410000	54.280000	68.100000	643.000000	0.000000	140.000000	56.000000	0.000000	0.000000
0.420000	54.280000	68.100000	730.000000	0.000000	140.000000	56.000000	0.000000	0.000000
0.430000	54.280000	68.100000	771.000000	0.000000	140.000000	56.000000	0.000000	0.000000
0.440000	54.280000	68.100000	796.000000	0.000000	140.000000	56.000000	0.000000	0.000000
0.450000	54.280000	68.100000	824.000000	0.000000	140.000000	56.000000	0.000000	0.000000
0.460000	54.280000	68.100000	824.000000	0.000000	140.000000	56.000000	0.000000	0.000000
0.470000	54.280000	68.100000	836.000000	0.000000	141.000000	56.000000	0.000000	0.000000
0.480000	54.280000	68.100000	861.000000	0.000000	141.000000	56.000000	0.000000	0.000000
0.490000	54.280000	68.040000	866.000000	0.000000	141.000000	56.000000	0.000000	-6.000000
0.500000	54.280000	67.980000	878.000000	0.000000	141.000000	56.000000	0.000000	-6.000000
0.510000	54.280000	67.930000	896.000000	0.000000	141.000000	56.000000	0.000000	-5.000000
0.520000	54.330000	67.930000	900.000000	0.000000	141.000000	56.000000	5.000000	0.000000
0.530000	54.330000	67.780000	927.000000	0.000000	141.000000	56.000000	0.000000	-15.000000
0.540000	54.260000	67.610000	951.000000	0.000000	140.000000	56.000000	-7.000000	-17.000000
0.550000	54.180000	67.340000	955.000000	0.000000	140.000000	56.000000	-8.000000	-27.000000
0.560000	54.040000	67.020000	965.000000	0.000000	140.000000	56.000000	-14.000000	-32.000000
0.570000	53.860000	66.660000	979.000000	0.000000	138.000000	57.000000	-18.000000	-36.000000
0.580000	53.700000	66.260000	986.000000	0.000000	138.000000	57.000000	-16.000000	-40.000000
0.590000	53.490000	65.830000	991.000000	0.000000	138.000000	57.000000	-21.000000	-43.000000
0.600000	53.240000	65.420000	977.000000	0.000000	138.000000	57.000000	-25.000000	-41.000000
0.610000	53.020000	64.970000	979.000000	0.000000	138.000000	57.000000	-22.000000	-45.000000
0.620000	52.740000	64.470000	979.000000	0.000000	138.000000	57.000000	-28.000000	-50.000000
0.630000	52.420000	63.850000	982.000000	0.000000	138.000000	57.000000	-32.000000	-62.000000
0.640000	52.420000	63.420000	981.000000	0.000000	136.000000	56.000000	0.000000	-43.000000
0.650000	52.340000	63.100000	994.000000	0.000000	136.000000	56.000000	-8.000000	-32.000000
0.660000	52.240000	62.900000	992.000000	0.000000	136.000000	56.000000	-10.000000	-20.000000
0.670000	52.380000	62.740000	982.000000	0.000000	136.000000	56.000000	14.000000	-16.000000
0.680000	52.530000	62.620000	989.000000	0.000000	136.000000	55.000000	15.000000	-12.000000
0.690000	52.690000	62.550000	992.000000	0.000000	136.000000	55.000000	16.000000	-7.000000
0.700000	53.080000	62.640000	977.000000	0.000000	136.000000	55.000000	39.000000	9.000000
0.710000	53.560000	62.850000	979.000000	0.000000	136.000000	55.000000	48.000000	21.000000
0.720000	54.100000	63.160000	982.000000	0.000000	138.000000	55.000000	54.000000	31.000000
0.730000	54.660000	63.510000	987.000000	0.000000	138.000000	55.000000	56.000000	35.000000
0.740000	55.190000	63.880000	993.000000	0.000000	138.000000	55.000000	53.000000	37.000000
0.750000	55.680000	64.170000	996.000000	0.000000	138.000000	55.000000	49.000000	29.000000
0.760000	56.160000	64.420000	1005.000000	0.000000	139.000000	56.000000	48.000000	25.000000
0.770000	56.390000	64.680000	1009.000000	0.000000	139.000000	56.000000	23.000000	26.000000
0.780000	56.520000	64.960000	1023.000000	0.000000	138.000000	57.000000	13.000000	28.000000
0.790000	56.590000	65.120000	1023.000000	0.000000	139.000000	57.000000	7.000000	16.000000
0.800000	56.590000	65.250000	1023.000000	0.000000	139.000000	57.000000	0.000000	13.000000
0.810000	56.450000	65.330000	1023.000000	0.000000	139.000000	57.000000	-14.000000	8.000000
0.820000	56.300000	65.410000	1023.000000	0.000000	139.000000	57.000000	-15.000000	8.000000
0.830000	55.850000	65.510000	1023.000000	0.000000	139.000000	57.000000	-45.000000	10.000000
0.840000	55.250000	65.420000	1023.000000	0.000000	139.000000	57.000000	-60.000000	-9.000000
0.850000	54.540000	65.210000	1023.000000	0.000000	139.000000	57.000000	-71.000000	-21.000000
0.860000	53.940000	65.110000	1023.000000	0.000000	139.000000	57.000000	-60.000000	-10.000000
0.870000	53.150000	64.970000	1023.000000	0.000000	139.000000	57.000000	-79.000000	-14.000000
0.880000	52.230000	64.760000	1023.000000	0.000000	139.000000	57.000000	-92.000000	-21.000000
0.890000	51.300000	64.480000	1023.000000	0.000000	138.000000	57.000000	-93.000000	-28.000000
0.900000	50.410000	64.150000	1023.000000	0.000000	138.000000	57.000000	-89.000000	-33.000000
0.910000	49.720000	63.640000	1023.000000	0.000000	138.000000	57.000000	-69.000000	-51.000000
0.920000	49.130000	63.110000	1023.000000	0.000000	136.000000	56.000000	-59.000000	-53.000000
0.930000	48.760000	62.770000	1023.000000	0.000000	138.000000	55.000000	-37.000000	-34.000000
0.940000	48.630000	62.570000	1023.000000	0.000000	138.000000	55.000000	-13.000000	-20.000000
0.950000	48.630000	62.350000	1023.000000	0.000000	138.000000	55.000000	0.000000	-22.000000
0.960000	48.850000	62.190000	1023.000000	0.000000	136.000000	55.000000	22.000000	-16.000000
0.970000	49.450000	62.080000	1023.000000	0.000000	136.000000	55.000000	60.000000	-11.000000
0.980000	50.320000	62.200000	1023.000000	0.000000	136.000000	55.000000	87.000000	12.000000
0.990000	52.010000	62.450000	1023.000000	0.000000	136.000000	54.000000	169.000000	25.000000
1.000000	54.260000	62.800000	1023.000000	0.000000	136.000000	54.000000	225.000000	35.000000
1.010000	56.890000	63.220000	1023.000000	0.000000	137.000000	54.000000	263.000000	42.000000
1.020000	59.520000	63.590000	1023.000000	0.000000	137.000000	54.000000	263.000000	37.000000
1.030000	62.040000	63.890000	1023.000000	0.000000	139.000000	55.000000	252.000000	30.000000
1.040000	64.040000	64.110000	1023.000000	0.000000	140.000000	55.000000	200.000000	22.000000
1.050000	65.720000	64.210000	1023.000000	0.000000	140.000000	55.000000	168.000000	10.000000
1.060000	66.660000	64.210000	1023.000000	0.000000	141.000000	56.000000	94.000000	0.000000
1.070000	67.060000	64.210000	1023.000000	0.000000	143.000000	56.000000	40.000000	0.000000
1.080000	67.110000	64.210000	1023.000000	0.000000	144.000000	57.000000	5.000000	0.000000
1.090000	67.110000	64.210000	1023.000000	0.000000	144.000000	57.000000	0.000000	0.000000
1.100000	67.110000	64.210000	1023.000000	0.000000	146.000000	57.000000	0.000000	0.000000
1.110000	67.110000	64.210000	1023.000000	0.000000	146.000000	57.000000	0.000000	0.000000
1.120000	67.030000	64.160000	970.000000	0.000000	147.000000	58.000000	-8.000000	-5.000000
1.130000	66.940000	64.160000	517.000000	0.000000	147.000000	58.000000	-9.000000	0.000000
1.140000	66.940000	64.160000	0.000000	1.000000	147.000000	58.000000	0.000000	0.000000
1.150000	65.840000	63.760000	0.000000	0.000000	147.000000	58.000000	-110.000000	-40.000000
1.160000	64.970000	63.760000	0.000000	0.000000	147.000000	58.000000	-87.000000	0.000000
1.170000	64.230000	63.760000	0.000000	0.000000	146.000000	57.000000	-74.000000	0.000000
1.180000	63.940000	64.120000	0.000000	0.000000	146.000000	57.000000	-29.000000	36.000000
1.190000	63.940000	64.310000	0.000000	0.000000	145.000000	56.000000	0.000000	19.000000
1.200000	63.570000	64.420000	0.000000	0.000000	145.000000	56.000000	-37.000000	11.000000
1.210000	63.220000	64.510000	0.000000	0.000000	145.000000	55.000000	-35.000000	9.000000
1.220000	62.440000	64.580000	0.000000	0.000000	144.000000	54.000000	-78.000000	7.000000
1.230000	61.350000	64.580000	0.000000	0.000000	143.000000	53.000000	-109.000000	0.000000
1.240000	60.190000	64.510000	0.000000	0.000000	142.000000	53.000000	-116.000000	-7.000000
1.250000	58.960000	64.340000	0.000000	0.000000	142.000000	52.000000	-123.000000	-17.000000
1.260000	57.680000	64.340000	0.000000	0.000000	141.000000	51.000000	-128.000000	0.000000
1.270000	57.150000	64.280000	0.000000	0.000000	141.000000	51.000000	-53.000000	-6.000000
1.280000	56.620000	64.230000	0.000000	0.000000	140.000000	52.000000	-53.000000	-5.000000
1.290000	56.320000	64.070000	0.000000	0.000000	141.000000	52.000000	-30.000000	-16.000000
1.300000	56.170000	63.980000	0.000000	0.000000	141.000000	52.000000	-15.000000	-9.000000
1.310000	56.350000	64.060000	0.000000	0.000000	141.000000	53.000000	18.000000	8.000000
1.320000	56.590000	64.230000	0.000000	0.000000	142.000000	54.000000	24.000000	17.000000
1.330000	56.880000	64.290000	0.000000	0.000000	143.000000	55.000000	29.000000	6.000000
1.340000	57.000000	64.370000	0.000000	0.000000	144.000000	56.000000	12.000000	8.000000
1.350000	57.000000	64.370000	0.000000	0.000000	144.000000	57.000000	0.000000	0.000000
1.360000	57.000000	64.370000	0.000000	0.000000	144.000000	57.000000	0.000000	0.000000
1.370000	57.220000	64.660000	0.000000	0.000000	146.000000	57.000000	22.000000	29.000000
1.380000	57.330000	64.660000	0.000000	0.000000	146.000000	57.000000	11.000000	0.000000
1.390000	57.520000	64.830000	0.000000	0.000000	146.000000	57.000000	19.000000	17.000000
1.400000	57.750000	65.040000	0.000000	0.000000	146.000000	57.000000	23.000000	21.000000
1.410000	57.890000	65.170000	0.000000	0.000000	146.000000	57.000000	14.000000	13.000000
1.420000	57.890000	65.250000	0.000000	0.000000	146.000000	57.000000	0.000000	8.000000
1.430000	57.890000	65.250000	0.000000	0.000000	144.000000	57.000000	0.000000	0.000000
1.440000	57.790000	65.190000	0.000000	0.000000	144.000000	57.000000	-10.000000	-6.000000
1.450000	57.660000	65.190000	0.000000	0.000000	144.000000	57.000000	-13.000000	0.000000
1.460000	57.490000	65.190000	0.000000	0.000000	143.000000	56.000000	-17.000000	0.000000
1.470000	57.400000	65.190000	0.000000	0.000000	143.000000	56.000000	-9.000000	0.000000
1.480000	57.340000	65.280000	0.000000	0.000000	144.000000	57.000000	-6.000000	9.000000
1.490000	57.340000	65.360000	0.000000	0.000000	144.000000	57.000000	0.000000	8.000000
1.500000	57.430000	65.430000	0.000000	0.000000	144.000000	57.000000	9.000000	7.000000
1.510000	57.490000	65.550000	0.000000	0.000000	144.000000	58.000000	6.000000	12.000000
1.520000	57.660000	65.700000	0.000000	0.000000	144.000000	58.000000	17.000000	15.000000
1.530000	57.830000	65.890000	0.000000	0.000000	144.000000	58.000000	17.000000	19.000000
1.540000	57.830000	65.890000	422.000000	1.000000	144.000000	58.000000	0.000000	0.000000
1.550000	58.010000	66.440000	536.000000	0.000000	143.000000	59.000000	18.000000	55.000000
1.560000	57.830000	66.660000	687.000000	0.000000	143.000000	59.000000	-18.000000	22.000000
1.570000	57.890000	66.710000	748.000000	0.000000	143.000000	59.000000	6.000000	5.000000
1.580000	57.890000	66.710000	776.000000	0.000000	142.000000	59.000000	0.000000	0.000000
1.590000	57.890000	66.660000	805.000000	0.000000	141.000000	59.000000	0.000000	-5.000000
1.600000	57.890000	66.380000	824.000000	0.000000	141.000000	59.000000	0.000000	-28.000000
1.610000	57.890000	65.980000	824.000000	0.000000	141.000000	59.000000	0.000000	-40.000000
1.620000	57.890000	65.320000	833.000000	0.000000	139.000000	58.000000	0.000000	-66.000000
1.630000	57.800000	64.610000	834.000000	0.000000	139.000000	58.000000	-9.000000	-71.000000
1.640000	57.800000	64.100000	837.000000	0.000000	139.000000	58.000000	0.000000	-51.000000
1.650000	57.800000	63.750000	846.000000	0.000000	139.000000	58.000000	0.000000	-35.000000
1.660000	57.870000	63.690000	857.000000	0.000000	139.000000	58.000000	7.000000	-6.000000
1.670000	57.870000	63.690000	890.000000	0.000000	140.000000	58.000000	0.000000	0.000000
1.680000	57.870000	63.760000	912.000000	0.000000	140.000000	58.000000	0.000000	7.000000
1.690000	57.870000	63.980000	918.000000	0.000000	139.000000	57.000000	0.000000	22.000000
1.700000	57.870000	64.380000	918.000000	0.000000	139.000000	57.000000	0.000000	40.000000
1.710000	57.920000	64.890000	912.000000	0.000000	139.000000	57.000000	5.000000	51.000000
1.720000	57.920000	65.550000	914.000000	0.000000	139.000000	57.000000	0.000000	66.000000
1.730000	57.920000	66.050000	917.000000	0.000000	140.000000	58.000000	0.000000	50.000000
1.740000	57.920000	66.450000	914.000000	0.000000	139.000000	58.000000	0.000000	40.000000
1.750000	57.870000	66.450000	903.000000	0.000000	139.000000	58.000000	-5.000000	0.000000
1.760000	57.870000	66.350000	902.000000	0.000000	139.000000	58.000000	0.000000	-10.000000
1.770000	57.940000	66.090000	897.000000	0.000000	139.000000	58.000000	7.000000	-26.000000
1.780000	57.990000	65.710000	903.000000	0.000000	139.000000	58.000000	5.000000	-38.000000
1.790000	58.090000	65.560000	894.000000	0.000000	139.000000	58.000000	10.000000	-15.000000
1.800000	58.230000	65.560000	893.000000	0.000000	141.000000	59.000000	14.000000	0.000000
1.810000	58.360000	65.560000	905.000000	0.000000	141.000000	59.000000	13.000000	0.000000
1.820000	58.490000	65.560000	906.000000	0.000000	141.000000	59.000000	13.000000	0.000000
1.830000	58.780000	65.780000	912.000000	0.000000	142.000000	59.000000	29.000000	22.000000
1.840000	59.170000	66.140000	915.000000	0.000000	142.000000	59.000000	39.000000	36.000000
1.850000	59.350000	66.350000	918.000000	0.000000	142.000000	59.000000	18.000000	21.000000
1.860000	59.440000	66.590000	942.000000	0.000000	144.000000	60.000000	9.000000	24.000000
1.870000	59.440000	66.840000	944.000000	0.000000	144.000000	60.000000	0.000000	25.000000
1.880000	59.440000	66.840000	949.000000	0.000000	145.000000	60.000000	0.000000	0.000000
1.890000	59.440000	66.840000	946.000000	0.000000	145.000000	60.000000	0.000000	0.000000
1.900000	59.390000	66.660000	952.000000	0.000000	147.000000	61.000000	-5.000000	-18.000000
1.910000	59.330000	66.310000	952.000000	0.000000	147.000000	61.000000	-6.000000	-35.000000
1.920000	59.180000	65.820000	953.000000	0.000000	147.000000	61.000000	-15.000000	-49.000000
1.930000	59.070000	65.400000	956.000000	0.000000	147.000000	61.000000	-11.000000	-42.000000
1.940000	59.070000	65.080000	949.000000	0.000000	147.000000	61.000000	0.000000	-32.000000
1.950000	59.070000	64.820000	950.000000	0.000000	147.000000	61.000000	0.000000	-26.000000
1.960000	59.070000	64.490000	942.000000	0.000000	145.000000	60.000000	0.000000	-33.000000
1.970000	59.070000	64.330000	870.000000	0.000000	145.000000	60.000000	0.000000	-16.000000
1.980000	59.150000	64.280000	754.000000	0.000000	145.000000	60.000000	8.000000	-5.000000
1.990000	59.210000	64.280000	532.000000	0.000000	146.000000	60.000000	6.000000	0.000000
2.000000	59.270000	64.280000	61.000000	0.000000	146.000000	60.000000	6.000000	0.000000
2.010000	59.270000	64.280000	0.000000	1.000000	146.000000	60.000000	0.000000	0.000000
2.020000	59.550000	64.370000	0.000000	0.000000	146.000000	60.000000	28.000000	9.000000
2.030000	59.660000	64.370000	0.000000	0.000000	146.000000	60.000000	11.000000	0.000000
2.040000	59.750000	64.370000	0.000000	0.000000	146.000000	60.000000	9.000000	0.000000
2.050000	60.000000	64.370000	0.000000	0.000000	146.000000	60.000000	25.000000	0.000000
2.060000	60.240000	64.370000	0.000000	0.000000	146.000000	58.000000	24.000000	0.000000
2.070000	60.480000	64.370000	0.000000	0.000000	146.000000	58.000000	24.000000	0.000000
2.080000	60.480000	64.370000	291.000000	1.000000	146.000000	58.000000	0.000000	0.000000
2.090000	60.760000	64.500000	372.000000	0.000000	144.000000	58.000000	28.000000	13.000000
2.100000	60.650000	64.670000	509.000000	0.000000	144.000000	58.000000	-11.000000	17.000000
2.110000	60.710000	64.810000	616.000000	0.000000	143.000000	59.000000	6.000000	14.000000
2.120000	60.890000	65.080000	685.000000	0.000000	143.000000	59.000000	18.000000	27.000000
2.130000	61.150000	65.440000	745.000000	0.000000	145.000000	59.000000	26.000000	36.000000
2.140000	61.210000	65.660000	817.000000	0.000000	145.000000	59.000000	6.000000	22.000000
2.150000	61.210000	65.860000	864.000000	0.000000	145.000000	59.000000	0.000000	20.000000
2.160000	61.090000	65.980000	878.000000	0.000000	144.000000	60.000000	-12.000000	12.000000
2.170000	60.910000	65.980000	882.000000	0.000000	144.000000	60.000000	-18.000000	0.000000
2.180000	60.660000	65.980000	873.000000	0.000000	145.000000	60.000000	-25.000000	0.000000
2.190000	60.370000	65.730000	858.000000	0.000000	145.000000	60.000000	-29.000000	-25.000000
2.200000	60.090000	65.350000	854.000000	0.000000	145.000000	60.000000	-28.000000	-38.000000
2.210000	59.980000	65.020000	842.000000	0.000000	145.000000	60.000000	-11.000000	-33.000000
2.220000	59.980000	64.820000	834.000000	0.000000	145.000000	60.000000	0.000000	-20.000000
