t	x	y	pressure	penup	azimuth	inclination	v_x	v_y
0.000000	58.020000	68.000000	46.000000	1.000000	141.000000	53.000000	0.000000	0.000000
0.010000	58.300000	67.910000	15.000000	0.000000	141.000000	53.000000	28.000000	-9.000000
0.020000	58.370000	68.030000	6.000000	1.000000	139.000000	54.000000	0.000000	0.000000
0.030000	58.480000	68.140000	24.000000	1.000000	139.000000	54.000000	0.000000	0.000000
0.040000	58.640000	68.360000	93.000000	0.000000	139.000000	54.000000	16.000000	22.000000
0.050000	58.740000	68.570000	149.000000	0.000000	139.000000	54.000000	10.000000	21.000000
0.060000	58.810000	68.750000	183.000000	0.000000	139.000000	54.000000	7.000000	18.000000
0.070000	58.890000	68.900000	214.000000	0.000000	139.000000	54.000000	8.000000	15.000000
0.080000	58.970000	69.110000	267.000000	0.000000	140.000000	54.000000	8.000000	21.000000
0.090000	59.090000	69.370000	306.000000	0.000000	140.000000	54.000000	12.000000	26.000000
0.100000	59.220000	69.610000	332.000000	0.000000	141.000000	53.000000	13.000000	24.000000
0.110000	59.350000	69.870000	361.000000	0.000000	142.000000	54.000000	13.000000	26.000000
0.120000	59.490000	70.150000	371.000000	0.000000	142.000000	54.000000	14.000000	28.000000
0.130000	59.640000	70.400000	389.000000	0.000000	143.000000	53.000000	15.000000	25.000000
0.140000	59.730000	70.610000	418.000000	0.000000	145.000000	54.000000	9.000000	21.000000
0.150000	59.730000	70.730000	444.000000	0.000000	146.000000	53.000000	0.000000	12.000000
0.160000	59.780000	70.730000	450.000000	0.000000	147.000000	53.000000	5.000000	0.000000
0.170000	59.780000	70.730000	465.000000	0.000000	147.000000	53.000000	0.000000	0.000000
0.180000	59.670000	70.290000	491.000000	0.000000	148.000000	53.000000	-11.000000	-44.000000
0.190000	59.340000	69.580000	520.000000	0.000000	147.000000	53.000000	-33.000000	-71.000000
0.200000	58.790000	68.110000	546.000000	0.000000	147.000000	53.000000	-55.000000	-147.000000
0.210000	58.080000	66.210000	565.000000	0.000000	146.000000	54.000000	-71.000000	-190.000000
0.220000	57.090000	64.030000	595.000000	0.000000	145.000000	54.000000	-99.000000	-218.000000
0.230000	56.230000	61.800000	636.000000	0.000000	142.000000	54.000000	-86.000000	-223.000000
0.240000	55.450000	60.100000	644.000000	0.000000	140.000000	54.000000	-78.000000	-170.000000
0.250000	55.370000	58.760000	641.000000	0.000000	137.000000	54.000000	-8.000000	-134.000000
0.260000	55.740000	57.880000	641.000000	0.000000	135.000000	54.000000	37.000000	-88.000000
0.270000	56.410000	57.370000	630.000000	0.000000	134.000000	55.000000	67.000000	-51.000000
0.280000	57.330000	57.120000	627.000000	0.000000	131.000000	55.000000	92.000000	-25.000000
0.290000	58.330000	57.230000	619.000000	0.000000	131.000000	55.000000	100.000000	11.000000
0.300000	59.380000	57.610000	611.000000	0.000000	131.000000	56.000000	105.000000	38.000000
0.310000	60.170000	58.180000	617.000000	0.000000	131.000000	56.000000	79.000000	57.000000
0.320000	60.750000	58.930000	591.000000	0.000000	132.000000	57.000000	58.000000	75.000000
0.330000	61.190000	59.710000	574.000000	0.000000	134.000000	57.000000	44.000000	78.000000
0.340000	61.190000	60.510000	517.000000	0.000000	134.000000	57.000000	0.000000	80.000000
0.350000	60.630000	61.250000	519.000000	0.000000	136.000000	57.000000	-56.000000	74.000000
0.360000	59.670000	61.760000	536.000000	0.000000	136.000000	57.000000	-96.000000	51.000000
0.370000	58.290000	62.120000	567.000000	0.000000	138.000000	57.000000	-138.000000	36.000000
0.380000	56.580000	62.120000	616.000000	0.000000	138.000000	57.000000	-171.000000	0.000000
0.390000	54.660000	61.820000	664.000000	0.000000	138.000000	55.000000	-192.000000	-30.000000
0.400000	52.690000	61.230000	707.000000	0.000000	136.000000	55.000000	-197.000000	-59.000000
0.410000	50.790000	60.480000	770.000000	0.000000	136.000000	55.000000	-190.000000	-75.000000
0.420000	48.940000	59.900000	793.000000	0.000000	136.000000	54.000000	-185.000000	-58.000000
0.430000	48.210000	59.430000	767.000000	0.000000	135.000000	53.000000	-73.000000	-47.000000
0.440000	48.140000	59.220000	748.000000	0.000000	133.000000	53.000000	-7.000000	-21.000000
0.450000	48.500000	58.980000	742.000000	0.000000	131.000000	52.000000	36.000000	-24.000000
0.460000	49.650000	58.700000	730.000000	0.000000	131.000000	52.000000	115.000000	-28.000000
0.470000	51.850000	58.850000	737.000000	0.000000	131.000000	52.000000	220.000000	15.000000
0.480000	54.750000	59.280000	734.000000	0.000000	131.000000	52.000000	290.000000	43.000000
0.490000	58.360000	60.010000	734.000000	0.000000	131.000000	52.000000	361.000000	73.000000
0.500000	61.820000	60.830000	731.000000	0.000000	133.000000	53.000000	346.000000	82.000000
0.510000	65.190000	61.720000	728.000000	0.000000	134.000000	54.000000	337.000000	89.000000
0.520000	68.300000	62.510000	696.000000	0.000000	136.000000	55.000000	311.000000	79.000000
0.530000	70.670000	63.080000	638.000000	0.000000	138.000000	55.000000	237.000000	57.000000
0.540000	72.540000	63.500000	516.000000	0.000000	141.000000	56.000000	187.000000	42.000000
0.550000	73.630000	63.690000	281.000000	0.000000	143.000000	56.000000	109.000000	19.000000
0.560000	73.630000	63.690000	0.000000	1.000000	143.000000	56.000000	0.000000	0.000000
0.570000	73.430000	63.480000	0.000000	0.000000	143.000000	56.000000	-20.000000	-21.000000
0.580000	72.480000	63.260000	0.000000	0.000000	143.000000	56.000000	-95.000000	-22.000000
0.590000	71.520000	63.210000	0.000000	0.000000	143.000000	56.000000	-96.000000	-5.000000
0.600000	70.550000	63.280000	0.000000	0.000000	143.000000	56.000000	-97.000000	7.000000
0.610000	69.780000	63.480000	0.000000	0.000000	143.000000	56.000000	-77.000000	20.000000
0.620000	68.830000	63.740000	0.000000	0.000000	143.000000	56.000000	-95.000000	26.000000
0.630000	67.690000	64.050000	0.000000	0.000000	141.000000	56.000000	-114.000000	31.000000
0.640000	66.480000	63.810000	0.000000	0.000000	141.000000	56.000000	-121.000000	-24.000000
0.650000	65.320000	64.010000	0.000000	0.000000	143.000000	55.000000	-116.000000	20.000000
0.660000	64.180000	64.510000	0.000000	0.000000	141.000000	55.000000	-114.000000	50.000000
0.670000	63.060000	64.510000	0.000000	0.000000	142.000000	54.000000	-112.000000	0.000000
0.680000	62.020000	64.510000	0.000000	0.000000	141.000000	53.000000	-104.000000	0.000000
0.690000	61.050000	64.420000	0.000000	0.000000	140.000000	53.000000	-97.000000	-9.000000
0.700000	60.410000	64.290000	0.000000	0.000000	140.000000	52.000000	-64.000000	-13.000000
0.710000	59.970000	64.150000	0.000000	0.000000	140.000000	52.000000	-44.000000	-14.000000
0.720000	59.670000	64.050000	0.000000	0.000000	139.000000	52.000000	-30.000000	-10.000000
0.730000	59.430000	63.950000	0.000000	0.000000	137.000000	52.000000	-24.000000	-10.000000
0.740000	59.210000	63.880000	0.000000	0.000000	139.000000	52.000000	-22.000000	-7.000000
0.750000	59.030000	63.880000	0.000000	0.000000	137.000000	53.000000	-18.000000	0.000000
0.760000	58.940000	63.880000	0.000000	0.000000	139.000000	54.000000	-9.000000	0.000000
0.770000	58.940000	63.880000	0.000000	0.000000	139.000000	54.000000	0.000000	0.000000
0.780000	58.940000	63.880000	0.000000	0.000000	140.000000	54.000000	0.000000	0.000000
0.790000	59.010000	63.880000	0.000000	0.000000	141.000000	55.000000	7.000000	0.000000
0.800000	59.010000	63.880000	98.000000	1.000000	140.000000	55.000000	0.000000	0.000000
0.810000	59.140000	64.150000	173.000000	0.000000	140.000000	55.000000	13.000000	27.000000
0.820000	58.960000	64.380000	239.000000	0.000000	140.000000	55.000000	-18.000000	23.000000
0.830000	58.960000	64.560000	314.000000	0.000000	140.000000	55.000000	0.000000	18.000000
0.840000	58.960000	64.720000	422.000000	0.000000	140.000000	55.000000	0.000000	16.000000
0.850000	58.960000	64.830000	497.000000	0.000000	139.000000	56.000000	0.000000	11.000000
0.860000	58.960000	64.910000	543.000000	0.000000	140.000000	56.000000	0.000000	8.000000
0.870000	58.960000	65.000000	591.000000	0.000000	140.000000	56.000000	0.000000	9.000000
0.880000	58.960000	65.000000	620.000000	0.000000	140.000000	56.000000	0.000000	0.000000
0.890000	58.960000	65.050000	653.000000	0.000000	140.000000	56.000000	0.000000	5.000000
0.900000	59.020000	65.050000	675.000000	0.000000	140.000000	56.000000	6.000000	0.000000
0.910000	59.020000	65.110000	693.000000	0.000000	140.000000	56.000000	0.000000	6.000000
0.920000	59.100000	65.110000	694.000000	0.000000	140.000000	56.000000	8.000000	0.000000
0.930000	59.100000	65.110000	719.000000	0.000000	140.000000	56.000000	0.000000	0.000000
0.940000	59.100000	65.110000	728.000000	0.000000	140.000000	56.000000	0.000000	0.000000
0.950000	59.100000	65.110000	755.000000	0.000000	140.000000	56.000000	0.000000	0.000000
0.960000	59.100000	65.110000	759.000000	0.000000	142.000000	57.000000	0.000000	0.000000
0.970000	59.100000	65.110000	779.000000	0.000000	142.000000	57.000000	0.000000	0.000000
0.980000	59.100000	65.110000	785.000000	0.000000	142.000000	57.000000	0.000000	0.000000
0.990000	59.100000	65.110000	787.000000	0.000000	142.000000	57.000000	0.000000	0.000000
1.000000	59.100000	65.110000	785.000000	0.000000	142.000000	57.000000	0.000000	0.000000
1.010000	59.010000	65.040000	787.000000	0.000000	143.000000	56.000000	-9.000000	-7.000000
1.020000	58.940000	64.750000	794.000000	0.000000	143.000000	56.000000	-7.000000	-29.000000
1.030000	58.830000	64.300000	793.000000	0.000000	143.000000	56.000000	-11.000000	-45.000000
1.040000	58.630000	63.760000	785.000000	0.000000	143.000000	56.000000	-20.000000	-54.000000
1.050000	58.380000	63.120000	797.000000	0.000000	143.000000	56.000000	-25.000000	-64.000000
1.060000	58.030000	62.420000	811.000000	0.000000	141.000000	56.000000	-35.000000	-70.000000
1.070000	57.730000	61.880000	824.000000	0.000000	143.000000	55.000000	-30.000000	-54.000000
1.080000	57.500000	61.500000	819.000000	0.000000	141.000000	55.000000	-23.000000	-38.000000
1.090000	57.390000	61.230000	824.000000	0.000000	141.000000	55.000000	-11.000000	-27.000000
1.100000	57.390000	61.160000	836.000000	0.000000	140.000000	54.000000	0.000000	-7.000000
1.110000	57.390000	61.160000	860.000000	0.000000	140.000000	54.000000	0.000000	0.000000
1.120000	57.390000	61.220000	860.000000	0.000000	139.000000	54.000000	0.000000	6.000000
1.130000	57.500000	61.370000	869.000000	0.000000	139.000000	54.000000	11.000000	15.000000
1.140000	57.650000	61.770000	872.000000	0.000000	139.000000	54.000000	15.000000	40.000000
1.150000	57.910000	62.350000	878.000000	0.000000	139.000000	54.000000	26.000000	58.000000
1.160000	58.230000	62.890000	878.000000	0.000000	139.000000	54.000000	32.000000	54.000000
1.170000	58.460000	63.420000	879.000000	0.000000	139.000000	54.000000	23.000000	53.000000
1.180000	58.620000	63.930000	879.000000	0.000000	139.000000	54.000000	16.000000	51.000000
1.190000	58.910000	64.420000	882.000000	0.000000	139.000000	54.000000	29.000000	49.000000
1.200000	59.130000	64.910000	884.000000	0.000000	140.000000	54.000000	22.000000	49.000000
1.210000	59.270000	65.110000	890.000000	0.000000	140.000000	54.000000	14.000000	20.000000
1.220000	59.380000	65.270000	891.000000	0.000000	140.000000	55.000000	11.000000	16.000000
1.230000	59.490000	65.340000	894.000000	0.000000	141.000000	56.000000	11.000000	7.000000
1.240000	59.490000	65.340000	896.000000	0.000000	143.000000	56.000000	0.000000	0.000000
1.250000	59.490000	65.340000	896.000000	0.000000	144.000000	57.000000	0.000000	0.000000
1.260000	59.490000	65.290000	887.000000	0.000000	144.000000	57.000000	0.000000	-5.000000
1.270000	59.440000	65.220000	882.000000	0.000000	146.000000	57.000000	-5.000000	-7.000000
1.280000	59.440000	64.940000	869.000000	0.000000	146.000000	57.000000	0.000000	-28.000000
1.290000	59.320000	64.520000	861.000000	0.000000	146.000000	57.000000	-12.000000	-42.000000
1.300000	59.250000	64.010000	867.000000	0.000000	146.000000	57.000000	-7.000000	-51.000000
1.310000	59.250000	63.520000	863.000000	0.000000	146.000000	57.000000	0.000000	-49.000000
1.320000	59.250000	63.120000	836.000000	0.000000	146.000000	57.000000	0.000000	-40.000000
1.330000	59.340000	62.780000	817.000000	0.000000	147.000000	56.000000	9.000000	-34.000000
1.340000	59.460000	62.590000	827.000000	0.000000	145.000000	56.000000	12.000000	-19.000000
1.350000	59.600000	62.480000	812.000000	0.000000	145.000000	56.000000	14.000000	-11.000000
1.360000	59.770000	62.430000	809.000000	0.000000	146.000000	55.000000	17.000000	-5.000000
1.370000	59.970000	62.430000	812.000000	0.000000	146.000000	55.000000	20.000000	0.000000
1.380000	60.190000	62.600000	821.000000	0.000000	146.000000	55.000000	22.000000	17.000000
1.390000	60.360000	62.780000	826.000000	0.000000	147.000000	55.000000	17.000000	18.000000
1.400000	60.490000	63.040000	827.000000	0.000000	148.000000	56.000000	13.000000	26.000000
1.410000	60.680000	63.390000	818.000000	0.000000	148.000000	56.000000	19.000000	35.000000
1.420000	60.850000	63.790000	825.000000	0.000000	148.000000	56.000000	17.000000	40.000000
1.430000	60.980000	64.060000	830.000000	0.000000	148.000000	56.000000	13.000000	27.000000
1.440000	61.080000	64.200000	837.000000	0.000000	145.000000	56.000000	10.000000	14.000000
1.450000	61.080000	64.250000	843.000000	0.000000	145.000000	56.000000	0.000000	5.000000
1.460000	61.080000	64.250000	845.000000	0.000000	145.000000	56.000000	0.000000	0.000000
1.470000	61.080000	64.120000	854.000000	0.000000	145.000000	56.000000	0.000000	-13.000000
1.480000	60.990000	63.810000	863.000000	0.000000	145.000000	56.000000	-9.000000	-31.000000
1.490000	60.780000	63.380000	861.000000	0.000000	145.000000	56.000000	-21.000000	-43.000000
1.500000	60.490000	62.880000	863.000000	0.000000	145.000000	56.000000	-29.000000	-50.000000
1.510000	60.130000	62.310000	858.000000	0.000000	145.000000	56.000000	-36.000000	-57.000000
1.520000	59.980000	61.690000	836.000000	0.000000	145.000000	56.000000	-15.000000	-62.000000
1.530000	59.980000	61.320000	796.000000	0.000000	145.000000	56.000000	0.000000	-37.000000
1.540000	60.060000	60.990000	690.000000	0.000000	145.000000	56.000000	8.000000	-33.000000
1.550000	60.170000	60.690000	529.000000	0.000000	146.000000	55.000000	11.000000	-30.000000
1.560000	60.370000	60.440000	262.000000	0.000000	146.000000	55.000000	20.000000	-25.000000
1.570000	60.370000	60.440000	0.000000	1.000000	146.000000	55.000000	0.000000	0.000000
1.580000	61.130000	60.540000	0.000000	0.000000	146.000000	55.000000	76.000000	10.000000
1.590000	61.650000	60.910000	0.000000	0.000000	146.000000	55.000000	52.000000	37.000000
1.600000	62.130000	61.320000	0.000000	0.000000	145.000000	56.000000	48.000000	41.000000
1.610000	62.590000	61.750000	0.000000	0.000000	145.000000	56.000000	46.000000	43.000000
1.620000	62.590000	61.750000	210.000000	1.000000	144.000000	56.000000	0.000000	0.000000
1.630000	63.840000	62.390000	407.000000	0.000000	144.000000	56.000000	125.000000	64.000000
1.640000	63.840000	62.590000	478.000000	0.000000	144.000000	56.000000	0.000000	20.000000
1.650000	63.300000	62.740000	577.000000	0.000000	143.000000	55.000000	-54.000000	15.000000
1.660000	63.230000	62.890000	649.000000	0.000000	143.000000	55.000000	-7.000000	15.000000
1.670000	63.120000	63.030000	737.000000	0.000000	144.000000	54.000000	-11.000000	14.000000
1.680000	62.970000	63.180000	753.000000	0.000000	144.000000	54.000000	-15.000000	15.000000
1.690000	62.970000	63.180000	755.000000	0.000000	144.000000	54.000000	0.000000	0.000000
1.700000	62.620000	63.260000	737.000000	0.000000	144.000000	54.000000	-35.000000	8.000000
1.710000	62.350000	63.110000	731.000000	0.000000	144.000000	54.000000	-27.000000	-15.000000
1.720000	62.010000	62.840000	722.000000	0.000000	144.000000	54.000000	-34.000000	-27.000000
1.730000	61.680000	62.320000	719.000000	0.000000	144.000000	54.000000	-33.000000	-52.000000
1.740000	61.390000	61.840000	710.000000	0.000000	144.000000	54.000000	-29.000000	-48.000000
1.750000	61.300000	61.390000	702.000000	0.000000	142.000000	54.000000	-9.000000	-45.000000
1.760000	61.300000	61.150000	694.000000	0.000000	142.000000	54.000000	0.000000	-24.000000
1.770000	61.500000	61.000000	702.000000	0.000000	142.000000	54.000000	20.000000	-15.000000
1.780000	61.710000	60.910000	690.000000	0.000000	142.000000	54.000000	21.000000	-9.000000
1.790000	62.000000	60.960000	697.000000	0.000000	142.000000	54.000000	29.000000	5.000000
1.800000	62.330000	61.170000	716.000000	0.000000	142.000000	54.000000	33.000000	21.000000
1.810000	62.690000	61.500000	728.000000	0.000000	142.000000	54.000000	36.000000	33.000000
1.820000	63.060000	61.870000	725.000000	0.000000	142.000000	54.000000	37.000000	37.000000
1.830000	63.330000	62.270000	763.000000	0.000000	142.000000	54.000000	27.000000	40.000000
1.840000	63.520000	62.690000	784.000000	0.000000	142.000000	54.000000	19.000000	42.000000
1.850000	63.640000	62.950000	808.000000	0.000000	144.000000	54.000000	12.000000	26.000000
1.860000	63.640000	63.170000	830.000000	0.000000	144.000000	54.000000	0.000000	22.000000
1.870000	63.640000	63.170000	843.000000	0.000000	144.000000	54.000000	0.000000	0.000000
1.880000	63.640000	63.170000	840.000000	0.000000	144.000000	54.000000	0.000000	0.000000
1.890000	63.640000	63.100000	839.000000	0.000000	144.000000	54.000000	0.000000	-7.000000
1.900000	63.590000	62.900000	824.000000	0.000000	144.000000	54.000000	-5.000000	-20.000000
1.910000	63.590000	62.600000	800.000000	0.000000	144.000000	54.000000	0.000000	-30.000000
1.920000	63.510000	62.300000	737.000000	0.000000	144.000000	54.000000	-8.000000	-30.000000
1.930000	63.610000	62.000000	647.000000	0.000000	144.000000	54.000000	10.000000	-30.000000
1.940000	63.810000	61.760000	452.000000	0.000000	144.000000	54.000000	20.000000	-24.000000
1.950000	64.020000	61.560000	143.000000	0.000000	144.000000	54.000000	21.000000	-20.000000
1.960000	64.020000	61.560000	0.000000	1.000000	144.000000	54.000000	0.000000	0.000000
1.970000	64.550000	61.460000	0.000000	0.000000	143.000000	55.000000	53.000000	-10.000000
1.980000	64.900000	61.740000	0.000000	0.000000	143.000000	55.000000	35.000000	28.000000
1.990000	65.160000	62.100000	0.000000	0.000000	143.000000	55.000000	26.000000	36.000000
2.000000	65.330000	62.500000	0.000000	0.000000	143.000000	55.000000	17.000000	40.000000
2.010000	65.450000	62.920000	0.000000	0.000000	143.000000	55.000000	12.000000	42.000000
2.020000	65.450000	62.920000	366.000000	1.000000	143.000000	55.000000	0.000000	0.000000
2.030000	65.270000	63.260000	471.000000	0.000000	143.000000	55.000000	-18.000000	34.000000
2.040000	65.020000	63.360000	497.000000	0.000000	143.000000	55.000000	-25.000000	10.000000
2.050000	64.870000	63.360000	518.000000	0.000000	143.000000	55.000000	-15.000000	0.000000
2.060000	64.870000	63.410000	546.000000	0.000000	143.000000	55.000000	0.000000	5.000000
2.070000	64.870000	63.410000	566.000000	0.000000	143.000000	55.000000	0.000000	0.000000
2.080000	64.950000	63.350000	572.000000	0.000000	143.000000	55.000000	8.000000	-6.000000
2.090000	65.050000	63.270000	570.000000	0.000000	143.000000	55.000000	10.000000	-8.000000
2.100000	65.240000	63.170000	563.000000	0.000000	144.000000	56.000000	19.000000	-10.000000
2.110000	65.480000	63.070000	545.000000	0.000000	144.000000	56.000000	24.000000	-10.000000
2.120000	65.700000	63.070000	527.000000	0.000000	144.000000	56.000000	22.000000	0.000000
2.130000	65.910000	63.070000	504.000000	0.000000	144.000000	56.000000	21.000000	0.000000
2.140000	66.220000	63.190000	480.000000	0.000000	144.000000	56.000000	31.000000	12.000000
2.150000	66.500000	63.410000	467.000000	0.000000	144.000000	56.000000	28.000000	22.000000
2.160000	66.760000	63.690000	464.000000	0.000000	144.000000	56.000000	26.000000	28.000000
2.170000	66.950000	64.010000	467.000000	0.000000	144.000000	56.000000	19.000000	32.000000
2.180000	67.040000	64.300000	492.000000	0.000000	144.000000	56.000000	9.000000	29.000000
2.190000	67.040000	64.530000	557.000000	0.000000	143.000000	56.000000	0.000000	23.000000
2.200000	67.040000	64.590000	586.000000	0.000000	143.000000	56.000000	0.000000	6.000000
2.210000	66.870000	64.590000	620.000000	0.000000	143.000000	56.000000	-17.000000	0.000000
