t	x	y	pressure	penup	azimuth	inclination	v_x	v_y
0.000000	58.510000	52.010000	109.000000	1.000000	140.000000	54.000000	0.000000	0.000000
0.010000	58.460000	52.380000	142.000000	0.000000	140.000000	54.000000	-5.000000	37.000000
0.020000	58.460000	52.660000	156.000000	0.000000	140.000000	54.000000	0.000000	28.000000
0.030000	58.460000	52.920000	195.000000	0.000000	140.000000	54.000000	0.000000	26.000000
0.040000	58.560000	53.170000	256.000000	0.000000	140.000000	54.000000	10.000000	25.000000
0.050000	58.710000	53.420000	302.000000	0.000000	140.000000	54.000000	15.000000	25.000000
0.060000	58.870000	53.650000	353.000000	0.000000	140.000000	54.000000	16.000000	23.000000
0.070000	58.970000	53.810000	384.000000	0.000000	140.000000	54.000000	10.000000	16.000000
0.080000	59.040000	53.810000	394.000000	0.000000	140.000000	54.000000	7.000000	0.000000
0.090000	59.040000	53.810000	418.000000	0.000000	140.000000	54.000000	0.000000	0.000000
0.100000	59.040000	53.730000	460.000000	0.000000	140.000000	54.000000	0.000000	-8.000000
0.110000	58.940000	53.220000	541.000000	0.000000	140.000000	54.000000	-10.000000	-51.000000
0.120000	58.600000	52.420000	575.000000	0.000000	140.000000	54.000000	-34.000000	-80.000000
0.130000	57.890000	51.110000	644.000000	0.000000	139.000000	55.000000	-71.000000	-131.000000
0.140000	56.920000	49.280000	691.000000	0.000000	139.000000	55.000000	-97.000000	-183.000000
0.150000	55.940000	47.100000	714.000000	0.000000	136.000000	55.000000	-98.000000	-218.000000
0.160000	54.980000	45.050000	722.000000	0.000000	135.000000	54.000000	-96.000000	-205.000000
0.170000	54.480000	43.310000	728.000000	0.000000	134.000000	55.000000	-50.000000	-174.000000
0.180000	54.290000	41.780000	716.000000	0.000000	131.000000	55.000000	-19.000000	-153.000000
0.190000	54.630000	40.810000	700.000000	0.000000	129.000000	55.000000	34.000000	-97.000000
0.200000	55.350000	40.260000	681.000000	0.000000	127.000000	55.000000	72.000000	-55.000000
0.210000	56.310000	40.000000	659.000000	0.000000	127.000000	55.000000	96.000000	-26.000000
0.220000	57.420000	40.060000	645.000000	0.000000	126.000000	56.000000	111.000000	6.000000
0.230000	58.440000	40.500000	620.000000	0.000000	126.000000	56.000000	102.000000	44.000000
0.240000	59.410000	41.200000	602.000000	0.000000	126.000000	56.000000	97.000000	70.000000
0.250000	60.070000	42.060000	567.000000	0.000000	126.000000	56.000000	66.000000	86.000000
0.260000	60.210000	42.990000	512.000000	0.000000	126.000000	56.000000	14.000000	93.000000
0.270000	60.000000	43.960000	514.000000	0.000000	126.000000	56.000000	-21.000000	97.000000
0.280000	59.150000	44.720000	544.000000	0.000000	126.000000	56.000000	-85.000000	76.000000
0.290000	57.770000	45.010000	602.000000	0.000000	125.000000	56.000000	-138.000000	29.000000
0.300000	56.030000	45.010000	655.000000	0.000000	125.000000	56.000000	-174.000000	0.000000
0.310000	54.140000	44.590000	667.000000	0.000000	125.000000	56.000000	-189.000000	-42.000000
0.320000	52.020000	43.860000	717.000000	0.000000	124.000000	55.000000	-212.000000	-73.000000
0.330000	49.750000	42.900000	787.000000	0.000000	124.000000	55.000000	-227.000000	-96.000000
0.340000	47.980000	42.010000	832.000000	0.000000	124.000000	55.000000	-177.000000	-89.000000
0.350000	47.080000	41.570000	806.000000	0.000000	124.000000	55.000000	-90.000000	-44.000000
0.360000	46.750000	41.430000	793.000000	0.000000	123.000000	55.000000	-33.000000	-14.000000
0.370000	47.190000	41.380000	797.000000	0.000000	124.000000	54.000000	44.000000	-5.000000
0.380000	48.790000	41.650000	796.000000	0.000000	124.000000	54.000000	160.000000	27.000000
0.390000	51.150000	42.130000	797.000000	0.000000	125.000000	54.000000	236.000000	48.000000
0.400000	54.550000	42.740000	790.000000	0.000000	125.000000	54.000000	340.000000	61.000000
0.410000	57.960000	43.410000	797.000000	0.000000	126.000000	54.000000	341.000000	67.000000
0.420000	61.370000	44.110000	770.000000	0.000000	127.000000	55.000000	341.000000	70.000000
0.430000	64.670000	44.590000	755.000000	0.000000	129.000000	56.000000	330.000000	48.000000
0.440000	67.370000	45.050000	728.000000	0.000000	130.000000	56.000000	270.000000	46.000000
0.450000	69.680000	45.470000	627.000000	0.000000	130.000000	58.000000	231.000000	42.000000
0.460000	71.100000	45.820000	417.000000	0.000000	131.000000	58.000000	142.000000	35.000000
0.470000	71.780000	45.990000	42.000000	0.000000	132.000000	59.000000	68.000000	17.000000
0.480000	71.780000	45.990000	0.000000	1.000000	132.000000	60.000000	0.000000	0.000000
0.490000	71.340000	46.000000	0.000000	0.000000	134.000000	61.000000	-44.000000	1.000000
0.500000	70.360000	46.000000	0.000000	0.000000	134.000000	61.000000	-98.000000	0.000000
0.510000	69.150000	46.000000	0.000000	0.000000	135.000000	62.000000	-121.000000	0.000000
0.520000	67.930000	45.950000	0.000000	0.000000	135.000000	62.000000	-122.000000	-5.000000
0.530000	66.450000	45.950000	0.000000	0.000000	136.000000	61.000000	-148.000000	0.000000
0.540000	64.800000	45.790000	0.000000	0.000000	136.000000	61.000000	-165.000000	-16.000000
0.550000	63.050000	45.550000	0.000000	0.000000	138.000000	60.000000	-175.000000	-24.000000
0.560000	61.320000	45.680000	0.000000	0.000000	138.000000	58.000000	-173.000000	13.000000
0.570000	59.910000	45.750000	0.000000	0.000000	138.000000	57.000000	-141.000000	7.000000
0.580000	58.700000	45.750000	0.000000	0.000000	136.000000	55.000000	-121.000000	0.000000
0.590000	57.740000	45.950000	0.000000	0.000000	134.000000	54.000000	-96.000000	20.000000
0.600000	57.210000	46.150000	0.000000	0.000000	134.000000	52.000000	-53.000000	20.000000
0.610000	56.970000	46.360000	0.000000	0.000000	134.000000	52.000000	-24.000000	21.000000
0.620000	56.870000	46.510000	0.000000	0.000000	131.000000	52.000000	-10.000000	15.000000
0.630000	56.800000	46.720000	0.000000	0.000000	133.000000	53.000000	-7.000000	21.000000
0.640000	56.850000	47.020000	0.000000	0.000000	131.000000	54.000000	5.000000	30.000000
0.650000	56.960000	47.280000	0.000000	0.000000	131.000000	55.000000	11.000000	26.000000
0.660000	57.170000	47.540000	0.000000	0.000000	131.000000	56.000000	21.000000	26.000000
0.670000	57.420000	47.790000	0.000000	0.000000	132.000000	57.000000	25.000000	25.000000
0.680000	57.770000	47.990000	0.000000	0.000000	132.000000	57.000000	35.000000	20.000000
0.690000	57.770000	47.990000	226.000000	1.000000	134.000000	57.000000	0.000000	0.000000
0.700000	58.140000	48.250000	279.000000	0.000000	134.000000	57.000000	37.000000	26.000000
0.710000	58.140000	48.390000	301.000000	0.000000	132.000000	57.000000	0.000000	14.000000
0.720000	58.140000	48.390000	343.000000	0.000000	132.000000	57.000000	0.000000	0.000000
0.730000	58.140000	48.490000	441.000000	0.000000	132.000000	57.000000	0.000000	10.000000
0.740000	58.140000	48.570000	515.000000	0.000000	132.000000	57.000000	0.000000	8.000000
0.750000	58.070000	48.570000	556.000000	0.000000	134.000000	56.000000	-7.000000	0.000000
0.760000	58.070000	48.630000	586.000000	0.000000	132.000000	55.000000	0.000000	6.000000
0.770000	58.070000	48.630000	603.000000	0.000000	132.000000	55.000000	0.000000	0.000000
0.780000	58.070000	48.630000	619.000000	0.000000	132.000000	55.000000	0.000000	0.000000
0.790000	58.070000	48.630000	636.000000	0.000000	132.000000	55.000000	0.000000	0.000000
0.800000	58.070000	48.630000	647.000000	0.000000	134.000000	55.000000	0.000000	0.000000
0.810000	58.070000	48.580000	636.000000	0.000000	134.000000	55.000000	0.000000	-5.000000
0.820000	58.070000	48.530000	641.000000	0.000000	134.000000	55.000000	0.000000	-5.000000
0.830000	58.070000	48.440000	649.000000	0.000000	134.000000	55.000000	0.000000	-9.000000
0.840000	58.070000	48.260000	655.000000	0.000000	134.000000	55.000000	0.000000	-18.000000
0.850000	57.960000	48.020000	673.000000	0.000000	134.000000	55.000000	-11.000000	-24.000000
0.860000	57.810000	47.500000	690.000000	0.000000	134.000000	55.000000	-15.000000	-52.000000
0.870000	57.530000	46.800000	721.000000	0.000000	132.000000	55.000000	-28.000000	-70.000000
0.880000	57.190000	46.100000	761.000000	0.000000	132.000000	55.000000	-34.000000	-70.000000
0.890000	56.810000	45.360000	788.000000	0.000000	131.000000	56.000000	-38.000000	-74.000000
0.900000	56.560000	44.840000	817.000000	0.000000	131.000000	56.000000	-25.000000	-52.000000
0.910000	56.340000	44.480000	833.000000	0.000000	130.000000	56.000000	-22.000000	-36.000000
0.920000	56.290000	44.330000	843.000000	0.000000	130.000000	56.000000	-5.000000	-15.000000
0.930000	56.340000	44.330000	860.000000	0.000000	128.000000	57.000000	5.000000	0.000000
0.940000	56.340000	44.330000	864.000000	0.000000	128.000000	57.000000	0.000000	0.000000
0.950000	56.390000	44.400000	866.000000	0.000000	128.000000	57.000000	5.000000	7.000000
0.960000	56.390000	44.700000	870.000000	0.000000	128.000000	57.000000	0.000000	30.000000
0.970000	56.700000	45.150000	870.000000	0.000000	130.000000	58.000000	31.000000	45.000000
0.980000	57.120000	45.910000	857.000000	0.000000	130.000000	58.000000	42.000000	76.000000
0.990000	57.490000	46.670000	858.000000	0.000000	130.000000	58.000000	37.000000	76.000000
1.000000	57.870000	47.430000	857.000000	0.000000	130.000000	58.000000	38.000000	76.000000
1.010000	58.120000	47.960000	863.000000	0.000000	131.000000	57.000000	25.000000	53.000000
1.020000	58.280000	48.480000	875.000000	0.000000	131.000000	57.000000	16.000000	52.000000
1.030000	58.490000	48.790000	888.000000	0.000000	132.000000	57.000000	21.000000	31.000000
1.040000	58.570000	48.980000	909.000000	0.000000	134.000000	56.000000	8.000000	19.000000
1.050000	58.570000	48.980000	921.000000	0.000000	134.000000	56.000000	0.000000	0.000000
1.060000	58.570000	48.980000	914.000000	0.000000	135.000000	55.000000	0.000000	0.000000
1.070000	58.570000	48.910000	911.000000	0.000000	136.000000	55.000000	0.000000	-7.000000
1.080000	58.520000	48.810000	894.000000	0.000000	136.000000	55.000000	-5.000000	-10.000000
1.090000	58.520000	48.680000	899.000000	0.000000	136.000000	55.000000	0.000000	-13.000000
1.100000	58.520000	48.250000	876.000000	0.000000	137.000000	54.000000	0.000000	-43.000000
1.110000	58.590000	47.610000	843.000000	0.000000	139.000000	55.000000	7.000000	-64.000000
1.120000	58.740000	47.120000	824.000000	0.000000	138.000000	55.000000	15.000000	-49.000000
1.130000	58.960000	46.760000	793.000000	0.000000	138.000000	55.000000	22.000000	-36.000000
1.140000	59.210000	46.490000	777.000000	0.000000	138.000000	55.000000	25.000000	-27.000000
1.150000	59.470000	46.330000	760.000000	0.000000	135.000000	55.000000	26.000000	-16.000000
1.160000	59.740000	46.330000	755.000000	0.000000	135.000000	55.000000	27.000000	0.000000
1.170000	60.010000	46.330000	746.000000	0.000000	134.000000	56.000000	27.000000	0.000000
1.180000	60.320000	46.580000	740.000000	0.000000	134.000000	56.000000	31.000000	25.000000
1.190000	60.640000	46.990000	746.000000	0.000000	134.000000	56.000000	32.000000	41.000000
1.200000	60.950000	47.520000	748.000000	0.000000	135.000000	57.000000	31.000000	53.000000
1.210000	61.170000	47.930000	757.000000	0.000000	135.000000	57.000000	22.000000	41.000000
1.220000	61.330000	48.300000	763.000000	0.000000	135.000000	57.000000	16.000000	37.000000
1.230000	61.330000	48.380000	779.000000	0.000000	135.000000	57.000000	0.000000	8.000000
1.240000	61.330000	48.300000	790.000000	0.000000	135.000000	57.000000	0.000000	-8.000000
1.250000	61.330000	48.170000	793.000000	0.000000	136.000000	56.000000	0.000000	-13.000000
1.260000	61.180000	47.770000	814.000000	0.000000	136.000000	56.000000	-15.000000	-40.000000
1.270000	60.920000	47.180000	837.000000	0.000000	136.000000	56.000000	-26.000000	-59.000000
1.280000	60.580000	46.380000	848.000000	0.000000	135.000000	57.000000	-34.000000	-80.000000
1.290000	60.270000	45.690000	848.000000	0.000000	135.000000	57.000000	-31.000000	-69.000000
1.300000	60.000000	45.080000	845.000000	0.000000	135.000000	57.000000	-27.000000	-61.000000
1.310000	59.940000	44.560000	805.000000	0.000000	134.000000	57.000000	-6.000000	-52.000000
1.320000	60.010000	44.170000	736.000000	0.000000	134.000000	57.000000	7.000000	-39.000000
1.330000	60.210000	43.860000	591.000000	0.000000	134.000000	57.000000	20.000000	-31.000000
1.340000	60.440000	43.340000	339.000000	0.000000	134.000000	57.000000	23.000000	-52.000000
1.350000	60.440000	43.340000	0.000000	1.000000	134.000000	57.000000	0.000000	0.000000
1.360000	61.760000	43.910000	0.000000	0.000000	134.000000	57.000000	132.000000	57.000000
1.370000	62.100000	44.340000	0.000000	0.000000	134.000000	57.000000	34.000000	43.000000
1.380000	62.570000	44.820000	0.000000	0.000000	134.000000	57.000000	47.000000	48.000000
1.390000	63.130000	45.340000	0.000000	0.000000	135.000000	58.000000	56.000000	52.000000
1.400000	63.580000	45.730000	0.000000	0.000000	135.000000	58.000000	45.000000	39.000000
1.410000	63.580000	45.730000	351.000000	1.000000	135.000000	58.000000	0.000000	0.000000
1.420000	64.110000	46.120000	492.000000	0.000000	135.000000	58.000000	53.000000	39.000000
1.430000	63.930000	46.280000	536.000000	0.000000	135.000000	58.000000	-18.000000	16.000000
1.440000	63.790000	46.430000	594.000000	0.000000	135.000000	58.000000	-14.000000	15.000000
1.450000	63.710000	46.560000	664.000000	0.000000	135.000000	58.000000	-8.000000	13.000000
1.460000	63.550000	46.680000	694.000000	0.000000	135.000000	58.000000	-16.000000	12.000000
1.470000	63.340000	46.760000	702.000000	0.000000	136.000000	58.000000	-21.000000	8.000000
1.480000	63.140000	46.840000	687.000000	0.000000	136.000000	58.000000	-20.000000	8.000000
1.490000	62.940000	46.730000	668.000000	0.000000	136.000000	58.000000	-20.000000	-11.000000
1.500000	62.720000	46.390000	644.000000	0.000000	136.000000	58.000000	-22.000000	-34.000000
1.510000	62.470000	45.910000	641.000000	0.000000	136.000000	58.000000	-25.000000	-48.000000
1.520000	62.220000	45.410000	633.000000	0.000000	136.000000	58.000000	-25.000000	-50.000000
1.530000	62.140000	45.040000	630.000000	0.000000	136.000000	58.000000	-8.000000	-37.000000
1.540000	62.190000	44.770000	627.000000	0.000000	136.000000	58.000000	5.000000	-27.000000
1.550000	62.330000	44.620000	636.000000	0.000000	134.000000	58.000000	14.000000	-15.000000
1.560000	62.610000	44.620000	637.000000	0.000000	134.000000	58.000000	28.000000	0.000000
1.570000	62.920000	44.620000	647.000000	0.000000	134.000000	58.000000	31.000000	0.000000
1.580000	63.300000	44.930000	661.000000	0.000000	134.000000	58.000000	38.000000	31.000000
1.590000	63.700000	45.320000	676.000000	0.000000	134.000000	58.000000	40.000000	39.000000
1.600000	64.090000	45.780000	690.000000	0.000000	134.000000	58.000000	39.000000	46.000000
1.610000	64.370000	46.220000	722.000000	0.000000	135.000000	59.000000	28.000000	44.000000
1.620000	64.580000	46.500000	773.000000	0.000000	135.000000	59.000000	21.000000	28.000000
1.630000	64.680000	46.670000	806.000000	0.000000	135.000000	59.000000	10.000000	17.000000
1.640000	64.680000	46.670000	827.000000	0.000000	135.000000	59.000000	0.000000	0.000000
1.650000	64.680000	46.670000	832.000000	0.000000	136.000000	60.000000	0.000000	0.000000
1.660000	64.620000	46.560000	832.000000	0.000000	136.000000	60.000000	-6.000000	-11.000000
1.670000	64.530000	46.380000	818.000000	0.000000	136.000000	60.000000	-9.000000	-18.000000
1.680000	64.390000	46.090000	796.000000	0.000000	138.000000	59.000000	-14.000000	-29.000000
1.690000	64.440000	45.760000	725.000000	0.000000	138.000000	59.000000	5.000000	-33.000000
1.700000	64.520000	45.440000	643.000000	0.000000	136.000000	60.000000	8.000000	-32.000000
1.710000	64.780000	45.190000	490.000000	0.000000	136.000000	60.000000	26.000000	-25.000000
1.720000	65.140000	45.080000	242.000000	0.000000	136.000000	60.000000	36.000000	-11.000000
1.730000	65.140000	45.080000	0.000000	1.000000	136.000000	60.000000	0.000000	0.000000
1.740000	66.080000	45.190000	0.000000	0.000000	136.000000	60.000000	94.000000	11.000000
1.750000	66.520000	45.440000	0.000000	0.000000	136.000000	60.000000	44.000000	25.000000
1.760000	66.790000	45.780000	0.000000	0.000000	135.000000	60.000000	27.000000	34.000000
1.770000	66.960000	46.130000	0.000000	0.000000	135.000000	60.000000	17.000000	35.000000
1.780000	66.960000	46.130000	216.000000	1.000000	135.000000	60.000000	0.000000	0.000000
1.790000	66.720000	46.670000	336.000000	0.000000	135.000000	60.000000	-24.000000	54.000000
1.800000	66.400000	46.870000	428.000000	0.000000	136.000000	60.000000	-32.000000	20.000000
1.810000	66.110000	46.990000	486.000000	0.000000	136.000000	60.000000	-29.000000	12.000000
1.820000	65.970000	47.040000	536.000000	0.000000	136.000000	60.000000	-14.000000	5.000000
1.830000	65.970000	47.040000	553.000000	0.000000	136.000000	60.000000	0.000000	0.000000
1.840000	65.970000	47.040000	543.000000	0.000000	136.000000	60.000000	0.000000	0.000000
1.850000	65.970000	47.040000	533.000000	0.000000	139.000000	60.000000	0.000000	0.000000
1.860000	66.090000	46.860000	519.000000	0.000000	139.000000	60.000000	12.000000	-18.000000
1.870000	66.270000	46.740000	477.000000	0.000000	139.000000	60.000000	18.000000	-12.000000
1.880000	66.520000	46.660000	448.000000	0.000000	141.000000	59.000000	25.000000	-8.000000
1.890000	66.790000	46.660000	407.000000	0.000000	141.000000	59.000000	27.000000	0.000000
1.900000	67.080000	46.660000	384.000000	0.000000	141.000000	59.000000	29.000000	0.000000
1.910000	67.370000	46.800000	354.000000	0.000000	141.000000	59.000000	29.000000	14.000000
1.920000	67.590000	47.050000	351.000000	0.000000	141.000000	59.000000	22.000000	25.000000
1.930000	67.760000	47.330000	354.000000	0.000000	141.000000	59.000000	17.000000	28.000000
1.940000	67.760000	47.620000	376.000000	0.000000	141.000000	59.000000	0.000000	29.000000
1.950000	67.760000	47.840000	420.000000	0.000000	141.000000	59.000000	0.000000	22.000000
1.960000	67.710000	48.040000	470.000000	0.000000	141.000000	59.000000	-5.000000	20.000000
1.970000	67.550000	48.040000	519.000000	0.000000	141.000000	59.000000	-16.000000	0.000000
1.980000	67.320000	48.040000	563.000000	0.000000	141.000000	59.000000	-23.000000	0.000000
1.990000	67.030000	47.760000	639.000000	0.000000	141.000000	59.000000	-29.000000	-28.000000
2.000000	66.730000	47.440000	681.000000	0.000000	142.000000	58.000000	-30.000000	-32.000000
2.010000	66.430000	47.050000	727.000000	0.000000	142.000000	58.000000	-30.000000	-39.000000
2.020000	66.130000	46.640000	745.000000	0.000000	141.000000	59.000000	-30.000000	-41.000000
2.030000	66.080000	46.370000	746.000000	0.000000	141.000000	59.000000	-5.000000	-27.000000
2.040000	66.170000	46.090000	748.000000	0.000000	141.000000	59.000000	9.000000	-28.000000
2.050000	66.310000	45.910000	743.000000	0.000000	139.000000	60.000000	14.000000	-18.000000
2.060000	66.630000	45.790000	740.000000	0.000000	139.000000	60.000000	32.000000	-12.000000
2.070000	67.060000	45.790000	737.000000	0.000000	138.000000	60.000000	43.000000	0.000000
2.080000	67.660000	46.060000	733.000000	0.000000	138.000000	60.000000	60.000000	27.000000
2.090000	68.250000	46.480000	739.000000	0.000000	138.000000	60.000000	59.000000	42.000000
2.100000	68.820000	46.840000	746.000000	0.000000	138.000000	60.000000	57.000000	36.000000
2.110000	69.190000	47.150000	749.000000	0.000000	138.000000	60.000000	37.000000	31.000000
2.120000	69.450000	47.400000	755.000000	0.000000	139.000000	61.000000	26.000000	25.000000
2.130000	69.540000	47.580000	757.000000	0.000000	139.000000	61.000000	9.000000	18.000000
2.140000	69.540000	47.580000	765.000000	0.000000	139.000000	61.000000	0.000000	0.000000
2.150000	69.540000	47.580000	765.000000	0.000000	141.000000	60.000000	0.000000	0.000000
2.160000	69.540000	47.420000	777.000000	0.000000	141.000000	60.000000	0.000000	-16.000000
2.170000	69.540000	47.020000	777.000000	0.000000	141.000000	60.000000	0.000000	-40.000000
2.180000	69.450000	46.440000	771.000000	0.000000	139.000000	60.000000	-9.000000	-58.000000
2.190000	69.300000	45.900000	768.000000	0.000000	138.000000	60.000000	-15.000000	-54.000000
2.200000	69.070000	45.430000	759.000000	0.000000	136.000000	60.000000	-23.000000	-47.000000
