t	x	y	pressure	penup	azimuth	inclination	v_x	v_y
0.000000	88.830000	28.060000	61.000000	1.000000	131.000000	58.000000	0.000000	0.000000
0.010000	88.830000	28.060000	94.000000	0.000000	131.000000	58.000000	0.000000	0.000000
0.020000	88.830000	28.060000	141.000000	0.000000	131.000000	58.000000	0.000000	0.000000
0.030000	88.830000	28.060000	193.000000	0.000000	131.000000	58.000000	0.000000	0.000000
0.040000	88.830000	28.060000	296.000000	0.000000	131.000000	58.000000	0.000000	0.000000
0.050000	88.830000	28.060000	371.000000	0.000000	131.000000	58.000000	0.000000	0.000000
0.060000	88.520000	27.930000	422.000000	0.000000	131.000000	58.000000	-31.000000	-13.000000
0.070000	88.460000	27.930000	477.000000	0.000000	131.000000	58.000000	-6.000000	0.000000
0.080000	88.460000	27.930000	522.000000	0.000000	131.000000	58.000000	0.000000	0.000000
0.090000	88.460000	27.930000	537.000000	0.000000	131.000000	58.000000	0.000000	0.000000
0.100000	88.460000	27.930000	565.000000	0.000000	131.000000	58.000000	0.000000	0.000000
0.110000	88.460000	27.930000	586.000000	0.000000	131.000000	58.000000	0.000000	0.000000
0.120000	88.460000	27.930000	606.000000	0.000000	131.000000	58.000000	0.000000	0.000000
0.130000	88.410000	27.850000	617.000000	0.000000	131.000000	58.000000	-5.000000	-8.000000
0.140000	88.350000	27.700000	638.000000	0.000000	129.000000	59.000000	-6.000000	-15.000000
0.150000	88.240000	27.500000	653.000000	0.000000	129.000000	59.000000	-11.000000	-20.000000
0.160000	88.170000	27.310000	667.000000	0.000000	129.000000	59.000000	-7.000000	-19.000000
0.170000	88.170000	27.240000	687.000000	0.000000	129.000000	59.000000	0.000000	-7.000000
0.180000	88.170000	27.240000	700.000000	0.000000	128.000000	59.000000	0.000000	0.000000
0.190000	88.250000	27.240000	728.000000	0.000000	128.000000	59.000000	8.000000	0.000000
0.200000	88.330000	27.330000	753.000000	0.000000	128.000000	59.000000	8.000000	9.000000
0.210000	88.520000	27.400000	797.000000	0.000000	127.000000	59.000000	19.000000	7.000000
0.220000	88.810000	27.650000	814.000000	0.000000	127.000000	59.000000	29.000000	25.000000
0.230000	89.250000	28.060000	846.000000	0.000000	127.000000	59.000000	44.000000	41.000000
0.240000	89.790000	28.580000	861.000000	0.000000	127.000000	59.000000	54.000000	52.000000
0.250000	90.290000	29.210000	872.000000	0.000000	128.000000	58.000000	50.000000	63.000000
0.260000	90.800000	29.840000	899.000000	0.000000	128.000000	58.000000	51.000000	63.000000
0.270000	91.300000	30.520000	905.000000	0.000000	130.000000	58.000000	50.000000	68.000000
0.280000	91.700000	31.230000	921.000000	0.000000	130.000000	58.000000	40.000000	71.000000
0.290000	92.030000	31.820000	939.000000	0.000000	131.000000	57.000000	33.000000	59.000000
0.300000	92.150000	32.290000	948.000000	0.000000	131.000000	57.000000	12.000000	47.000000
0.310000	92.150000	32.670000	941.000000	0.000000	132.000000	57.000000	0.000000	38.000000
0.320000	92.150000	32.960000	988.000000	0.000000	132.000000	57.000000	0.000000	29.000000
0.330000	92.150000	33.040000	978.000000	0.000000	132.000000	57.000000	0.000000	8.000000
0.340000	92.150000	32.980000	991.000000	0.000000	132.000000	57.000000	0.000000	-6.000000
0.350000	92.150000	32.980000	985.000000	0.000000	132.000000	57.000000	0.000000	0.000000
0.360000	92.080000	32.670000	991.000000	0.000000	132.000000	57.000000	-7.000000	-31.000000
0.370000	92.000000	32.190000	995.000000	0.000000	132.000000	57.000000	-8.000000	-48.000000
0.380000	91.870000	31.430000	994.000000	0.000000	132.000000	57.000000	-13.000000	-76.000000
0.390000	91.710000	30.770000	977.000000	0.000000	132.000000	57.000000	-16.000000	-66.000000
0.400000	91.590000	30.190000	977.000000	0.000000	132.000000	57.000000	-12.000000	-58.000000
0.410000	91.650000	29.830000	977.000000	0.000000	132.000000	57.000000	6.000000	-36.000000
0.420000	91.800000	29.530000	997.000000	0.000000	132.000000	57.000000	15.000000	-30.000000
0.430000	91.970000	29.270000	992.000000	0.000000	132.000000	57.000000	17.000000	-26.000000
0.440000	92.210000	29.210000	994.000000	0.000000	132.000000	57.000000	24.000000	-6.000000
0.450000	92.530000	29.210000	977.000000	0.000000	132.000000	57.000000	32.000000	0.000000
0.460000	92.870000	29.320000	979.000000	0.000000	132.000000	57.000000	34.000000	11.000000
0.470000	93.220000	29.540000	984.000000	0.000000	132.000000	57.000000	35.000000	22.000000
0.480000	93.600000	29.880000	987.000000	0.000000	134.000000	57.000000	38.000000	34.000000
0.490000	93.990000	30.290000	988.000000	0.000000	134.000000	57.000000	39.000000	41.000000
0.500000	94.400000	30.790000	1002.000000	0.000000	134.000000	57.000000	41.000000	50.000000
0.510000	94.820000	31.350000	1014.000000	0.000000	134.000000	57.000000	42.000000	56.000000
0.520000	95.200000	31.960000	1020.000000	0.000000	134.000000	57.000000	38.000000	61.000000
0.530000	95.480000	32.490000	1020.000000	0.000000	134.000000	57.000000	28.000000	53.000000
0.540000	95.690000	32.970000	1023.000000	0.000000	134.000000	57.000000	21.000000	48.000000
0.550000	95.750000	33.180000	1023.000000	0.000000	134.000000	57.000000	6.000000	21.000000
0.560000	95.750000	33.230000	1023.000000	0.000000	132.000000	58.000000	0.000000	5.000000
0.570000	95.700000	33.230000	1023.000000	0.000000	132.000000	58.000000	-5.000000	0.000000
0.580000	95.600000	32.840000	1023.000000	0.000000	132.000000	58.000000	-10.000000	-39.000000
0.590000	95.290000	32.280000	1023.000000	0.000000	132.000000	58.000000	-31.000000	-56.000000
0.600000	94.830000	31.270000	1023.000000	0.000000	132.000000	58.000000	-46.000000	-101.000000
0.610000	94.430000	30.330000	1023.000000	0.000000	132.000000	58.000000	-40.000000	-94.000000
0.620000	94.180000	29.450000	1023.000000	0.000000	132.000000	58.000000	-25.000000	-88.000000
0.630000	94.030000	28.630000	1023.000000	0.000000	132.000000	58.000000	-15.000000	-82.000000
0.640000	93.960000	27.980000	1023.000000	0.000000	134.000000	58.000000	-7.000000	-65.000000
0.650000	94.110000	27.440000	1023.000000	0.000000	132.000000	59.000000	15.000000	-54.000000
0.660000	94.400000	27.210000	1023.000000	0.000000	132.000000	59.000000	29.000000	-23.000000
0.670000	94.770000	27.110000	1000.000000	0.000000	132.000000	59.000000	37.000000	-10.000000
0.680000	95.120000	27.110000	899.000000	0.000000	131.000000	60.000000	35.000000	0.000000
0.690000	95.450000	27.280000	647.000000	0.000000	131.000000	60.000000	33.000000	17.000000
0.700000	95.450000	27.280000	0.000000	1.000000	129.000000	60.000000	0.000000	0.000000
0.710000	95.940000	28.100000	0.000000	0.000000	129.000000	60.000000	49.000000	82.000000
0.720000	96.120000	28.720000	0.000000	0.000000	129.000000	60.000000	18.000000	62.000000
0.730000	96.180000	29.330000	0.000000	0.000000	129.000000	60.000000	6.000000	61.000000
0.740000	96.180000	29.700000	0.000000	0.000000	129.000000	60.000000	0.000000	37.000000
0.750000	96.180000	29.920000	0.000000	0.000000	129.000000	60.000000	0.000000	22.000000
0.760000	96.070000	29.920000	0.000000	0.000000	129.000000	60.000000	-11.000000	0.000000
0.770000	96.070000	29.840000	0.000000	0.000000	129.000000	60.000000	0.000000	-8.000000
0.780000	96.070000	29.750000	0.000000	0.000000	128.000000	59.000000	0.000000	-9.000000
0.790000	96.170000	29.700000	0.000000	0.000000	128.000000	59.000000	10.000000	-5.000000
0.800000	96.320000	29.700000	0.000000	0.000000	128.000000	59.000000	15.000000	0.000000
0.810000	96.480000	29.700000	0.000000	0.000000	127.000000	59.000000	16.000000	0.000000
0.820000	96.600000	29.700000	0.000000	0.000000	127.000000	59.000000	12.000000	0.000000
0.830000	96.680000	29.610000	0.000000	0.000000	127.000000	59.000000	8.000000	-9.000000
0.840000	96.740000	29.560000	0.000000	0.000000	127.000000	59.000000	6.000000	-5.000000
0.850000	96.740000	29.560000	0.000000	0.000000	127.000000	59.000000	0.000000	0.000000
0.860000	96.740000	29.560000	0.000000	0.000000	128.000000	59.000000	0.000000	0.000000
0.870000	96.800000	29.560000	0.000000	0.000000	128.000000	59.000000	6.000000	0.000000
0.880000	96.800000	29.560000	0.000000	0.000000	128.000000	59.000000	0.000000	0.000000
0.890000	96.800000	29.640000	0.000000	0.000000	128.000000	59.000000	0.000000	8.000000
0.900000	96.910000	29.730000	0.000000	0.000000	128.000000	59.000000	11.000000	9.000000
0.910000	97.010000	29.730000	0.000000	0.000000	128.000000	59.000000	10.000000	0.000000
0.920000	97.150000	29.780000	0.000000	0.000000	129.000000	60.000000	14.000000	5.000000
0.930000	97.280000	29.780000	0.000000	0.000000	131.000000	60.000000	13.000000	0.000000
0.940000	97.400000	29.780000	0.000000	0.000000	131.000000	60.000000	12.000000	0.000000
0.950000	97.520000	29.780000	0.000000	0.000000	131.000000	60.000000	12.000000	0.000000
0.960000	97.680000	29.780000	0.000000	0.000000	132.000000	60.000000	16.000000	0.000000
0.970000	97.840000	29.780000	0.000000	0.000000	132.000000	60.000000	16.000000	0.000000
0.980000	98.000000	29.780000	0.000000	0.000000	132.000000	60.000000	16.000000	0.000000
0.990000	98.160000	29.780000	0.000000	0.000000	132.000000	60.000000	16.000000	0.000000
1.000000	98.270000	29.780000	0.000000	0.000000	132.000000	60.000000	11.000000	0.000000
1.010000	98.340000	29.780000	0.000000	0.000000	132.000000	60.000000	7.000000	0.000000
1.020000	98.340000	29.710000	0.000000	0.000000	132.000000	60.000000	0.000000	-7.000000
1.030000	98.340000	29.620000	0.000000	0.000000	134.000000	61.000000	0.000000	-9.000000
1.040000	98.250000	29.520000	0.000000	0.000000	134.000000	61.000000	-9.000000	-10.000000
1.050000	98.250000	29.460000	0.000000	0.000000	134.000000	61.000000	0.000000	-6.000000
1.060000	98.250000	29.460000	0.000000	0.000000	134.000000	61.000000	0.000000	0.000000
1.070000	98.250000	29.460000	0.000000	0.000000	134.000000	61.000000	0.000000	0.000000
1.080000	98.300000	29.460000	0.000000	0.000000	134.000000	61.000000	5.000000	0.000000
1.090000	98.350000	29.510000	0.000000	0.000000	134.000000	61.000000	5.000000	5.000000
1.100000	98.350000	29.510000	0.000000	0.000000	134.000000	61.000000	0.000000	0.000000
1.110000	98.350000	29.510000	0.000000	0.000000	132.000000	60.000000	0.000000	0.000000
1.120000	98.350000	29.510000	0.000000	0.000000	132.000000	60.000000	0.000000	0.000000
1.130000	98.350000	29.510000	0.000000	0.000000	132.000000	60.000000	0.000000	0.000000
1.140000	98.350000	29.560000	0.000000	0.000000	134.000000	61.000000	0.000000	5.000000
1.150000	98.470000	29.650000	0.000000	0.000000	134.000000	61.000000	12.000000	9.000000
1.160000	98.590000	29.700000	0.000000	0.000000	134.000000	61.000000	12.000000	5.000000
1.170000	98.720000	29.760000	0.000000	0.000000	134.000000	61.000000	13.000000	6.000000
1.180000	98.870000	29.820000	0.000000	0.000000	134.000000	61.000000	15.000000	6.000000
1.190000	98.970000	29.820000	0.000000	0.000000	134.000000	61.000000	10.000000	0.000000
1.200000	99.030000	29.820000	0.000000	0.000000	134.000000	61.000000	6.000000	0.000000
1.210000	99.030000	29.820000	0.000000	0.000000	135.000000	62.000000	0.000000	0.000000
1.220000	99.030000	29.820000	0.000000	0.000000	135.000000	62.000000	0.000000	0.000000
1.230000	99.030000	29.820000	0.000000	0.000000	135.000000	62.000000	0.000000	0.000000
1.240000	99.030000	29.770000	0.000000	0.000000	135.000000	62.000000	0.000000	-5.000000
1.250000	99.030000	29.770000	0.000000	0.000000	135.000000	62.000000	0.000000	0.000000
1.260000	99.030000	29.770000	0.000000	0.000000	135.000000	62.000000	0.000000	0.000000
1.270000	99.140000	29.770000	0.000000	0.000000	135.000000	62.000000	11.000000	0.000000
1.280000	99.200000	29.770000	0.000000	0.000000	135.000000	62.000000	6.000000	0.000000
1.290000	99.250000	29.770000	0.000000	0.000000	135.000000	62.000000	5.000000	0.000000
1.300000	99.250000	29.770000	0.000000	0.000000	135.000000	62.000000	0.000000	0.000000
1.310000	99.250000	29.710000	0.000000	0.000000	137.000000	62.000000	0.000000	-6.000000
1.320000	99.200000	29.710000	0.000000	0.000000	137.000000	62.000000	-5.000000	0.000000
1.330000	99.200000	29.710000	0.000000	0.000000	137.000000	62.000000	0.000000	0.000000
1.340000	99.200000	29.710000	0.000000	0.000000	137.000000	62.000000	0.000000	0.000000
1.350000	99.300000	29.710000	0.000000	0.000000	137.000000	62.000000	10.000000	0.000000
1.360000	99.300000	29.710000	0.000000	0.000000	137.000000	62.000000	0.000000	0.000000
1.370000	99.300000	29.710000	0.000000	0.000000	137.000000	62.000000	0.000000	0.000000
1.380000	99.300000	29.710000	0.000000	0.000000	135.000000	62.000000	0.000000	0.000000
1.390000	99.370000	29.710000	0.000000	0.000000	135.000000	62.000000	7.000000	0.000000
1.400000	99.370000	29.710000	0.000000	0.000000	135.000000	62.000000	0.000000	0.000000
1.410000	99.260000	29.710000	0.000000	0.000000	135.000000	62.000000	-11.000000	0.000000
1.420000	99.210000	29.630000	0.000000	0.000000	134.000000	61.000000	-5.000000	-8.000000
1.430000	99.210000	29.630000	0.000000	0.000000	135.000000	62.000000	0.000000	0.000000
1.440000	99.160000	29.630000	0.000000	0.000000	135.000000	62.000000	-5.000000	0.000000
1.450000	99.160000	29.630000	0.000000	0.000000	135.000000	62.000000	0.000000	0.000000
1.460000	99.250000	29.630000	0.000000	0.000000	135.000000	62.000000	9.000000	0.000000
1.470000	99.250000	29.630000	0.000000	0.000000	135.000000	62.000000	0.000000	0.000000
1.480000	99.350000	29.630000	0.000000	0.000000	135.000000	62.000000	10.000000	0.000000
1.490000	99.420000	29.630000	0.000000	0.000000	135.000000	62.000000	7.000000	0.000000
1.500000	99.490000	29.560000	0.000000	0.000000	135.000000	62.000000	7.000000	-7.000000
1.510000	99.560000	29.560000	0.000000	0.000000	135.000000	62.000000	7.000000	0.000000
1.520000	99.610000	29.470000	0.000000	0.000000	135.000000	62.000000	5.000000	-9.000000
1.530000	99.670000	29.470000	0.000000	0.000000	135.000000	62.000000	6.000000	0.000000
1.540000	99.670000	29.410000	0.000000	0.000000	134.000000	61.000000	0.000000	-6.000000
1.550000	99.760000	29.410000	0.000000	0.000000	134.000000	61.000000	9.000000	0.000000
1.560000	99.760000	29.410000	0.000000	0.000000	134.000000	61.000000	0.000000	0.000000
1.570000	99.880000	29.410000	0.000000	0.000000	134.000000	61.000000	12.000000	0.000000
1.580000	99.880000	29.410000	13.000000	0.000000	134.000000	61.000000	0.000000	0.000000
1.590000	99.880000	29.410000	58.000000	1.000000	134.000000	61.000000	0.000000	0.000000
1.600000	99.880000	29.410000	88.000000	0.000000	134.000000	61.000000	0.000000	0.000000
1.610000	99.880000	29.410000	142.000000	0.000000	134.000000	61.000000	0.000000	0.000000
1.620000	99.880000	29.410000	198.000000	0.000000	134.000000	61.000000	0.000000	0.000000
1.630000	99.880000	29.410000	270.000000	0.000000	134.000000	61.000000	0.000000	0.000000
1.640000	99.880000	29.410000	315.000000	0.000000	132.000000	60.000000	0.000000	0.000000
1.650000	100.100000	29.720000	359.000000	0.000000	132.000000	60.000000	22.000000	31.000000
1.660000	100.100000	29.720000	379.000000	0.000000	132.000000	60.000000	0.000000	0.000000
1.670000	100.150000	29.840000	420.000000	0.000000	131.000000	60.000000	5.000000	12.000000
1.680000	100.150000	29.950000	498.000000	0.000000	131.000000	60.000000	0.000000	11.000000
1.690000	100.150000	30.040000	581.000000	0.000000	131.000000	60.000000	0.000000	9.000000
1.700000	100.150000	30.130000	668.000000	0.000000	131.000000	60.000000	0.000000	9.000000
1.710000	100.150000	30.200000	722.000000	0.000000	131.000000	60.000000	0.000000	7.000000
1.720000	100.060000	30.280000	749.000000	0.000000	132.000000	59.000000	-9.000000	8.000000
1.730000	99.950000	30.340000	768.000000	0.000000	132.000000	59.000000	-11.000000	6.000000
1.740000	99.790000	30.340000	777.000000	0.000000	132.000000	59.000000	-16.000000	0.000000
1.750000	99.600000	30.340000	785.000000	0.000000	132.000000	59.000000	-19.000000	0.000000
1.760000	99.430000	30.270000	794.000000	0.000000	132.000000	59.000000	-17.000000	-7.000000
1.770000	99.250000	30.160000	800.000000	0.000000	132.000000	59.000000	-18.000000	-11.000000
1.780000	99.060000	29.980000	824.000000	0.000000	134.000000	60.000000	-19.000000	-18.000000
1.790000	98.870000	29.740000	836.000000	0.000000	134.000000	60.000000	-19.000000	-24.000000
1.800000	98.600000	29.430000	863.000000	0.000000	134.000000	60.000000	-27.000000	-31.000000
1.810000	98.280000	29.050000	893.000000	0.000000	135.000000	60.000000	-32.000000	-38.000000
1.820000	98.030000	28.680000	908.000000	0.000000	135.000000	60.000000	-25.000000	-37.000000
1.830000	97.830000	28.330000	903.000000	0.000000	134.000000	61.000000	-20.000000	-35.000000
1.840000	97.710000	28.030000	903.000000	0.000000	134.000000	61.000000	-12.000000	-30.000000
1.850000	97.710000	27.760000	906.000000	0.000000	134.000000	61.000000	0.000000	-27.000000
1.860000	97.710000	27.510000	897.000000	0.000000	132.000000	61.000000	0.000000	-25.000000
1.870000	97.870000	27.330000	893.000000	0.000000	132.000000	61.000000	16.000000	-18.000000
1.880000	98.160000	27.330000	894.000000	0.000000	132.000000	61.000000	29.000000	0.000000
1.890000	98.540000	27.490000	899.000000	0.000000	132.000000	61.000000	38.000000	16.000000
1.900000	98.940000	27.820000	899.000000	0.000000	132.000000	61.000000	40.000000	33.000000
1.910000	99.350000	28.280000	903.000000	0.000000	132.000000	61.000000	41.000000	46.000000
1.920000	99.680000	28.820000	915.000000	0.000000	132.000000	61.000000	33.000000	54.000000
1.930000	99.960000	29.230000	918.000000	0.000000	132.000000	61.000000	28.000000	41.000000
1.940000	100.100000	29.590000	951.000000	0.000000	132.000000	61.000000	14.000000	36.000000
1.950000	100.100000	29.680000	947.000000	0.000000	131.000000	61.000000	0.000000	9.000000
1.960000	100.100000	29.600000	959.000000	0.000000	131.000000	61.000000	0.000000	-8.000000
1.970000	100.020000	29.440000	965.000000	0.000000	132.000000	60.000000	-8.000000	-16.000000
1.980000	99.880000	28.950000	968.000000	0.000000	131.000000	60.000000	-14.000000	-49.000000
1.990000	99.660000	28.250000	967.000000	0.000000	131.000000	60.000000	-22.000000	-70.000000
2.000000	99.520000	27.670000	958.000000	0.000000	131.000000	60.000000	-14.000000	-58.000000
2.010000	99.520000	27.240000	952.000000	0.000000	128.000000	59.000000	0.000000	-43.000000
2.020000	99.670000	26.920000	948.000000	0.000000	128.000000	59.000000	15.000000	-32.000000
2.030000	99.870000	26.730000	905.000000	0.000000	126.000000	60.000000	20.000000	-19.000000
2.040000	100.070000	26.730000	829.000000	0.000000	125.000000	60.000000	20.000000	0.000000
2.050000	100.280000	26.790000	491.000000	0.000000	125.000000	60.000000	21.000000	6.000000
2.060000	100.280000	26.790000	0.000000	1.000000	124.000000	62.000000	0.000000	0.000000
2.070000	100.820000	27.420000	0.000000	0.000000	124.000000	62.000000	54.000000	63.000000
2.080000	101.020000	27.810000	0.000000	0.000000	123.000000	62.000000	20.000000	39.000000
2.090000	101.160000	28.200000	0.000000	0.000000	124.000000	63.000000	14.000000	39.000000
2.100000	101.260000	28.480000	0.000000	0.000000	124.000000	63.000000	10.000000	28.000000
2.110000	101.400000	28.690000	0.000000	0.000000	124.000000	63.000000	14.000000	21.000000
2.120000	101.620000	28.910000	0.000000	0.000000	126.000000	62.000000	22.000000	22.000000
2.130000	101.880000	29.140000	0.000000	0.000000	126.000000	62.000000	26.000000	23.000000
2.140000	102.200000	29.370000	0.000000	0.000000	126.000000	62.000000	32.000000	23.000000
2.150000	102.510000	29.550000	0.000000	0.000000	126.000000	62.000000	31.000000	18.000000
2.160000	102.710000	29.700000	0.000000	0.000000	126.000000	62.000000	20.000000	15.000000
2.170000	102.850000	29.800000	0.000000	0.000000	124.000000	62.000000	14.000000	10.000000
2.180000	102.940000	29.860000	0.000000	0.000000	124.000000	62.000000	9.000000	6.000000
2.190000	102.940000	29.860000	0.000000	0.000000	123.000000	61.000000	0.000000	0.000000
2.200000	102.940000	29.860000	0.000000	0.000000	126.000000	61.000000	0.000000	0.000000
2.210000	102.940000	29.860000	0.000000	0.000000	126.000000	61.000000	0.000000	0.000000
2.220000	102.940000	29.860000	0.000000	0.000000	126.000000	61.000000	0.000000	0.000000
2.230000	102.940000	29.860000	0.000000	0.000000	127.000000	62.000000	0.000000	0.000000
2.240000	102.940000	29.860000	0.000000	0.000000	129.000000	61.000000	0.000000	0.000000
