t	x	y	pressure	penup	azimuth	inclination	v_x	v_y
0.000000	17.510000	79.640000	60.000000	1.000000	127.000000	62.000000	0.000000	0.000000
0.010000	17.510000	79.640000	167.000000	0.000000	127.000000	62.000000	0.000000	0.000000
0.020000	17.510000	79.640000	287.000000	0.000000	129.000000	61.000000	0.000000	0.000000
0.030000	17.510000	79.640000	407.000000	0.000000	129.000000	61.000000	0.000000	0.000000
0.040000	17.510000	79.640000	489.000000	0.000000	129.000000	61.000000	0.000000	0.000000
0.050000	17.510000	79.640000	567.000000	0.000000	129.000000	61.000000	0.000000	0.000000
0.060000	17.510000	79.640000	642.000000	0.000000	129.000000	61.000000	0.000000	0.000000
0.070000	17.510000	79.640000	697.000000	0.000000	128.000000	61.000000	0.000000	0.000000
0.080000	17.510000	79.640000	743.000000	0.000000	128.000000	61.000000	0.000000	0.000000
0.090000	17.510000	79.640000	787.000000	0.000000	128.000000	61.000000	0.000000	0.000000
0.100000	17.510000	79.640000	843.000000	0.000000	129.000000	61.000000	0.000000	0.000000
0.110000	17.760000	79.530000	876.000000	0.000000	129.000000	61.000000	25.000000	-11.000000
0.120000	17.970000	79.530000	894.000000	0.000000	129.000000	61.000000	21.000000	0.000000
0.130000	18.180000	79.820000	917.000000	0.000000	129.000000	61.000000	21.000000	29.000000
0.140000	18.590000	80.220000	941.000000	0.000000	128.000000	61.000000	41.000000	40.000000
0.150000	19.000000	80.590000	982.000000	0.000000	128.000000	61.000000	41.000000	37.000000
0.160000	19.400000	80.970000	978.000000	0.000000	129.000000	60.000000	40.000000	38.000000
0.170000	19.770000	81.350000	1008.000000	0.000000	129.000000	60.000000	37.000000	38.000000
0.180000	20.010000	81.720000	1023.000000	0.000000	129.000000	60.000000	24.000000	37.000000
0.190000	20.160000	81.960000	1023.000000	0.000000	131.000000	60.000000	15.000000	24.000000
0.200000	20.410000	82.270000	1023.000000	0.000000	131.000000	60.000000	25.000000	31.000000
0.210000	20.470000	82.620000	1023.000000	0.000000	131.000000	60.000000	6.000000	35.000000
0.220000	20.400000	83.100000	1023.000000	0.000000	132.000000	59.000000	-7.000000	48.000000
0.230000	20.520000	83.520000	1023.000000	0.000000	132.000000	59.000000	12.000000	42.000000
0.240000	20.610000	83.890000	1023.000000	0.000000	132.000000	59.000000	9.000000	37.000000
0.250000	20.680000	84.360000	1023.000000	0.000000	134.000000	58.000000	7.000000	47.000000
0.260000	20.600000	84.570000	1023.000000	0.000000	135.000000	59.000000	-8.000000	21.000000
0.270000	20.550000	84.570000	1023.000000	0.000000	135.000000	59.000000	-5.000000	0.000000
0.280000	20.550000	84.860000	1023.000000	0.000000	135.000000	59.000000	0.000000	29.000000
0.290000	20.500000	84.910000	1023.000000	0.000000	136.000000	60.000000	-5.000000	5.000000
0.300000	20.500000	84.820000	1023.000000	0.000000	136.000000	60.000000	0.000000	-9.000000
0.310000	20.440000	84.820000	1023.000000	0.000000	136.000000	60.000000	-6.000000	0.000000
0.320000	20.330000	84.880000	1023.000000	0.000000	136.000000	60.000000	-11.000000	6.000000
0.330000	20.160000	84.880000	1023.000000	0.000000	138.000000	60.000000	-17.000000	0.000000
0.340000	19.850000	84.880000	1023.000000	0.000000	138.000000	60.000000	-31.000000	0.000000
0.350000	19.680000	84.820000	1023.000000	0.000000	138.000000	60.000000	-17.000000	-6.000000
0.360000	19.590000	84.740000	1023.000000	0.000000	138.000000	60.000000	-9.000000	-8.000000
0.370000	19.520000	84.640000	1023.000000	0.000000	138.000000	60.000000	-7.000000	-10.000000
0.380000	19.450000	84.540000	1018.000000	0.000000	138.000000	60.000000	-7.000000	-10.000000
0.390000	19.360000	84.360000	1015.000000	0.000000	138.000000	60.000000	-9.000000	-18.000000
0.400000	19.250000	84.130000	1015.000000	0.000000	138.000000	60.000000	-11.000000	-23.000000
0.410000	19.250000	83.850000	1017.000000	0.000000	136.000000	60.000000	0.000000	-28.000000
0.420000	19.250000	83.490000	1020.000000	0.000000	136.000000	60.000000	0.000000	-36.000000
0.430000	19.120000	83.110000	1018.000000	0.000000	136.000000	60.000000	-13.000000	-38.000000
0.440000	19.040000	82.750000	1015.000000	0.000000	136.000000	60.000000	-8.000000	-36.000000
0.450000	18.960000	82.340000	1017.000000	0.000000	136.000000	60.000000	-8.000000	-41.000000
0.460000	18.880000	81.930000	1018.000000	0.000000	135.000000	59.000000	-8.000000	-41.000000
0.470000	18.590000	81.530000	1018.000000	0.000000	135.000000	59.000000	-29.000000	-40.000000
0.480000	18.460000	81.130000	1017.000000	0.000000	135.000000	59.000000	-13.000000	-40.000000
0.490000	18.460000	80.700000	1017.000000	0.000000	134.000000	60.000000	0.000000	-43.000000
0.500000	18.460000	80.290000	1015.000000	0.000000	132.000000	59.000000	0.000000	-41.000000
0.510000	18.400000	79.900000	1012.000000	0.000000	132.000000	59.000000	-6.000000	-39.000000
0.520000	18.260000	79.520000	1014.000000	0.000000	132.000000	59.000000	-14.000000	-38.000000
0.530000	18.260000	79.180000	1011.000000	0.000000	129.000000	59.000000	0.000000	-34.000000
0.540000	18.260000	78.880000	1008.000000	0.000000	131.000000	60.000000	0.000000	-30.000000
0.550000	18.260000	78.610000	1008.000000	0.000000	131.000000	60.000000	0.000000	-27.000000
0.560000	18.200000	78.270000	999.000000	0.000000	131.000000	60.000000	-6.000000	-34.000000
0.570000	18.140000	77.970000	993.000000	0.000000	132.000000	60.000000	-6.000000	-30.000000
0.580000	18.090000	77.710000	984.000000	0.000000	132.000000	60.000000	-5.000000	-26.000000
0.590000	18.090000	77.440000	979.000000	0.000000	132.000000	60.000000	0.000000	-27.000000
0.600000	18.040000	77.250000	995.000000	0.000000	131.000000	61.000000	-5.000000	-19.000000
0.610000	18.040000	77.120000	992.000000	0.000000	131.000000	61.000000	0.000000	-13.000000
0.620000	18.120000	77.020000	994.000000	0.000000	131.000000	61.000000	8.000000	-10.000000
0.630000	18.180000	76.890000	979.000000	0.000000	129.000000	61.000000	6.000000	-13.000000
0.640000	18.180000	76.890000	971.000000	0.000000	129.000000	61.000000	0.000000	0.000000
0.650000	18.300000	76.610000	956.000000	0.000000	129.000000	61.000000	12.000000	-28.000000
0.660000	18.300000	76.610000	953.000000	0.000000	129.000000	61.000000	0.000000	0.000000
0.670000	18.400000	76.530000	949.000000	0.000000	129.000000	61.000000	10.000000	-8.000000
0.680000	18.520000	76.530000	950.000000	0.000000	129.000000	61.000000	12.000000	0.000000
0.690000	18.720000	76.530000	949.000000	0.000000	128.000000	61.000000	20.000000	0.000000
0.700000	18.970000	76.620000	947.000000	0.000000	128.000000	61.000000	25.000000	9.000000
0.710000	19.150000	76.720000	952.000000	0.000000	128.000000	61.000000	18.000000	10.000000
0.720000	19.290000	76.830000	953.000000	0.000000	128.000000	61.000000	14.000000	11.000000
0.730000	19.610000	77.000000	956.000000	0.000000	128.000000	61.000000	32.000000	17.000000
0.740000	19.840000	77.160000	958.000000	0.000000	128.000000	61.000000	23.000000	16.000000
0.750000	20.000000	77.360000	967.000000	0.000000	128.000000	61.000000	16.000000	20.000000
0.760000	20.140000	77.600000	973.000000	0.000000	128.000000	61.000000	14.000000	24.000000
0.770000	20.300000	77.830000	977.000000	0.000000	128.000000	61.000000	16.000000	23.000000
0.780000	20.520000	78.070000	986.000000	0.000000	128.000000	61.000000	22.000000	24.000000
0.790000	20.780000	78.310000	992.000000	0.000000	128.000000	61.000000	26.000000	24.000000
0.800000	21.030000	78.570000	994.000000	0.000000	129.000000	60.000000	25.000000	26.000000
0.810000	21.290000	78.920000	978.000000	0.000000	129.000000	60.000000	26.000000	35.000000
0.820000	21.490000	79.330000	978.000000	0.000000	129.000000	60.000000	20.000000	41.000000
0.830000	21.660000	79.690000	982.000000	0.000000	131.000000	60.000000	17.000000	36.000000
0.840000	21.870000	79.990000	981.000000	0.000000	131.000000	60.000000	21.000000	30.000000
0.850000	21.940000	80.260000	985.000000	0.000000	131.000000	60.000000	7.000000	27.000000
0.860000	21.940000	80.510000	988.000000	0.000000	131.000000	60.000000	0.000000	25.000000
0.870000	21.990000	80.770000	987.000000	0.000000	131.000000	60.000000	5.000000	26.000000
0.880000	22.060000	81.030000	987.000000	0.000000	132.000000	59.000000	7.000000	26.000000
0.890000	22.060000	81.240000	990.000000	0.000000	134.000000	60.000000	0.000000	21.000000
0.900000	22.060000	81.490000	987.000000	0.000000	134.000000	60.000000	0.000000	25.000000
0.910000	22.060000	81.760000	984.000000	0.000000	134.000000	60.000000	0.000000	27.000000
0.920000	21.950000	81.960000	982.000000	0.000000	134.000000	60.000000	-11.000000	20.000000
0.930000	21.860000	82.140000	988.000000	0.000000	134.000000	60.000000	-9.000000	18.000000
0.940000	21.770000	82.250000	985.000000	0.000000	134.000000	60.000000	-9.000000	11.000000
0.950000	21.710000	82.250000	987.000000	0.000000	134.000000	60.000000	-6.000000	0.000000
0.960000	21.710000	82.250000	984.000000	0.000000	135.000000	59.000000	0.000000	0.000000
0.970000	21.710000	82.250000	982.000000	0.000000	135.000000	59.000000	0.000000	0.000000
0.980000	21.650000	82.250000	979.000000	0.000000	135.000000	59.000000	-6.000000	0.000000
0.990000	21.560000	82.180000	979.000000	0.000000	135.000000	59.000000	-9.000000	-7.000000
1.000000	21.410000	82.060000	978.000000	0.000000	135.000000	59.000000	-15.000000	-12.000000
1.010000	21.260000	81.930000	978.000000	0.000000	135.000000	59.000000	-15.000000	-13.000000
1.020000	21.170000	81.820000	977.000000	0.000000	135.000000	59.000000	-9.000000	-11.000000
1.030000	21.110000	81.720000	977.000000	0.000000	135.000000	59.000000	-6.000000	-10.000000
1.040000	21.050000	81.520000	994.000000	0.000000	134.000000	58.000000	-6.000000	-20.000000
1.050000	20.960000	81.290000	991.000000	0.000000	134.000000	58.000000	-9.000000	-23.000000
1.060000	20.890000	81.030000	994.000000	0.000000	134.000000	58.000000	-7.000000	-26.000000
1.070000	20.830000	80.720000	994.000000	0.000000	134.000000	58.000000	-6.000000	-31.000000
1.080000	20.730000	80.370000	991.000000	0.000000	132.000000	59.000000	-10.000000	-35.000000
1.090000	20.620000	80.060000	989.000000	0.000000	132.000000	59.000000	-11.000000	-31.000000
1.100000	20.490000	79.800000	989.000000	0.000000	132.000000	59.000000	-13.000000	-26.000000
1.110000	20.490000	79.520000	989.000000	0.000000	129.000000	59.000000	0.000000	-28.000000
1.120000	20.490000	79.230000	989.000000	0.000000	129.000000	59.000000	0.000000	-29.000000
1.130000	20.490000	78.940000	985.000000	0.000000	129.000000	59.000000	0.000000	-29.000000
1.140000	20.420000	78.680000	985.000000	0.000000	129.000000	59.000000	-7.000000	-26.000000
1.150000	20.420000	78.400000	982.000000	0.000000	129.000000	59.000000	0.000000	-28.000000
1.160000	20.340000	78.120000	982.000000	0.000000	129.000000	59.000000	-8.000000	-28.000000
1.170000	20.340000	77.830000	976.000000	0.000000	129.000000	59.000000	0.000000	-29.000000
1.180000	20.340000	77.670000	974.000000	0.000000	129.000000	59.000000	0.000000	-16.000000
1.190000	20.340000	77.470000	962.000000	0.000000	129.000000	60.000000	0.000000	-20.000000
1.200000	20.340000	77.240000	958.000000	0.000000	129.000000	60.000000	0.000000	-23.000000
1.210000	20.340000	77.060000	947.000000	0.000000	129.000000	60.000000	0.000000	-18.000000
1.220000	20.340000	77.060000	940.000000	0.000000	128.000000	61.000000	0.000000	0.000000
1.230000	20.340000	77.060000	933.000000	0.000000	126.000000	60.000000	0.000000	0.000000
1.240000	20.630000	76.840000	933.000000	0.000000	126.000000	60.000000	29.000000	-22.000000
1.250000	20.780000	76.840000	933.000000	0.000000	126.000000	60.000000	15.000000	0.000000
1.260000	20.950000	76.780000	933.000000	0.000000	126.000000	60.000000	17.000000	-6.000000
1.270000	21.120000	76.780000	938.000000	0.000000	126.000000	60.000000	17.000000	0.000000
1.280000	21.310000	76.780000	938.000000	0.000000	126.000000	60.000000	19.000000	0.000000
1.290000	21.480000	76.850000	944.000000	0.000000	126.000000	60.000000	17.000000	7.000000
1.300000	21.650000	76.930000	949.000000	0.000000	126.000000	60.000000	17.000000	8.000000
1.310000	21.780000	77.040000	947.000000	0.000000	126.000000	60.000000	13.000000	11.000000
1.320000	21.900000	77.170000	950.000000	0.000000	126.000000	60.000000	12.000000	13.000000
1.330000	22.010000	77.290000	952.000000	0.000000	126.000000	60.000000	11.000000	12.000000
1.340000	22.110000	77.480000	953.000000	0.000000	126.000000	60.000000	10.000000	19.000000
1.350000	22.260000	77.720000	956.000000	0.000000	126.000000	60.000000	15.000000	24.000000
1.360000	22.400000	77.890000	956.000000	0.000000	126.000000	60.000000	14.000000	17.000000
1.370000	22.540000	78.100000	958.000000	0.000000	126.000000	60.000000	14.000000	21.000000
1.380000	22.670000	78.360000	956.000000	0.000000	126.000000	60.000000	13.000000	26.000000
1.390000	22.810000	78.630000	956.000000	0.000000	128.000000	59.000000	14.000000	27.000000
1.400000	22.890000	78.940000	956.000000	0.000000	128.000000	59.000000	8.000000	31.000000
1.410000	22.890000	78.940000	958.000000	0.000000	129.000000	59.000000	0.000000	0.000000
1.420000	22.890000	78.940000	962.000000	0.000000	132.000000	59.000000	0.000000	0.000000
1.430000	22.890000	78.940000	962.000000	0.000000	132.000000	59.000000	0.000000	0.000000
1.440000	22.890000	78.940000	962.000000	0.000000	132.000000	59.000000	0.000000	0.000000
1.450000	22.890000	78.940000	964.000000	0.000000	134.000000	58.000000	0.000000	0.000000
1.460000	22.890000	78.880000	962.000000	0.000000	134.000000	58.000000	0.000000	-6.000000
1.470000	22.890000	78.880000	964.000000	0.000000	134.000000	58.000000	0.000000	0.000000
1.480000	22.890000	78.820000	959.000000	0.000000	134.000000	58.000000	0.000000	-6.000000
1.490000	22.890000	78.760000	956.000000	0.000000	135.000000	59.000000	0.000000	-6.000000
1.500000	22.810000	78.640000	956.000000	0.000000	135.000000	59.000000	-8.000000	-12.000000
1.510000	22.700000	78.390000	955.000000	0.000000	135.000000	59.000000	-11.000000	-25.000000
1.520000	22.590000	78.100000	952.000000	0.000000	134.000000	60.000000	-11.000000	-29.000000
1.530000	22.470000	77.830000	949.000000	0.000000	134.000000	60.000000	-12.000000	-27.000000
1.540000	22.470000	77.630000	952.000000	0.000000	132.000000	59.000000	0.000000	-20.000000
1.550000	22.470000	77.480000	947.000000	0.000000	131.000000	60.000000	0.000000	-15.000000
1.560000	22.570000	77.340000	946.000000	0.000000	131.000000	60.000000	10.000000	-14.000000
1.570000	22.670000	77.270000	947.000000	0.000000	129.000000	60.000000	10.000000	-7.000000
1.580000	22.790000	77.270000	953.000000	0.000000	129.000000	60.000000	12.000000	0.000000
1.590000	22.910000	77.270000	958.000000	0.000000	128.000000	61.000000	12.000000	0.000000
1.600000	23.080000	77.430000	956.000000	0.000000	128.000000	61.000000	17.000000	16.000000
1.610000	23.260000	77.650000	958.000000	0.000000	128.000000	61.000000	18.000000	22.000000
1.620000	23.260000	77.650000	961.000000	0.000000	129.000000	61.000000	0.000000	0.000000
1.630000	23.580000	77.980000	965.000000	0.000000	129.000000	61.000000	32.000000	33.000000
1.640000	23.580000	77.980000	965.000000	0.000000	131.000000	61.000000	0.000000	0.000000
1.650000	23.670000	78.060000	967.000000	0.000000	131.000000	61.000000	9.000000	8.000000
1.660000	23.670000	78.130000	973.000000	0.000000	131.000000	61.000000	0.000000	7.000000
1.670000	23.720000	78.210000	970.000000	0.000000	131.000000	61.000000	5.000000	8.000000
1.680000	23.800000	78.430000	973.000000	0.000000	131.000000	61.000000	8.000000	22.000000
1.690000	23.900000	78.740000	971.000000	0.000000	132.000000	60.000000	10.000000	31.000000
1.700000	24.060000	78.880000	974.000000	0.000000	132.000000	60.000000	16.000000	14.000000
1.710000	24.160000	79.030000	974.000000	0.000000	132.000000	60.000000	10.000000	15.000000
1.720000	24.210000	79.180000	980.000000	0.000000	134.000000	60.000000	5.000000	15.000000
1.730000	24.260000	79.130000	991.000000	0.000000	135.000000	60.000000	5.000000	-5.000000
1.740000	24.260000	79.130000	997.000000	0.000000	136.000000	60.000000	0.000000	0.000000
1.750000	24.190000	79.130000	987.000000	0.000000	136.000000	60.000000	-7.000000	0.000000
1.760000	24.190000	79.130000	997.000000	0.000000	136.000000	60.000000	0.000000	0.000000
1.770000	24.190000	79.130000	1015.000000	0.000000	138.000000	59.000000	0.000000	0.000000
1.780000	24.190000	79.130000	1023.000000	0.000000	138.000000	59.000000	0.000000	0.000000
1.790000	24.190000	79.130000	1023.000000	0.000000	138.000000	59.000000	0.000000	0.000000
1.800000	24.140000	79.060000	1023.000000	0.000000	138.000000	59.000000	-5.000000	-7.000000
1.810000	24.140000	79.060000	1023.000000	0.000000	138.000000	59.000000	0.000000	0.000000
1.820000	24.140000	79.060000	1023.000000	0.000000	138.000000	59.000000	0.000000	0.000000
1.830000	24.140000	79.060000	1023.000000	0.000000	138.000000	59.000000	0.000000	0.000000
1.840000	24.140000	79.060000	1023.000000	0.000000	138.000000	59.000000	0.000000	0.000000
1.850000	24.140000	79.060000	1023.000000	0.000000	138.000000	59.000000	0.000000	0.000000
1.860000	24.140000	79.060000	1023.000000	0.000000	138.000000	59.000000	0.000000	0.000000
1.870000	24.140000	79.060000	1023.000000	0.000000	136.000000	58.000000	0.000000	0.000000
1.880000	24.140000	79.060000	1023.000000	0.000000	136.000000	58.000000	0.000000	0.000000
1.890000	24.140000	79.060000	1023.000000	0.000000	136.000000	58.000000	0.000000	0.000000
1.900000	24.140000	79.060000	1023.000000	0.000000	136.000000	58.000000	0.000000	0.000000
1.910000	24.140000	79.060000	1023.000000	0.000000	136.000000	58.000000	0.000000	0.000000
1.920000	24.140000	78.950000	1023.000000	0.000000	136.000000	58.000000	0.000000	-11.000000
1.930000	24.040000	78.850000	1023.000000	0.000000	136.000000	58.000000	-10.000000	-10.000000
1.940000	23.960000	78.720000	1023.000000	0.000000	136.000000	58.000000	-8.000000	-13.000000
1.950000	23.960000	78.640000	1023.000000	0.000000	135.000000	59.000000	0.000000	-8.000000
1.960000	23.960000	78.640000	1023.000000	0.000000	135.000000	59.000000	0.000000	0.000000
1.970000	23.960000	78.420000	1023.000000	0.000000	135.000000	59.000000	0.000000	-22.000000
1.980000	23.880000	78.200000	1023.000000	0.000000	135.000000	59.000000	-8.000000	-22.000000
1.990000	23.810000	77.910000	1023.000000	0.000000	134.000000	60.000000	-7.000000	-29.000000
2.000000	23.740000	77.580000	1023.000000	0.000000	134.000000	60.000000	-7.000000	-33.000000
2.010000	23.790000	77.510000	1023.000000	0.000000	134.000000	60.000000	5.000000	-7.000000
2.020000	23.850000	77.440000	1023.000000	0.000000	132.000000	60.000000	6.000000	-7.000000
2.030000	23.950000	77.390000	1023.000000	0.000000	132.000000	60.000000	10.000000	-5.000000
2.040000	24.090000	77.390000	1023.000000	0.000000	131.000000	61.000000	14.000000	0.000000
2.050000	24.300000	77.390000	1023.000000	0.000000	131.000000	61.000000	21.000000	0.000000
2.060000	24.490000	77.440000	1023.000000	0.000000	131.000000	61.000000	19.000000	5.000000
2.070000	24.620000	77.440000	1023.000000	0.000000	131.000000	61.000000	13.000000	0.000000
2.080000	24.800000	77.570000	1023.000000	0.000000	131.000000	61.000000	18.000000	13.000000
2.090000	24.970000	77.730000	1023.000000	0.000000	131.000000	61.000000	17.000000	16.000000
2.100000	25.200000	77.990000	1023.000000	0.000000	131.000000	61.000000	23.000000	26.000000
2.110000	25.370000	78.210000	1023.000000	0.000000	132.000000	61.000000	17.000000	22.000000
2.120000	25.500000	78.400000	1023.000000	0.000000	132.000000	61.000000	13.000000	19.000000
2.130000	25.580000	78.520000	1023.000000	0.000000	132.000000	61.000000	8.000000	12.000000
2.140000	25.660000	78.650000	1023.000000	0.000000	134.000000	61.000000	8.000000	13.000000
2.150000	25.730000	78.800000	1023.000000	0.000000	134.000000	61.000000	7.000000	15.000000
2.160000	25.780000	78.960000	1023.000000	0.000000	135.000000	60.000000	5.000000	16.000000
2.170000	25.780000	79.090000	1023.000000	0.000000	135.000000	60.000000	0.000000	13.000000
2.180000	25.780000	79.090000	1023.000000	0.000000	136.000000	60.000000	0.000000	0.000000
2.190000	25.780000	79.140000	1023.000000	0.000000	136.000000	60.000000	0.000000	5.000000
2.200000	25.780000	79.140000	1023.000000	0.000000	138.000000	60.000000	0.000000	0.000000
