t	x	y	pressure	penup	azimuth	inclination	v_x	v_y
0.000000	16.010000	61.110000	338.000000	1.000000	116.000000	55.000000	0.000000	0.000000
0.010000	16.050000	59.400000	412.000000	0.000000	115.000000	55.000000	4.000000	-171.000000
0.020000	16.180000	59.400000	532.000000	0.000000	113.000000	56.000000	13.000000	0.000000
0.030000	16.290000	59.580000	661.000000	0.000000	113.000000	57.000000	11.000000	18.000000
0.040000	16.640000	59.780000	739.000000	0.000000	113.000000	57.000000	35.000000	20.000000
0.050000	17.170000	60.450000	797.000000	0.000000	111.000000	57.000000	53.000000	67.000000
0.060000	17.810000	61.610000	824.000000	0.000000	111.000000	57.000000	64.000000	116.000000
0.070000	18.480000	63.100000	819.000000	0.000000	112.000000	58.000000	67.000000	149.000000
0.080000	19.130000	64.880000	806.000000	0.000000	112.000000	58.000000	65.000000	178.000000
0.090000	19.630000	66.970000	780.000000	0.000000	113.000000	58.000000	50.000000	209.000000
0.100000	20.020000	69.280000	760.000000	0.000000	114.000000	59.000000	39.000000	231.000000
0.110000	20.020000	71.250000	736.000000	0.000000	116.000000	58.000000	0.000000	197.000000
0.120000	19.910000	72.350000	724.000000	0.000000	119.000000	58.000000	-11.000000	110.000000
0.130000	19.690000	72.870000	713.000000	0.000000	121.000000	58.000000	-22.000000	52.000000
0.140000	19.480000	72.950000	707.000000	0.000000	124.000000	57.000000	-21.000000	8.000000
0.150000	19.120000	72.670000	708.000000	0.000000	127.000000	57.000000	-36.000000	-28.000000
0.160000	18.670000	72.160000	705.000000	0.000000	128.000000	57.000000	-45.000000	-51.000000
0.170000	18.150000	71.000000	703.000000	0.000000	130.000000	56.000000	-52.000000	-116.000000
0.180000	17.670000	69.340000	711.000000	0.000000	131.000000	56.000000	-48.000000	-166.000000
0.190000	17.260000	67.340000	721.000000	0.000000	131.000000	56.000000	-41.000000	-200.000000
0.200000	16.890000	65.100000	733.000000	0.000000	130.000000	56.000000	-37.000000	-224.000000
0.210000	16.590000	63.000000	725.000000	0.000000	128.000000	57.000000	-30.000000	-210.000000
0.220000	16.590000	60.990000	734.000000	0.000000	124.000000	57.000000	0.000000	-201.000000
0.230000	16.760000	59.830000	737.000000	0.000000	123.000000	58.000000	17.000000	-116.000000
0.240000	17.080000	59.310000	760.000000	0.000000	120.000000	57.000000	32.000000	-52.000000
0.250000	17.490000	59.210000	784.000000	0.000000	117.000000	58.000000	41.000000	-10.000000
0.260000	17.960000	59.400000	785.000000	0.000000	115.000000	58.000000	47.000000	19.000000
0.270000	18.490000	60.130000	794.000000	0.000000	113.000000	58.000000	53.000000	73.000000
0.280000	19.030000	61.220000	774.000000	0.000000	113.000000	58.000000	54.000000	109.000000
0.290000	19.600000	62.710000	724.000000	0.000000	113.000000	58.000000	57.000000	149.000000
0.300000	20.090000	64.370000	694.000000	0.000000	113.000000	58.000000	49.000000	166.000000
0.310000	20.530000	66.150000	670.000000	0.000000	113.000000	58.000000	44.000000	178.000000
0.320000	20.080000	67.140000	664.000000	0.000000	114.000000	59.000000	-45.000000	99.000000
0.330000	19.830000	67.410000	667.000000	0.000000	114.000000	59.000000	-25.000000	27.000000
0.340000	19.710000	67.210000	684.000000	0.000000	115.000000	60.000000	-12.000000	-20.000000
0.350000	19.410000	66.370000	722.000000	0.000000	117.000000	59.000000	-30.000000	-84.000000
0.360000	19.060000	64.960000	731.000000	0.000000	117.000000	59.000000	-35.000000	-141.000000
0.370000	18.670000	63.170000	759.000000	0.000000	117.000000	59.000000	-39.000000	-179.000000
0.380000	18.410000	61.940000	776.000000	0.000000	118.000000	59.000000	-26.000000	-123.000000
0.390000	18.350000	60.660000	784.000000	0.000000	118.000000	59.000000	-6.000000	-128.000000
0.400000	18.420000	59.780000	784.000000	0.000000	116.000000	58.000000	7.000000	-88.000000
0.410000	18.670000	59.190000	787.000000	0.000000	116.000000	58.000000	25.000000	-59.000000
0.420000	19.110000	59.050000	782.000000	0.000000	116.000000	58.000000	44.000000	-14.000000
0.430000	19.680000	59.490000	782.000000	0.000000	113.000000	58.000000	57.000000	44.000000
0.440000	20.330000	60.310000	755.000000	0.000000	113.000000	58.000000	65.000000	82.000000
0.450000	20.890000	61.530000	731.000000	0.000000	113.000000	58.000000	56.000000	122.000000
0.460000	21.380000	62.970000	682.000000	0.000000	113.000000	58.000000	49.000000	144.000000
0.470000	21.380000	64.570000	672.000000	0.000000	114.000000	59.000000	0.000000	160.000000
0.480000	21.320000	65.460000	670.000000	0.000000	114.000000	59.000000	-6.000000	89.000000
0.490000	21.160000	65.760000	693.000000	0.000000	114.000000	59.000000	-16.000000	30.000000
0.500000	21.000000	65.670000	699.000000	0.000000	115.000000	60.000000	-16.000000	-9.000000
0.510000	20.870000	65.120000	733.000000	0.000000	117.000000	59.000000	-13.000000	-55.000000
0.520000	20.640000	64.120000	763.000000	0.000000	117.000000	59.000000	-23.000000	-100.000000
0.530000	20.340000	62.820000	773.000000	0.000000	117.000000	59.000000	-30.000000	-130.000000
0.540000	20.340000	61.820000	782.000000	0.000000	118.000000	59.000000	0.000000	-100.000000
0.550000	20.420000	61.090000	793.000000	0.000000	118.000000	59.000000	8.000000	-73.000000
0.560000	20.650000	60.540000	785.000000	0.000000	118.000000	59.000000	23.000000	-55.000000
0.570000	21.060000	60.360000	784.000000	0.000000	117.000000	58.000000	41.000000	-18.000000
0.580000	21.470000	60.450000	780.000000	0.000000	117.000000	58.000000	41.000000	9.000000
0.590000	21.890000	60.720000	767.000000	0.000000	117.000000	58.000000	42.000000	27.000000
0.600000	22.310000	61.380000	737.000000	0.000000	117.000000	58.000000	42.000000	66.000000
0.610000	22.590000	62.310000	696.000000	0.000000	117.000000	58.000000	28.000000	93.000000
0.620000	22.770000	63.430000	681.000000	0.000000	118.000000	59.000000	18.000000	112.000000
0.630000	22.700000	64.280000	678.000000	0.000000	118.000000	59.000000	-7.000000	85.000000
0.640000	22.630000	64.580000	691.000000	0.000000	118.000000	59.000000	-7.000000	30.000000
0.650000	22.570000	64.510000	707.000000	0.000000	119.000000	60.000000	-6.000000	-7.000000
0.660000	22.430000	64.060000	733.000000	0.000000	119.000000	60.000000	-14.000000	-45.000000
0.670000	22.250000	63.270000	754.000000	0.000000	119.000000	60.000000	-18.000000	-79.000000
0.680000	22.110000	62.250000	751.000000	0.000000	119.000000	60.000000	-14.000000	-102.000000
0.690000	22.110000	61.510000	765.000000	0.000000	121.000000	59.000000	0.000000	-74.000000
0.700000	22.250000	61.030000	770.000000	0.000000	121.000000	59.000000	14.000000	-48.000000
0.710000	22.530000	60.730000	773.000000	0.000000	119.000000	60.000000	28.000000	-30.000000
0.720000	22.850000	60.730000	776.000000	0.000000	119.000000	60.000000	32.000000	0.000000
0.730000	23.220000	60.930000	784.000000	0.000000	118.000000	59.000000	37.000000	20.000000
0.740000	23.590000	61.340000	780.000000	0.000000	118.000000	59.000000	37.000000	41.000000
0.750000	23.910000	62.010000	754.000000	0.000000	118.000000	59.000000	32.000000	67.000000
0.760000	24.200000	62.920000	763.000000	0.000000	118.000000	60.000000	29.000000	91.000000
0.770000	24.370000	64.000000	761.000000	0.000000	118.000000	60.000000	17.000000	108.000000
0.780000	24.440000	64.650000	760.000000	0.000000	118.000000	60.000000	7.000000	65.000000
0.790000	24.440000	64.930000	760.000000	0.000000	119.000000	61.000000	0.000000	28.000000
0.800000	24.380000	64.930000	768.000000	0.000000	119.000000	61.000000	-6.000000	0.000000
0.810000	24.320000	64.840000	776.000000	0.000000	119.000000	61.000000	-6.000000	-9.000000
0.820000	24.170000	64.260000	791.000000	0.000000	120.000000	60.000000	-15.000000	-58.000000
0.830000	23.950000	63.370000	790.000000	0.000000	120.000000	60.000000	-22.000000	-89.000000
0.840000	23.900000	62.310000	796.000000	0.000000	120.000000	60.000000	-5.000000	-106.000000
0.850000	23.900000	61.510000	802.000000	0.000000	120.000000	60.000000	0.000000	-80.000000
0.860000	23.960000	60.890000	803.000000	0.000000	120.000000	60.000000	6.000000	-62.000000
0.870000	24.210000	60.570000	787.000000	0.000000	120.000000	60.000000	25.000000	-32.000000
0.880000	24.500000	60.570000	794.000000	0.000000	120.000000	60.000000	29.000000	0.000000
0.890000	24.890000	60.730000	776.000000	0.000000	119.000000	60.000000	39.000000	16.000000
0.900000	25.340000	61.430000	730.000000	0.000000	119.000000	60.000000	45.000000	70.000000
0.910000	25.850000	62.460000	707.000000	0.000000	120.000000	60.000000	51.000000	103.000000
0.920000	26.150000	63.700000	673.000000	0.000000	120.000000	60.000000	30.000000	124.000000
0.930000	26.320000	65.050000	659.000000	0.000000	120.000000	60.000000	17.000000	135.000000
0.940000	26.270000	65.840000	665.000000	0.000000	122.000000	61.000000	-5.000000	79.000000
0.950000	26.190000	66.270000	675.000000	0.000000	122.000000	61.000000	-8.000000	43.000000
0.960000	26.100000	66.220000	711.000000	0.000000	123.000000	62.000000	-9.000000	-5.000000
0.970000	26.020000	65.800000	727.000000	0.000000	123.000000	62.000000	-8.000000	-42.000000
0.980000	25.930000	65.130000	750.000000	0.000000	123.000000	62.000000	-9.000000	-67.000000
0.990000	25.820000	64.150000	763.000000	0.000000	124.000000	62.000000	-11.000000	-98.000000
1.000000	25.820000	63.270000	777.000000	0.000000	124.000000	62.000000	0.000000	-88.000000
1.010000	25.890000	62.470000	782.000000	0.000000	124.000000	62.000000	7.000000	-80.000000
1.020000	26.000000	62.060000	780.000000	0.000000	124.000000	62.000000	11.000000	-41.000000
1.030000	26.230000	61.860000	771.000000	0.000000	124.000000	62.000000	23.000000	-20.000000
1.040000	26.530000	61.800000	763.000000	0.000000	124.000000	62.000000	30.000000	-6.000000
1.050000	26.660000	61.950000	751.000000	0.000000	123.000000	61.000000	13.000000	15.000000
1.060000	26.870000	62.520000	749.000000	0.000000	122.000000	60.000000	21.000000	57.000000
1.070000	27.130000	63.360000	722.000000	0.000000	122.000000	60.000000	26.000000	84.000000
1.080000	27.230000	64.250000	702.000000	0.000000	122.000000	60.000000	10.000000	89.000000
1.090000	27.290000	65.020000	691.000000	0.000000	119.000000	60.000000	6.000000	77.000000
1.100000	27.290000	65.280000	696.000000	0.000000	119.000000	60.000000	0.000000	26.000000
1.110000	27.290000	65.280000	693.000000	0.000000	119.000000	60.000000	0.000000	0.000000
1.120000	27.290000	65.160000	719.000000	0.000000	118.000000	59.000000	0.000000	-12.000000
1.130000	27.170000	64.690000	728.000000	0.000000	118.000000	59.000000	-12.000000	-47.000000
1.140000	27.090000	63.960000	742.000000	0.000000	120.000000	58.000000	-8.000000	-73.000000
1.150000	27.010000	63.220000	773.000000	0.000000	120.000000	58.000000	-8.000000	-74.000000
1.160000	26.950000	62.470000	784.000000	0.000000	120.000000	58.000000	-6.000000	-75.000000
1.170000	26.950000	61.750000	788.000000	0.000000	120.000000	58.000000	0.000000	-72.000000
1.180000	27.070000	61.220000	787.000000	0.000000	120.000000	58.000000	12.000000	-53.000000
1.190000	27.170000	60.890000	784.000000	0.000000	120.000000	58.000000	10.000000	-33.000000
1.200000	27.260000	60.740000	784.000000	0.000000	117.000000	58.000000	9.000000	-15.000000
1.210000	27.260000	60.740000	791.000000	0.000000	117.000000	58.000000	0.000000	0.000000
1.220000	27.360000	60.740000	788.000000	0.000000	117.000000	58.000000	10.000000	0.000000
1.230000	27.420000	60.790000	803.000000	0.000000	117.000000	58.000000	6.000000	5.000000
1.240000	27.720000	61.260000	815.000000	0.000000	117.000000	58.000000	30.000000	47.000000
1.250000	28.080000	62.060000	823.000000	0.000000	117.000000	58.000000	36.000000	80.000000
1.260000	28.560000	63.070000	814.000000	0.000000	118.000000	59.000000	48.000000	101.000000
1.270000	29.140000	64.570000	794.000000	0.000000	118.000000	59.000000	58.000000	150.000000
1.280000	29.490000	66.380000	787.000000	0.000000	118.000000	59.000000	35.000000	181.000000
1.290000	29.680000	68.400000	797.000000	0.000000	119.000000	60.000000	19.000000	202.000000
1.300000	29.680000	70.250000	803.000000	0.000000	121.000000	59.000000	0.000000	185.000000
1.310000	29.680000	71.050000	811.000000	0.000000	124.000000	60.000000	0.000000	80.000000
1.320000	29.730000	71.160000	817.000000	0.000000	126.000000	60.000000	5.000000	11.000000
1.330000	29.730000	71.010000	855.000000	0.000000	128.000000	59.000000	0.000000	-15.000000
1.340000	29.730000	69.890000	869.000000	0.000000	131.000000	60.000000	0.000000	-112.000000
1.350000	29.680000	68.120000	908.000000	0.000000	132.000000	59.000000	-5.000000	-177.000000
1.360000	29.570000	66.470000	915.000000	0.000000	132.000000	59.000000	-11.000000	-165.000000
1.370000	29.450000	64.970000	933.000000	0.000000	132.000000	59.000000	-12.000000	-150.000000
1.380000	29.330000	63.560000	935.000000	0.000000	132.000000	59.000000	-12.000000	-141.000000
1.390000	29.250000	62.390000	923.000000	0.000000	129.000000	59.000000	-8.000000	-117.000000
1.400000	29.250000	61.880000	911.000000	0.000000	127.000000	59.000000	0.000000	-51.000000
1.410000	29.370000	61.820000	924.000000	0.000000	125.000000	59.000000	12.000000	-6.000000
1.420000	29.720000	62.070000	920.000000	0.000000	123.000000	59.000000	35.000000	25.000000
1.430000	30.230000	63.180000	911.000000	0.000000	121.000000	59.000000	51.000000	111.000000
1.440000	30.970000	64.870000	900.000000	0.000000	121.000000	59.000000	74.000000	169.000000
1.450000	31.720000	66.810000	815.000000	0.000000	121.000000	59.000000	75.000000	194.000000
1.460000	32.140000	69.090000	755.000000	0.000000	121.000000	59.000000	42.000000	228.000000
1.470000	32.320000	71.590000	730.000000	0.000000	124.000000	60.000000	18.000000	250.000000
1.480000	32.320000	73.020000	748.000000	0.000000	125.000000	59.000000	0.000000	143.000000
1.490000	32.370000	73.550000	761.000000	0.000000	127.000000	59.000000	5.000000	53.000000
1.500000	32.320000	73.470000	779.000000	0.000000	131.000000	58.000000	-5.000000	-8.000000
1.510000	32.210000	73.010000	800.000000	0.000000	132.000000	58.000000	-11.000000	-46.000000
1.520000	32.010000	71.720000	833.000000	0.000000	135.000000	58.000000	-20.000000	-129.000000
1.530000	31.820000	69.880000	857.000000	0.000000	136.000000	57.000000	-19.000000	-184.000000
1.540000	31.570000	68.050000	884.000000	0.000000	136.000000	57.000000	-25.000000	-183.000000
1.550000	31.280000	66.440000	891.000000	0.000000	136.000000	57.000000	-29.000000	-161.000000
1.560000	30.930000	64.980000	879.000000	0.000000	135.000000	58.000000	-35.000000	-146.000000
1.570000	30.580000	63.540000	876.000000	0.000000	134.000000	58.000000	-35.000000	-144.000000
1.580000	30.580000	62.830000	870.000000	0.000000	131.000000	58.000000	0.000000	-71.000000
1.590000	30.730000	62.600000	864.000000	0.000000	128.000000	59.000000	15.000000	-23.000000
1.600000	30.950000	62.340000	858.000000	0.000000	126.000000	60.000000	22.000000	-26.000000
1.610000	31.110000	62.270000	866.000000	0.000000	125.000000	60.000000	16.000000	-7.000000
1.620000	31.240000	62.330000	855.000000	0.000000	124.000000	60.000000	13.000000	6.000000
1.630000	31.510000	62.380000	817.000000	0.000000	125.000000	60.000000	27.000000	5.000000
1.640000	31.780000	62.380000	796.000000	0.000000	125.000000	60.000000	27.000000	0.000000
1.650000	32.050000	62.380000	776.000000	0.000000	125.000000	60.000000	27.000000	0.000000
1.660000	32.290000	62.330000	763.000000	0.000000	125.000000	60.000000	24.000000	-5.000000
1.670000	32.450000	62.330000	752.000000	0.000000	126.000000	61.000000	16.000000	0.000000
1.680000	32.540000	62.270000	733.000000	0.000000	126.000000	61.000000	9.000000	-6.000000
1.690000	32.540000	62.270000	707.000000	0.000000	126.000000	61.000000	0.000000	0.000000
1.700000	32.440000	62.270000	703.000000	0.000000	126.000000	61.000000	-10.000000	0.000000
1.710000	32.290000	62.130000	691.000000	0.000000	126.000000	61.000000	-15.000000	-14.000000
1.720000	31.760000	61.760000	694.000000	0.000000	126.000000	61.000000	-53.000000	-37.000000
1.730000	30.900000	61.240000	688.000000	0.000000	127.000000	62.000000	-86.000000	-52.000000
1.740000	29.820000	60.750000	681.000000	0.000000	127.000000	62.000000	-108.000000	-49.000000
1.750000	28.670000	60.390000	670.000000	0.000000	127.000000	62.000000	-115.000000	-36.000000
1.760000	27.180000	60.120000	656.000000	0.000000	127.000000	63.000000	-149.000000	-27.000000
1.770000	25.450000	59.910000	653.000000	0.000000	127.000000	63.000000	-173.000000	-21.000000
1.780000	23.470000	59.910000	671.000000	0.000000	127.000000	63.000000	-198.000000	0.000000
1.790000	21.190000	59.910000	757.000000	0.000000	125.000000	64.000000	-228.000000	0.000000
1.800000	18.720000	60.310000	797.000000	0.000000	125.000000	64.000000	-247.000000	40.000000
1.810000	16.760000	61.110000	817.000000	0.000000	125.000000	64.000000	-196.000000	80.000000
1.820000	15.650000	62.190000	822.000000	0.000000	125.000000	64.000000	-111.000000	108.000000
1.830000	15.100000	63.360000	832.000000	0.000000	129.000000	64.000000	-55.000000	117.000000
1.840000	15.520000	64.820000	794.000000	0.000000	129.000000	64.000000	42.000000	146.000000
1.850000	17.140000	66.470000	776.000000	0.000000	132.000000	64.000000	162.000000	165.000000
1.860000	19.550000	68.030000	777.000000	0.000000	132.000000	64.000000	241.000000	156.000000
1.870000	22.820000	69.210000	773.000000	0.000000	135.000000	64.000000	327.000000	118.000000
1.880000	26.300000	70.140000	773.000000	0.000000	138.000000	64.000000	348.000000	93.000000
1.890000	29.910000	70.510000	756.000000	0.000000	141.000000	64.000000	361.000000	37.000000
1.900000	33.140000	70.510000	746.000000	0.000000	145.000000	64.000000	323.000000	0.000000
1.910000	35.610000	70.370000	727.000000	0.000000	148.000000	63.000000	247.000000	-14.000000
1.920000	37.580000	69.810000	720.000000	0.000000	151.000000	63.000000	197.000000	-56.000000
1.930000	38.360000	69.050000	730.000000	0.000000	151.000000	63.000000	78.000000	-76.000000
1.940000	38.100000	68.160000	697.000000	0.000000	152.000000	62.000000	-26.000000	-89.000000
1.950000	37.140000	67.100000	622.000000	0.000000	151.000000	63.000000	-96.000000	-106.000000
1.960000	34.930000	66.040000	600.000000	0.000000	151.000000	63.000000	-221.000000	-106.000000
1.970000	31.990000	64.990000	653.000000	0.000000	148.000000	63.000000	-294.000000	-105.000000
1.980000	28.570000	63.990000	725.000000	0.000000	146.000000	63.000000	-342.000000	-100.000000
1.990000	25.320000	63.210000	739.000000	0.000000	145.000000	64.000000	-325.000000	-78.000000
2.000000	22.560000	62.590000	745.000000	0.000000	141.000000	64.000000	-276.000000	-62.000000
2.010000	20.120000	62.200000	742.000000	0.000000	140.000000	63.000000	-244.000000	-39.000000
2.020000	18.810000	62.080000	725.000000	0.000000	140.000000	63.000000	-131.000000	-12.000000
2.030000	18.630000	62.140000	724.000000	0.000000	138.000000	63.000000	-18.000000	6.000000
2.040000	19.210000	62.140000	724.000000	0.000000	140.000000	63.000000	58.000000	0.000000
2.050000	20.780000	62.290000	733.000000	0.000000	140.000000	63.000000	157.000000	15.000000
2.060000	23.030000	62.470000	733.000000	0.000000	140.000000	63.000000	225.000000	18.000000
2.070000	25.720000	62.740000	752.000000	0.000000	140.000000	63.000000	269.000000	27.000000
2.080000	28.350000	62.910000	760.000000	0.000000	141.000000	64.000000	263.000000	17.000000
2.090000	30.280000	62.910000	756.000000	0.000000	141.000000	64.000000	193.000000	0.000000
2.100000	31.740000	62.710000	756.000000	0.000000	141.000000	64.000000	146.000000	-20.000000
2.110000	32.290000	62.410000	768.000000	0.000000	141.000000	64.000000	55.000000	-30.000000
2.120000	32.100000	62.040000	785.000000	0.000000	141.000000	64.000000	-19.000000	-37.000000
2.130000	31.420000	61.560000	782.000000	0.000000	141.000000	64.000000	-68.000000	-48.000000
2.140000	29.990000	61.000000	788.000000	0.000000	141.000000	64.000000	-143.000000	-56.000000
2.150000	27.860000	60.460000	773.000000	0.000000	140.000000	65.000000	-213.000000	-54.000000
2.160000	25.250000	59.970000	784.000000	0.000000	140.000000	65.000000	-261.000000	-49.000000
2.170000	22.370000	59.510000	791.000000	0.000000	140.000000	65.000000	-288.000000	-46.000000
2.180000	19.520000	59.510000	788.000000	0.000000	138.000000	65.000000	-285.000000	0.000000
