t	x	y	pressure	penup	azimuth	inclination	v_x	v_y
0.000000	87.400000	9.610000	67.000000	1.000000	113.000000	61.000000	0.000000	0.000000
0.010000	87.400000	9.610000	139.000000	0.000000	113.000000	61.000000	0.000000	0.000000
0.020000	87.400000	9.610000	207.000000	0.000000	113.000000	61.000000	0.000000	0.000000
0.030000	87.470000	9.360000	256.000000	0.000000	113.000000	61.000000	7.000000	-25.000000
0.040000	87.540000	9.220000	302.000000	0.000000	113.000000	61.000000	7.000000	-14.000000
0.050000	87.590000	9.060000	332.000000	0.000000	114.000000	61.000000	5.000000	-16.000000
0.060000	87.660000	8.890000	368.000000	0.000000	114.000000	61.000000	7.000000	-17.000000
0.070000	87.760000	8.740000	387.000000	0.000000	114.000000	61.000000	10.000000	-15.000000
0.080000	87.850000	8.680000	417.000000	0.000000	113.000000	60.000000	9.000000	-6.000000
0.090000	87.920000	8.680000	422.000000	0.000000	113.000000	60.000000	7.000000	0.000000
0.100000	88.080000	8.760000	441.000000	0.000000	113.000000	60.000000	16.000000	8.000000
0.110000	88.270000	8.980000	450.000000	0.000000	114.000000	59.000000	19.000000	22.000000
0.120000	88.500000	9.300000	456.000000	0.000000	113.000000	59.000000	23.000000	32.000000
0.130000	88.740000	9.680000	460.000000	0.000000	113.000000	59.000000	24.000000	38.000000
0.140000	88.980000	10.260000	455.000000	0.000000	113.000000	59.000000	24.000000	58.000000
0.150000	89.250000	10.980000	450.000000	0.000000	111.000000	59.000000	27.000000	72.000000
0.160000	89.580000	12.240000	443.000000	0.000000	111.000000	59.000000	33.000000	126.000000
0.170000	89.920000	13.470000	444.000000	0.000000	111.000000	59.000000	34.000000	123.000000
0.180000	90.240000	14.680000	430.000000	0.000000	111.000000	59.000000	32.000000	121.000000
0.190000	90.540000	15.780000	440.000000	0.000000	111.000000	59.000000	30.000000	110.000000
0.200000	90.740000	16.860000	436.000000	0.000000	113.000000	59.000000	20.000000	108.000000
0.210000	90.870000	17.900000	433.000000	0.000000	113.000000	58.000000	13.000000	104.000000
0.220000	91.000000	18.850000	440.000000	0.000000	115.000000	58.000000	13.000000	95.000000
0.230000	91.090000	19.600000	441.000000	0.000000	118.000000	57.000000	9.000000	75.000000
0.240000	91.160000	20.240000	450.000000	0.000000	119.000000	56.000000	7.000000	64.000000
0.250000	91.220000	20.600000	465.000000	0.000000	122.000000	56.000000	6.000000	36.000000
0.260000	91.220000	20.720000	494.000000	0.000000	125.000000	56.000000	0.000000	12.000000
0.270000	91.120000	20.720000	502.000000	0.000000	126.000000	56.000000	-10.000000	0.000000
0.280000	90.970000	20.510000	509.000000	0.000000	126.000000	56.000000	-15.000000	-21.000000
0.290000	90.710000	19.990000	509.000000	0.000000	126.000000	56.000000	-26.000000	-52.000000
0.300000	90.370000	19.240000	522.000000	0.000000	127.000000	55.000000	-34.000000	-75.000000
0.310000	90.050000	18.250000	516.000000	0.000000	127.000000	55.000000	-32.000000	-99.000000
0.320000	89.730000	16.900000	527.000000	0.000000	126.000000	56.000000	-32.000000	-135.000000
0.330000	89.420000	15.310000	543.000000	0.000000	124.000000	55.000000	-31.000000	-159.000000
0.340000	89.160000	13.630000	570.000000	0.000000	122.000000	56.000000	-26.000000	-168.000000
0.350000	88.960000	11.840000	564.000000	0.000000	121.000000	56.000000	-20.000000	-179.000000
0.360000	88.880000	9.980000	569.000000	0.000000	117.000000	56.000000	-8.000000	-186.000000
0.370000	88.880000	8.650000	574.000000	0.000000	116.000000	56.000000	0.000000	-133.000000
0.380000	88.960000	7.600000	578.000000	0.000000	115.000000	58.000000	8.000000	-105.000000
0.390000	89.140000	6.750000	569.000000	0.000000	113.000000	58.000000	18.000000	-85.000000
0.400000	89.430000	6.020000	567.000000	0.000000	113.000000	59.000000	29.000000	-73.000000
0.410000	89.680000	5.620000	556.000000	0.000000	112.000000	60.000000	25.000000	-40.000000
0.420000	89.910000	5.430000	542.000000	0.000000	110.000000	60.000000	23.000000	-19.000000
0.430000	90.150000	5.430000	540.000000	0.000000	111.000000	61.000000	24.000000	0.000000
0.440000	90.390000	5.870000	535.000000	0.000000	110.000000	63.000000	24.000000	44.000000
0.450000	90.640000	6.530000	538.000000	0.000000	111.000000	64.000000	25.000000	66.000000
0.460000	90.960000	7.330000	537.000000	0.000000	111.000000	64.000000	32.000000	80.000000
0.470000	91.290000	8.130000	516.000000	0.000000	112.000000	64.000000	33.000000	80.000000
0.480000	91.620000	8.750000	516.000000	0.000000	114.000000	64.000000	33.000000	62.000000
0.490000	91.910000	9.240000	516.000000	0.000000	114.000000	64.000000	29.000000	49.000000
0.500000	92.190000	9.690000	516.000000	0.000000	116.000000	64.000000	28.000000	45.000000
0.510000	92.420000	10.180000	516.000000	0.000000	117.000000	63.000000	23.000000	49.000000
0.520000	92.630000	10.710000	519.000000	0.000000	117.000000	63.000000	21.000000	53.000000
0.530000	92.830000	11.480000	526.000000	0.000000	119.000000	63.000000	20.000000	77.000000
0.540000	93.010000	12.500000	526.000000	0.000000	119.000000	63.000000	18.000000	102.000000
0.550000	93.090000	13.690000	532.000000	0.000000	118.000000	62.000000	8.000000	119.000000
0.560000	93.090000	14.410000	540.000000	0.000000	118.000000	62.000000	0.000000	72.000000
0.570000	93.090000	14.920000	546.000000	0.000000	117.000000	61.000000	0.000000	51.000000
0.580000	93.010000	15.290000	548.000000	0.000000	118.000000	60.000000	-8.000000	37.000000
0.590000	92.910000	15.460000	580.000000	0.000000	119.000000	60.000000	-10.000000	17.000000
0.600000	92.820000	15.460000	591.000000	0.000000	120.000000	58.000000	-9.000000	0.000000
0.610000	92.720000	15.400000	589.000000	0.000000	119.000000	58.000000	-10.000000	-6.000000
0.620000	92.600000	15.150000	588.000000	0.000000	120.000000	57.000000	-12.000000	-25.000000
0.630000	92.410000	14.620000	594.000000	0.000000	120.000000	57.000000	-19.000000	-53.000000
0.640000	92.180000	13.910000	589.000000	0.000000	119.000000	56.000000	-23.000000	-71.000000
0.650000	92.070000	13.060000	589.000000	0.000000	119.000000	56.000000	-11.000000	-85.000000
0.660000	91.970000	12.060000	591.000000	0.000000	119.000000	58.000000	-10.000000	-100.000000
0.670000	91.970000	10.960000	592.000000	0.000000	117.000000	58.000000	0.000000	-110.000000
0.680000	92.140000	10.200000	588.000000	0.000000	117.000000	59.000000	17.000000	-76.000000
0.690000	92.280000	9.600000	581.000000	0.000000	116.000000	60.000000	14.000000	-60.000000
0.700000	92.440000	9.110000	578.000000	0.000000	116.000000	60.000000	16.000000	-49.000000
0.710000	92.650000	8.680000	567.000000	0.000000	117.000000	61.000000	21.000000	-43.000000
0.720000	92.900000	8.410000	545.000000	0.000000	117.000000	61.000000	25.000000	-27.000000
0.730000	93.150000	8.250000	537.000000	0.000000	118.000000	62.000000	25.000000	-16.000000
0.740000	93.380000	8.250000	544.000000	0.000000	120.000000	62.000000	23.000000	0.000000
0.750000	93.590000	8.500000	527.000000	0.000000	120.000000	62.000000	21.000000	25.000000
0.760000	93.860000	8.950000	522.000000	0.000000	120.000000	62.000000	27.000000	45.000000
0.770000	94.150000	9.550000	515.000000	0.000000	122.000000	61.000000	29.000000	60.000000
0.780000	94.440000	10.130000	515.000000	0.000000	122.000000	61.000000	29.000000	58.000000
0.790000	94.680000	10.710000	522.000000	0.000000	119.000000	61.000000	24.000000	58.000000
0.800000	94.880000	11.230000	530.000000	0.000000	119.000000	61.000000	20.000000	52.000000
0.810000	95.050000	11.800000	537.000000	0.000000	119.000000	61.000000	17.000000	57.000000
0.820000	95.160000	12.410000	538.000000	0.000000	117.000000	61.000000	11.000000	61.000000
0.830000	95.240000	12.980000	539.000000	0.000000	117.000000	61.000000	8.000000	57.000000
0.840000	95.380000	13.510000	543.000000	0.000000	117.000000	61.000000	14.000000	53.000000
0.850000	95.440000	13.780000	563.000000	0.000000	117.000000	61.000000	6.000000	27.000000
0.860000	95.440000	13.880000	581.000000	0.000000	117.000000	61.000000	0.000000	10.000000
0.870000	95.390000	13.780000	589.000000	0.000000	119.000000	61.000000	-5.000000	-10.000000
0.880000	95.290000	13.360000	611.000000	0.000000	119.000000	61.000000	-10.000000	-42.000000
0.890000	95.150000	12.720000	613.000000	0.000000	119.000000	61.000000	-14.000000	-64.000000
0.900000	95.010000	11.780000	613.000000	0.000000	119.000000	61.000000	-14.000000	-94.000000
0.910000	94.870000	11.010000	611.000000	0.000000	119.000000	61.000000	-14.000000	-77.000000
0.920000	94.870000	10.350000	591.000000	0.000000	119.000000	61.000000	0.000000	-66.000000
0.930000	95.060000	9.890000	577.000000	0.000000	119.000000	61.000000	19.000000	-46.000000
0.940000	95.250000	9.590000	556.000000	0.000000	117.000000	61.000000	19.000000	-30.000000
0.950000	95.480000	9.400000	546.000000	0.000000	116.000000	60.000000	23.000000	-19.000000
0.960000	95.700000	9.310000	512.000000	0.000000	116.000000	60.000000	22.000000	-9.000000
0.970000	95.890000	9.440000	510.000000	0.000000	116.000000	60.000000	19.000000	13.000000
0.980000	96.090000	9.710000	501.000000	0.000000	115.000000	60.000000	20.000000	27.000000
0.990000	96.300000	10.080000	494.000000	0.000000	117.000000	59.000000	21.000000	37.000000
1.000000	96.450000	10.500000	494.000000	0.000000	118.000000	60.000000	15.000000	42.000000
1.010000	96.550000	10.960000	494.000000	0.000000	118.000000	60.000000	10.000000	46.000000
1.020000	96.660000	11.470000	514.000000	0.000000	118.000000	60.000000	11.000000	51.000000
1.030000	96.770000	11.970000	514.000000	0.000000	119.000000	61.000000	11.000000	50.000000
1.040000	96.870000	12.410000	520.000000	0.000000	119.000000	61.000000	10.000000	44.000000
1.050000	96.870000	12.660000	522.000000	0.000000	120.000000	62.000000	0.000000	25.000000
1.060000	96.870000	12.790000	540.000000	0.000000	120.000000	62.000000	0.000000	13.000000
1.070000	96.870000	12.790000	540.000000	0.000000	120.000000	62.000000	0.000000	0.000000
1.080000	96.870000	12.680000	543.000000	0.000000	120.000000	62.000000	0.000000	-11.000000
1.090000	96.870000	12.310000	546.000000	0.000000	120.000000	62.000000	0.000000	-37.000000
1.100000	96.780000	11.780000	564.000000	0.000000	121.000000	63.000000	-9.000000	-53.000000
1.110000	96.780000	11.170000	565.000000	0.000000	121.000000	63.000000	0.000000	-61.000000
1.120000	96.780000	10.720000	562.000000	0.000000	121.000000	63.000000	0.000000	-45.000000
1.130000	96.900000	10.390000	540.000000	0.000000	121.000000	63.000000	12.000000	-33.000000
1.140000	97.100000	10.260000	522.000000	0.000000	121.000000	63.000000	20.000000	-13.000000
1.150000	97.330000	10.260000	507.000000	0.000000	121.000000	63.000000	23.000000	0.000000
1.160000	97.560000	10.460000	491.000000	0.000000	121.000000	63.000000	23.000000	20.000000
1.170000	97.790000	10.780000	472.000000	0.000000	121.000000	63.000000	23.000000	32.000000
1.180000	98.020000	11.210000	466.000000	0.000000	121.000000	63.000000	23.000000	43.000000
1.190000	98.180000	11.710000	456.000000	0.000000	121.000000	63.000000	16.000000	50.000000
1.200000	98.300000	12.170000	460.000000	0.000000	121.000000	63.000000	12.000000	46.000000
1.210000	98.470000	12.570000	471.000000	0.000000	121.000000	63.000000	17.000000	40.000000
1.220000	98.620000	12.850000	473.000000	0.000000	122.000000	63.000000	15.000000	28.000000
1.230000	98.730000	12.950000	481.000000	0.000000	122.000000	63.000000	11.000000	10.000000
1.240000	98.800000	12.950000	496.000000	0.000000	124.000000	63.000000	7.000000	0.000000
1.250000	98.800000	12.840000	514.000000	0.000000	124.000000	63.000000	0.000000	-11.000000
1.260000	98.800000	12.420000	521.000000	0.000000	124.000000	63.000000	0.000000	-42.000000
1.270000	98.800000	11.790000	544.000000	0.000000	126.000000	62.000000	0.000000	-63.000000
1.280000	98.800000	11.080000	544.000000	0.000000	126.000000	62.000000	0.000000	-71.000000
1.290000	98.890000	10.580000	515.000000	0.000000	126.000000	62.000000	9.000000	-50.000000
1.300000	98.990000	10.210000	473.000000	0.000000	126.000000	62.000000	10.000000	-37.000000
1.310000	99.240000	10.090000	447.000000	0.000000	126.000000	62.000000	25.000000	-12.000000
1.320000	99.570000	10.200000	446.000000	0.000000	126.000000	62.000000	33.000000	11.000000
1.330000	99.930000	10.460000	428.000000	0.000000	126.000000	62.000000	36.000000	26.000000
1.340000	100.240000	10.910000	417.000000	0.000000	124.000000	62.000000	31.000000	45.000000
1.350000	100.410000	11.360000	400.000000	0.000000	124.000000	62.000000	17.000000	45.000000
1.360000	100.490000	11.770000	409.000000	0.000000	124.000000	62.000000	8.000000	41.000000
1.370000	100.550000	12.120000	422.000000	0.000000	124.000000	62.000000	6.000000	35.000000
1.380000	100.550000	12.340000	422.000000	0.000000	124.000000	62.000000	0.000000	22.000000
1.390000	100.620000	12.500000	433.000000	0.000000	124.000000	62.000000	7.000000	16.000000
1.400000	100.620000	12.500000	447.000000	0.000000	124.000000	62.000000	0.000000	0.000000
1.410000	100.620000	12.500000	453.000000	0.000000	124.000000	62.000000	0.000000	0.000000
1.420000	100.620000	12.380000	456.000000	0.000000	124.000000	62.000000	0.000000	-12.000000
1.430000	100.530000	12.090000	465.000000	0.000000	124.000000	62.000000	-9.000000	-29.000000
1.440000	100.480000	11.680000	465.000000	0.000000	124.000000	62.000000	-5.000000	-41.000000
1.450000	100.480000	11.240000	474.000000	0.000000	124.000000	62.000000	0.000000	-44.000000
1.460000	100.480000	10.950000	449.000000	0.000000	124.000000	62.000000	0.000000	-29.000000
1.470000	100.600000	10.750000	417.000000	0.000000	124.000000	62.000000	12.000000	-20.000000
1.480000	100.750000	10.750000	417.000000	0.000000	124.000000	62.000000	15.000000	0.000000
1.490000	100.920000	10.880000	414.000000	0.000000	124.000000	62.000000	17.000000	13.000000
1.500000	101.080000	11.060000	415.000000	0.000000	124.000000	62.000000	16.000000	18.000000
1.510000	101.230000	11.200000	415.000000	0.000000	124.000000	62.000000	15.000000	14.000000
1.520000	101.230000	11.260000	415.000000	0.000000	124.000000	62.000000	0.000000	6.000000
1.530000	101.280000	11.260000	423.000000	0.000000	124.000000	62.000000	5.000000	0.000000
1.540000	101.280000	11.390000	418.000000	0.000000	124.000000	62.000000	0.000000	13.000000
1.550000	101.380000	11.570000	413.000000	0.000000	124.000000	62.000000	10.000000	18.000000
1.560000	101.490000	11.800000	420.000000	0.000000	124.000000	62.000000	11.000000	23.000000
1.570000	101.630000	12.030000	436.000000	0.000000	124.000000	62.000000	14.000000	23.000000
1.580000	101.770000	12.030000	449.000000	0.000000	124.000000	62.000000	14.000000	0.000000
1.590000	101.840000	11.970000	466.000000	0.000000	126.000000	61.000000	7.000000	-6.000000
1.600000	101.840000	11.760000	477.000000	0.000000	126.000000	61.000000	0.000000	-21.000000
1.610000	101.840000	11.470000	481.000000	0.000000	126.000000	61.000000	0.000000	-29.000000
1.620000	101.840000	11.140000	473.000000	0.000000	126.000000	61.000000	0.000000	-33.000000
1.630000	101.950000	11.060000	458.000000	0.000000	126.000000	61.000000	11.000000	-8.000000
1.640000	102.050000	11.190000	439.000000	0.000000	126.000000	61.000000	10.000000	13.000000
1.650000	102.280000	11.450000	423.000000	0.000000	126.000000	61.000000	23.000000	26.000000
1.660000	102.580000	11.980000	410.000000	0.000000	126.000000	61.000000	30.000000	53.000000
1.670000	102.900000	12.520000	407.000000	0.000000	126.000000	61.000000	32.000000	54.000000
1.680000	103.180000	13.060000	410.000000	0.000000	128.000000	61.000000	28.000000	54.000000
1.690000	103.380000	13.450000	413.000000	0.000000	128.000000	61.000000	20.000000	39.000000
1.700000	103.540000	13.840000	423.000000	0.000000	129.000000	60.000000	16.000000	39.000000
1.710000	103.780000	14.290000	435.000000	0.000000	131.000000	60.000000	24.000000	45.000000
1.720000	104.050000	14.790000	449.000000	0.000000	132.000000	59.000000	27.000000	50.000000
1.730000	104.360000	15.380000	460.000000	0.000000	134.000000	58.000000	31.000000	59.000000
1.740000	104.690000	16.110000	464.000000	0.000000	136.000000	58.000000	33.000000	73.000000
1.750000	104.970000	16.930000	464.000000	0.000000	138.000000	58.000000	28.000000	82.000000
1.760000	105.220000	17.740000	468.000000	0.000000	138.000000	58.000000	25.000000	81.000000
1.770000	105.470000	18.350000	473.000000	0.000000	138.000000	58.000000	25.000000	61.000000
1.780000	105.650000	18.830000	483.000000	0.000000	138.000000	59.000000	18.000000	48.000000
1.790000	105.780000	19.140000	504.000000	0.000000	138.000000	59.000000	13.000000	31.000000
1.800000	105.900000	19.210000	544.000000	0.000000	136.000000	60.000000	12.000000	7.000000
1.810000	105.900000	19.130000	574.000000	0.000000	135.000000	60.000000	0.000000	-8.000000
1.820000	105.900000	18.850000	592.000000	0.000000	134.000000	61.000000	0.000000	-28.000000
1.830000	105.900000	18.240000	616.000000	0.000000	134.000000	61.000000	0.000000	-61.000000
1.840000	105.850000	17.410000	616.000000	0.000000	134.000000	61.000000	-5.000000	-83.000000
1.850000	105.850000	16.310000	636.000000	0.000000	134.000000	61.000000	0.000000	-110.000000
1.860000	105.850000	15.250000	644.000000	0.000000	135.000000	60.000000	0.000000	-106.000000
1.870000	106.030000	14.220000	664.000000	0.000000	136.000000	60.000000	18.000000	-103.000000
1.880000	106.320000	12.950000	690.000000	0.000000	139.000000	60.000000	29.000000	-127.000000
1.890000	106.570000	11.690000	722.000000	0.000000	141.000000	59.000000	25.000000	-126.000000
1.900000	106.700000	10.490000	730.000000	0.000000	141.000000	59.000000	13.000000	-120.000000
1.910000	106.750000	9.530000	745.000000	0.000000	143.000000	59.000000	5.000000	-96.000000
1.920000	106.750000	8.690000	740.000000	0.000000	143.000000	59.000000	0.000000	-84.000000
1.930000	106.750000	8.000000	745.000000	0.000000	144.000000	58.000000	0.000000	-69.000000
1.940000	106.610000	7.370000	751.000000	0.000000	146.000000	58.000000	-14.000000	-63.000000
1.950000	106.360000	6.780000	763.000000	0.000000	146.000000	58.000000	-25.000000	-59.000000
1.960000	106.070000	6.310000	753.000000	0.000000	147.000000	59.000000	-29.000000	-47.000000
1.970000	105.750000	5.900000	750.000000	0.000000	147.000000	59.000000	-32.000000	-41.000000
1.980000	105.210000	5.520000	759.000000	0.000000	146.000000	60.000000	-54.000000	-38.000000
1.990000	104.390000	5.140000	776.000000	0.000000	146.000000	60.000000	-82.000000	-38.000000
2.000000	103.390000	4.920000	776.000000	0.000000	145.000000	60.000000	-100.000000	-22.000000
2.010000	102.360000	4.810000	762.000000	0.000000	144.000000	61.000000	-103.000000	-11.000000
2.020000	101.260000	4.690000	760.000000	0.000000	140.000000	62.000000	-110.000000	-12.000000
2.030000	100.110000	4.690000	761.000000	0.000000	137.000000	63.000000	-115.000000	0.000000
2.040000	98.800000	4.880000	746.000000	0.000000	133.000000	63.000000	-131.000000	19.000000
2.050000	97.400000	5.190000	737.000000	0.000000	129.000000	64.000000	-140.000000	31.000000
2.060000	95.940000	5.900000	703.000000	0.000000	127.000000	64.000000	-146.000000	71.000000
2.070000	94.690000	6.880000	676.000000	0.000000	125.000000	64.000000	-125.000000	98.000000
2.080000	93.470000	7.940000	627.000000	0.000000	125.000000	64.000000	-122.000000	106.000000
2.090000	92.530000	8.960000	613.000000	0.000000	124.000000	63.000000	-94.000000	102.000000
2.100000	91.770000	9.930000	585.000000	0.000000	125.000000	64.000000	-76.000000	97.000000
2.110000	91.260000	10.910000	574.000000	0.000000	125.000000	64.000000	-51.000000	98.000000
2.120000	91.050000	12.080000	588.000000	0.000000	125.000000	64.000000	-21.000000	117.000000
2.130000	91.050000	13.360000	599.000000	0.000000	127.000000	63.000000	0.000000	128.000000
2.140000	91.340000	14.540000	631.000000	0.000000	127.000000	63.000000	29.000000	118.000000
2.150000	92.010000	15.720000	641.000000	0.000000	129.000000	63.000000	67.000000	118.000000
2.160000	92.930000	16.870000	667.000000	0.000000	129.000000	63.000000	92.000000	115.000000
2.170000	94.190000	18.000000	691.000000	0.000000	129.000000	61.000000	126.000000	113.000000
2.180000	95.470000	18.830000	703.000000	0.000000	129.000000	61.000000	128.000000	83.000000
2.190000	96.810000	19.490000	710.000000	0.000000	131.000000	61.000000	134.000000	66.000000
