t	x	y	pressure	penup	azimuth	inclination	v_x	v_y
0.000000	17.120000	32.380000	5.000000	1.000000	136.000000	61.000000	0.000000	0.000000
0.010000	17.120000	32.380000	112.000000	1.000000	134.000000	61.000000	0.000000	0.000000
0.020000	17.120000	32.690000	211.000000	0.000000	134.000000	61.000000	0.000000	31.000000
0.030000	17.120000	32.810000	315.000000	0.000000	134.000000	61.000000	0.000000	12.000000
0.040000	17.120000	32.940000	396.000000	0.000000	134.000000	61.000000	0.000000	13.000000
0.050000	17.120000	33.070000	418.000000	0.000000	134.000000	61.000000	0.000000	13.000000
0.060000	17.180000	33.230000	477.000000	0.000000	134.000000	61.000000	6.000000	16.000000
0.070000	17.230000	33.400000	519.000000	0.000000	134.000000	61.000000	5.000000	17.000000
0.080000	17.280000	33.570000	546.000000	0.000000	132.000000	60.000000	5.000000	17.000000
0.090000	17.340000	33.700000	589.000000	0.000000	132.000000	60.000000	6.000000	13.000000
0.100000	17.340000	33.760000	627.000000	0.000000	132.000000	60.000000	0.000000	6.000000
0.110000	17.400000	33.760000	670.000000	0.000000	132.000000	60.000000	6.000000	0.000000
0.120000	17.400000	33.680000	745.000000	0.000000	132.000000	60.000000	0.000000	-8.000000
0.130000	17.400000	33.280000	808.000000	0.000000	132.000000	60.000000	0.000000	-40.000000
0.140000	17.400000	32.670000	855.000000	0.000000	132.000000	60.000000	0.000000	-61.000000
0.150000	17.280000	31.660000	866.000000	0.000000	134.000000	61.000000	-12.000000	-101.000000
0.160000	17.120000	30.600000	876.000000	0.000000	134.000000	61.000000	-16.000000	-106.000000
0.170000	16.970000	29.410000	891.000000	0.000000	134.000000	61.000000	-15.000000	-119.000000
0.180000	16.820000	28.340000	894.000000	0.000000	134.000000	61.000000	-15.000000	-107.000000
0.190000	16.690000	27.350000	900.000000	0.000000	132.000000	61.000000	-13.000000	-99.000000
0.200000	16.580000	26.590000	900.000000	0.000000	132.000000	61.000000	-11.000000	-76.000000
0.210000	16.490000	26.170000	897.000000	0.000000	130.000000	62.000000	-9.000000	-42.000000
0.220000	16.490000	25.980000	897.000000	0.000000	129.000000	63.000000	0.000000	-19.000000
0.230000	16.490000	25.980000	899.000000	0.000000	127.000000	63.000000	0.000000	0.000000
0.240000	16.490000	26.190000	888.000000	0.000000	125.000000	64.000000	0.000000	21.000000
0.250000	16.490000	26.570000	879.000000	0.000000	124.000000	64.000000	0.000000	38.000000
0.260000	16.670000	27.400000	861.000000	0.000000	124.000000	64.000000	18.000000	83.000000
0.270000	16.790000	28.280000	854.000000	0.000000	124.000000	64.000000	12.000000	88.000000
0.280000	16.900000	29.190000	853.000000	0.000000	124.000000	64.000000	11.000000	91.000000
0.290000	17.000000	29.840000	854.000000	0.000000	124.000000	63.000000	10.000000	65.000000
0.300000	17.100000	30.440000	861.000000	0.000000	124.000000	63.000000	10.000000	60.000000
0.310000	17.200000	31.030000	851.000000	0.000000	126.000000	62.000000	10.000000	59.000000
0.320000	17.330000	31.630000	836.000000	0.000000	127.000000	62.000000	13.000000	60.000000
0.330000	17.490000	32.110000	833.000000	0.000000	128.000000	61.000000	16.000000	48.000000
0.340000	17.660000	32.560000	834.000000	0.000000	131.000000	61.000000	17.000000	45.000000
0.350000	17.810000	32.920000	840.000000	0.000000	131.000000	61.000000	15.000000	36.000000
0.360000	17.810000	32.980000	852.000000	0.000000	131.000000	61.000000	0.000000	6.000000
0.370000	17.810000	32.860000	869.000000	0.000000	132.000000	60.000000	0.000000	-12.000000
0.380000	17.680000	32.320000	872.000000	0.000000	132.000000	60.000000	-13.000000	-54.000000
0.390000	17.570000	31.520000	882.000000	0.000000	132.000000	60.000000	-11.000000	-80.000000
0.400000	17.500000	30.550000	873.000000	0.000000	132.000000	60.000000	-7.000000	-97.000000
0.410000	17.620000	29.570000	855.000000	0.000000	131.000000	61.000000	12.000000	-98.000000
0.420000	17.860000	28.630000	851.000000	0.000000	131.000000	61.000000	24.000000	-94.000000
0.430000	18.200000	27.950000	845.000000	0.000000	131.000000	61.000000	34.000000	-68.000000
0.440000	18.350000	27.430000	843.000000	0.000000	130.000000	62.000000	15.000000	-52.000000
0.450000	18.350000	27.210000	845.000000	0.000000	130.000000	62.000000	0.000000	-22.000000
0.460000	18.350000	27.210000	855.000000	0.000000	129.000000	63.000000	0.000000	0.000000
0.470000	18.250000	27.370000	834.000000	0.000000	129.000000	63.000000	-10.000000	16.000000
0.480000	18.070000	27.790000	787.000000	0.000000	127.000000	63.000000	-18.000000	42.000000
0.490000	17.720000	28.290000	728.000000	0.000000	127.000000	63.000000	-35.000000	50.000000
0.500000	17.350000	28.850000	684.000000	0.000000	127.000000	63.000000	-37.000000	56.000000
0.510000	16.970000	29.200000	690.000000	0.000000	127.000000	63.000000	-38.000000	35.000000
0.520000	16.690000	29.510000	699.000000	0.000000	126.000000	62.000000	-28.000000	31.000000
0.530000	16.410000	29.660000	714.000000	0.000000	127.000000	62.000000	-28.000000	15.000000
0.540000	16.340000	29.730000	717.000000	0.000000	126.000000	61.000000	-7.000000	7.000000
0.550000	16.400000	29.730000	716.000000	0.000000	126.000000	61.000000	6.000000	0.000000
0.560000	16.630000	29.650000	717.000000	0.000000	128.000000	61.000000	23.000000	-8.000000
0.570000	17.020000	29.530000	728.000000	0.000000	126.000000	60.000000	39.000000	-12.000000
0.580000	17.510000	29.410000	736.000000	0.000000	126.000000	60.000000	49.000000	-12.000000
0.590000	18.020000	29.320000	757.000000	0.000000	126.000000	60.000000	51.000000	-9.000000
0.600000	18.550000	29.270000	770.000000	0.000000	129.000000	60.000000	53.000000	-5.000000
0.610000	19.090000	29.350000	780.000000	0.000000	129.000000	60.000000	54.000000	8.000000
0.620000	19.620000	29.530000	797.000000	0.000000	129.000000	60.000000	53.000000	18.000000
0.630000	19.930000	29.700000	828.000000	0.000000	131.000000	61.000000	31.000000	17.000000
0.640000	20.110000	29.860000	858.000000	0.000000	131.000000	61.000000	18.000000	16.000000
0.650000	20.210000	30.010000	872.000000	0.000000	132.000000	61.000000	10.000000	15.000000
0.660000	20.210000	30.140000	900.000000	0.000000	132.000000	61.000000	0.000000	13.000000
0.670000	20.210000	30.140000	905.000000	0.000000	132.000000	61.000000	0.000000	0.000000
0.680000	20.210000	30.140000	906.000000	0.000000	132.000000	61.000000	0.000000	0.000000
0.690000	20.210000	29.910000	911.000000	0.000000	132.000000	61.000000	0.000000	-23.000000
0.700000	20.270000	29.590000	914.000000	0.000000	132.000000	61.000000	6.000000	-32.000000
0.710000	20.360000	29.250000	915.000000	0.000000	130.000000	62.000000	9.000000	-34.000000
0.720000	20.530000	28.900000	914.000000	0.000000	130.000000	62.000000	17.000000	-35.000000
0.730000	20.750000	28.650000	903.000000	0.000000	130.000000	62.000000	22.000000	-25.000000
0.740000	21.030000	28.460000	903.000000	0.000000	130.000000	62.000000	28.000000	-19.000000
0.750000	21.330000	28.460000	908.000000	0.000000	132.000000	63.000000	30.000000	0.000000
0.760000	21.630000	28.610000	906.000000	0.000000	130.000000	63.000000	30.000000	15.000000
0.770000	21.950000	28.810000	914.000000	0.000000	130.000000	63.000000	32.000000	20.000000
0.780000	22.280000	29.210000	920.000000	0.000000	130.000000	63.000000	33.000000	40.000000
0.790000	22.520000	29.580000	930.000000	0.000000	132.000000	64.000000	24.000000	37.000000
0.800000	22.700000	29.890000	946.000000	0.000000	132.000000	64.000000	18.000000	31.000000
0.810000	22.700000	29.890000	968.000000	0.000000	132.000000	64.000000	0.000000	0.000000
0.820000	22.700000	29.890000	967.000000	0.000000	132.000000	64.000000	0.000000	0.000000
0.830000	22.700000	29.890000	968.000000	0.000000	132.000000	64.000000	0.000000	0.000000
0.840000	22.700000	29.890000	974.000000	0.000000	132.000000	64.000000	0.000000	0.000000
0.850000	22.780000	29.330000	970.000000	0.000000	133.000000	63.000000	8.000000	-56.000000
0.860000	22.780000	29.000000	967.000000	0.000000	133.000000	63.000000	0.000000	-33.000000
0.870000	22.960000	28.760000	965.000000	0.000000	133.000000	63.000000	18.000000	-24.000000
0.880000	23.110000	28.590000	973.000000	0.000000	132.000000	64.000000	15.000000	-17.000000
0.890000	23.240000	28.590000	991.000000	0.000000	132.000000	64.000000	13.000000	0.000000
0.900000	23.370000	28.590000	991.000000	0.000000	132.000000	64.000000	13.000000	0.000000
0.910000	23.500000	28.730000	1000.000000	0.000000	133.000000	65.000000	13.000000	14.000000
0.920000	23.720000	29.010000	999.000000	0.000000	133.000000	65.000000	22.000000	28.000000
0.930000	23.960000	29.290000	997.000000	0.000000	133.000000	65.000000	24.000000	28.000000
0.940000	24.190000	29.570000	1000.000000	0.000000	133.000000	65.000000	23.000000	28.000000
0.950000	24.270000	29.630000	1000.000000	0.000000	133.000000	65.000000	8.000000	6.000000
0.960000	24.270000	29.630000	1000.000000	0.000000	133.000000	65.000000	0.000000	0.000000
0.970000	24.320000	29.630000	1005.000000	0.000000	133.000000	65.000000	5.000000	0.000000
0.980000	24.380000	29.480000	1012.000000	0.000000	133.000000	65.000000	6.000000	-15.000000
0.990000	24.440000	29.240000	1012.000000	0.000000	133.000000	65.000000	6.000000	-24.000000
1.000000	24.540000	28.940000	1011.000000	0.000000	133.000000	65.000000	10.000000	-30.000000
1.010000	24.670000	28.680000	1008.000000	0.000000	135.000000	65.000000	13.000000	-26.000000
1.020000	24.870000	28.540000	1009.000000	0.000000	135.000000	65.000000	20.000000	-14.000000
1.030000	25.110000	28.470000	1023.000000	0.000000	135.000000	65.000000	24.000000	-7.000000
1.040000	25.360000	28.470000	1023.000000	0.000000	133.000000	66.000000	25.000000	0.000000
1.050000	25.610000	28.530000	1023.000000	0.000000	133.000000	66.000000	25.000000	6.000000
1.060000	25.860000	28.660000	1023.000000	0.000000	135.000000	67.000000	25.000000	13.000000
1.070000	26.120000	28.940000	1023.000000	0.000000	135.000000	67.000000	26.000000	28.000000
1.080000	26.360000	29.200000	1023.000000	0.000000	135.000000	67.000000	24.000000	26.000000
1.090000	26.490000	29.430000	1023.000000	0.000000	135.000000	67.000000	13.000000	23.000000
1.100000	26.540000	29.600000	1023.000000	0.000000	135.000000	67.000000	5.000000	17.000000
1.110000	26.540000	29.600000	1023.000000	0.000000	135.000000	67.000000	0.000000	0.000000
1.120000	26.540000	29.600000	1023.000000	0.000000	139.000000	67.000000	0.000000	0.000000
1.130000	26.540000	29.510000	1023.000000	0.000000	139.000000	67.000000	0.000000	-9.000000
1.140000	26.630000	29.290000	1023.000000	0.000000	139.000000	67.000000	9.000000	-22.000000
1.150000	26.720000	28.980000	1023.000000	0.000000	139.000000	67.000000	9.000000	-31.000000
1.160000	26.880000	28.760000	1023.000000	0.000000	139.000000	67.000000	16.000000	-22.000000
1.170000	27.110000	28.630000	1023.000000	0.000000	137.000000	66.000000	23.000000	-13.000000
1.180000	27.380000	28.560000	1023.000000	0.000000	135.000000	67.000000	27.000000	-7.000000
1.190000	27.620000	28.560000	1023.000000	0.000000	133.000000	66.000000	24.000000	0.000000
1.200000	27.790000	28.560000	1023.000000	0.000000	133.000000	66.000000	17.000000	0.000000
1.210000	27.900000	28.680000	1023.000000	0.000000	133.000000	66.000000	11.000000	12.000000
1.220000	28.030000	28.800000	1023.000000	0.000000	132.000000	65.000000	13.000000	12.000000
1.230000	28.160000	29.010000	997.000000	0.000000	132.000000	65.000000	13.000000	21.000000
1.240000	28.300000	29.270000	944.000000	0.000000	132.000000	65.000000	14.000000	26.000000
1.250000	28.370000	29.450000	845.000000	0.000000	132.000000	65.000000	7.000000	18.000000
1.260000	28.370000	29.610000	757.000000	0.000000	132.000000	65.000000	0.000000	16.000000
1.270000	28.440000	29.690000	705.000000	0.000000	132.000000	65.000000	7.000000	8.000000
1.280000	28.440000	29.690000	652.000000	0.000000	132.000000	65.000000	0.000000	0.000000
1.290000	28.390000	29.690000	639.000000	0.000000	132.000000	65.000000	-5.000000	0.000000
1.300000	28.390000	29.690000	634.000000	0.000000	133.000000	65.000000	0.000000	0.000000
1.310000	28.330000	29.690000	636.000000	0.000000	133.000000	65.000000	-6.000000	0.000000
1.320000	28.330000	29.690000	670.000000	0.000000	133.000000	65.000000	0.000000	0.000000
1.330000	28.330000	29.690000	684.000000	0.000000	133.000000	65.000000	0.000000	0.000000
1.340000	28.380000	29.690000	702.000000	0.000000	133.000000	65.000000	5.000000	0.000000
1.350000	28.380000	29.690000	736.000000	0.000000	133.000000	65.000000	0.000000	0.000000
1.360000	28.380000	29.690000	753.000000	0.000000	133.000000	65.000000	0.000000	0.000000
1.370000	28.380000	29.690000	768.000000	0.000000	132.000000	64.000000	0.000000	0.000000
1.380000	28.380000	29.690000	774.000000	0.000000	132.000000	64.000000	0.000000	0.000000
1.390000	28.380000	29.640000	771.000000	0.000000	132.000000	64.000000	0.000000	-5.000000
1.400000	28.380000	29.640000	776.000000	0.000000	132.000000	64.000000	0.000000	0.000000
1.410000	28.380000	29.640000	794.000000	0.000000	132.000000	64.000000	0.000000	0.000000
1.420000	28.380000	29.640000	808.000000	0.000000	132.000000	64.000000	0.000000	0.000000
1.430000	28.380000	29.640000	833.000000	0.000000	132.000000	64.000000	0.000000	0.000000
1.440000	28.430000	29.640000	866.000000	0.000000	132.000000	64.000000	5.000000	0.000000
1.450000	28.430000	29.640000	869.000000	0.000000	132.000000	64.000000	0.000000	0.000000
1.460000	28.480000	29.700000	853.000000	0.000000	132.000000	64.000000	5.000000	6.000000
1.470000	28.480000	29.700000	867.000000	0.000000	132.000000	64.000000	0.000000	0.000000
1.480000	28.480000	29.700000	861.000000	0.000000	132.000000	64.000000	0.000000	0.000000
1.490000	28.480000	29.750000	860.000000	0.000000	132.000000	64.000000	0.000000	5.000000
1.500000	28.480000	29.750000	860.000000	0.000000	132.000000	64.000000	0.000000	0.000000
1.510000	28.480000	29.750000	863.000000	0.000000	133.000000	65.000000	0.000000	0.000000
1.520000	28.480000	29.750000	864.000000	0.000000	133.000000	65.000000	0.000000	0.000000
1.530000	28.480000	29.750000	854.000000	0.000000	133.000000	65.000000	0.000000	0.000000
1.540000	28.540000	29.640000	878.000000	0.000000	133.000000	65.000000	6.000000	-11.000000
1.550000	28.600000	29.540000	884.000000	0.000000	133.000000	65.000000	6.000000	-10.000000
1.560000	28.680000	29.390000	905.000000	0.000000	133.000000	65.000000	8.000000	-15.000000
1.570000	28.760000	29.170000	894.000000	0.000000	133.000000	65.000000	8.000000	-22.000000
1.580000	28.860000	28.900000	912.000000	0.000000	133.000000	65.000000	10.000000	-27.000000
1.590000	29.000000	28.720000	924.000000	0.000000	132.000000	65.000000	14.000000	-18.000000
1.600000	29.150000	28.580000	926.000000	0.000000	132.000000	65.000000	15.000000	-14.000000
1.610000	29.320000	28.480000	903.000000	0.000000	132.000000	65.000000	17.000000	-10.000000
1.620000	29.510000	28.480000	819.000000	0.000000	132.000000	65.000000	19.000000	0.000000
1.630000	29.690000	28.480000	583.000000	0.000000	130.000000	66.000000	18.000000	0.000000
1.640000	29.690000	28.480000	0.000000	1.000000	130.000000	66.000000	0.000000	0.000000
1.650000	29.900000	28.930000	0.000000	0.000000	131.000000	67.000000	21.000000	45.000000
1.660000	29.900000	29.330000	0.000000	0.000000	131.000000	67.000000	0.000000	40.000000
1.670000	29.900000	29.790000	0.000000	0.000000	131.000000	67.000000	0.000000	46.000000
1.680000	29.900000	30.280000	0.000000	0.000000	131.000000	67.000000	0.000000	49.000000
1.690000	29.850000	30.690000	0.000000	0.000000	131.000000	67.000000	-5.000000	41.000000
1.700000	29.720000	30.910000	0.000000	0.000000	131.000000	67.000000	-13.000000	22.000000
1.710000	29.500000	31.050000	0.000000	0.000000	133.000000	66.000000	-22.000000	14.000000
1.720000	29.400000	31.140000	0.000000	0.000000	133.000000	66.000000	-10.000000	9.000000
1.730000	29.400000	31.140000	472.000000	1.000000	132.000000	65.000000	0.000000	0.000000
1.740000	29.400000	31.140000	588.000000	0.000000	133.000000	65.000000	0.000000	0.000000
1.750000	29.060000	31.340000	687.000000	0.000000	133.000000	65.000000	-34.000000	20.000000
1.760000	29.060000	31.340000	662.000000	0.000000	133.000000	65.000000	0.000000	0.000000
1.770000	29.060000	31.340000	516.000000	0.000000	135.000000	64.000000	0.000000	0.000000
1.780000	29.130000	31.250000	1.000000	1.000000	135.000000	64.000000	0.000000	0.000000
1.790000	29.130000	31.250000	0.000000	0.000000	135.000000	64.000000	0.000000	0.000000
1.800000	29.330000	30.990000	0.000000	0.000000	135.000000	64.000000	20.000000	-26.000000
1.810000	29.510000	30.940000	0.000000	0.000000	135.000000	64.000000	18.000000	-5.000000
1.820000	29.700000	30.940000	0.000000	0.000000	135.000000	64.000000	19.000000	0.000000
1.830000	30.050000	30.840000	0.000000	0.000000	133.000000	63.000000	35.000000	-10.000000
1.840000	30.400000	30.710000	0.000000	0.000000	133.000000	63.000000	35.000000	-13.000000
1.850000	30.720000	30.560000	0.000000	0.000000	133.000000	63.000000	32.000000	-15.000000
1.860000	30.940000	30.410000	0.000000	0.000000	133.000000	63.000000	22.000000	-15.000000
1.870000	31.100000	30.270000	0.000000	0.000000	132.000000	64.000000	16.000000	-14.000000
1.880000	31.210000	30.180000	0.000000	0.000000	132.000000	64.000000	11.000000	-9.000000
1.890000	31.330000	30.120000	0.000000	0.000000	132.000000	64.000000	12.000000	-6.000000
1.900000	31.460000	30.120000	0.000000	0.000000	132.000000	64.000000	13.000000	0.000000
1.910000	31.460000	30.120000	444.000000	1.000000	130.000000	65.000000	0.000000	0.000000
1.920000	31.460000	30.120000	530.000000	0.000000	130.000000	65.000000	0.000000	0.000000
1.930000	31.580000	30.470000	700.000000	0.000000	130.000000	65.000000	12.000000	35.000000
1.940000	31.520000	30.600000	763.000000	0.000000	132.000000	65.000000	-6.000000	13.000000
1.950000	31.520000	30.600000	787.000000	0.000000	132.000000	65.000000	0.000000	0.000000
1.960000	31.410000	30.550000	818.000000	0.000000	132.000000	65.000000	-11.000000	-5.000000
1.970000	31.320000	30.290000	857.000000	0.000000	132.000000	65.000000	-9.000000	-26.000000
1.980000	31.260000	29.900000	866.000000	0.000000	133.000000	65.000000	-6.000000	-39.000000
1.990000	31.260000	29.500000	873.000000	0.000000	133.000000	65.000000	0.000000	-40.000000
2.000000	31.380000	29.050000	885.000000	0.000000	132.000000	65.000000	12.000000	-45.000000
2.010000	31.650000	28.630000	896.000000	0.000000	132.000000	65.000000	27.000000	-42.000000
2.020000	32.020000	28.240000	892.000000	0.000000	132.000000	65.000000	37.000000	-39.000000
2.030000	32.520000	28.050000	911.000000	0.000000	130.000000	66.000000	50.000000	-19.000000
2.040000	33.040000	28.050000	941.000000	0.000000	131.000000	67.000000	52.000000	0.000000
2.050000	33.480000	28.220000	962.000000	0.000000	131.000000	67.000000	44.000000	17.000000
2.060000	33.860000	28.490000	976.000000	0.000000	131.000000	67.000000	38.000000	27.000000
2.070000	34.130000	28.810000	981.000000	0.000000	133.000000	67.000000	27.000000	32.000000
2.080000	34.270000	29.170000	1015.000000	0.000000	133.000000	67.000000	14.000000	36.000000
2.090000	34.270000	29.310000	1023.000000	0.000000	133.000000	67.000000	0.000000	14.000000
2.100000	34.270000	29.410000	1023.000000	0.000000	133.000000	67.000000	0.000000	10.000000
2.110000	34.270000	29.410000	1020.000000	0.000000	133.000000	67.000000	0.000000	0.000000
2.120000	34.270000	29.310000	1003.000000	0.000000	133.000000	67.000000	0.000000	-10.000000
2.130000	34.270000	29.100000	988.000000	0.000000	133.000000	67.000000	0.000000	-21.000000
2.140000	34.270000	28.750000	997.000000	0.000000	133.000000	67.000000	0.000000	-35.000000
2.150000	34.430000	28.390000	991.000000	0.000000	135.000000	68.000000	16.000000	-36.000000
2.160000	34.660000	28.080000	977.000000	0.000000	135.000000	68.000000	23.000000	-31.000000
2.170000	34.950000	27.910000	996.000000	0.000000	135.000000	68.000000	29.000000	-17.000000
2.180000	35.380000	27.820000	1023.000000	0.000000	133.000000	69.000000	43.000000	-9.000000
2.190000	35.900000	28.000000	1023.000000	0.000000	133.000000	69.000000	52.000000	18.000000
2.200000	36.390000	28.360000	1023.000000	0.000000	135.000000	69.000000	49.000000	36.000000
2.210000	36.690000	28.830000	1023.000000	0.000000	135.000000	69.000000	30.000000	47.000000
