t	x	y	pressure	penup	azimuth	inclination	v_x	v_y
0.000000	49.320000	43.800000	50.000000	1.000000	143.000000	56.000000	0.000000	0.000000
0.010000	49.210000	43.110000	108.000000	0.000000	143.000000	56.000000	-11.000000	-69.000000
0.020000	49.070000	42.880000	139.000000	0.000000	143.000000	56.000000	-14.000000	-23.000000
0.030000	48.990000	42.630000	237.000000	0.000000	143.000000	56.000000	-8.000000	-25.000000
0.040000	48.940000	42.360000	337.000000	0.000000	143.000000	56.000000	-5.000000	-27.000000
0.050000	48.940000	42.360000	418.000000	0.000000	141.000000	56.000000	0.000000	0.000000
0.060000	48.940000	42.360000	522.000000	0.000000	141.000000	56.000000	0.000000	0.000000
0.070000	48.940000	42.360000	605.000000	0.000000	140.000000	55.000000	0.000000	0.000000
0.080000	48.940000	42.360000	645.000000	0.000000	140.000000	55.000000	0.000000	0.000000
0.090000	49.320000	42.900000	667.000000	0.000000	139.000000	55.000000	38.000000	54.000000
0.100000	49.670000	43.720000	696.000000	0.000000	138.000000	55.000000	35.000000	82.000000
0.110000	50.050000	44.740000	710.000000	0.000000	138.000000	55.000000	38.000000	102.000000
0.120000	50.360000	45.900000	696.000000	0.000000	138.000000	55.000000	31.000000	116.000000
0.130000	50.620000	47.310000	700.000000	0.000000	138.000000	55.000000	26.000000	141.000000
0.140000	50.830000	48.800000	703.000000	0.000000	139.000000	55.000000	21.000000	149.000000
0.150000	50.910000	50.350000	705.000000	0.000000	139.000000	55.000000	8.000000	155.000000
0.160000	50.910000	51.220000	707.000000	0.000000	140.000000	54.000000	0.000000	87.000000
0.170000	50.910000	51.690000	716.000000	0.000000	141.000000	53.000000	0.000000	47.000000
0.180000	50.910000	51.890000	722.000000	0.000000	142.000000	53.000000	0.000000	20.000000
0.190000	50.910000	51.950000	722.000000	0.000000	144.000000	51.000000	0.000000	6.000000
0.200000	50.910000	51.950000	721.000000	0.000000	145.000000	51.000000	0.000000	0.000000
0.210000	50.910000	51.680000	730.000000	0.000000	146.000000	50.000000	0.000000	-27.000000
0.220000	51.000000	51.250000	730.000000	0.000000	148.000000	50.000000	9.000000	-43.000000
0.230000	51.150000	50.350000	757.000000	0.000000	148.000000	50.000000	15.000000	-90.000000
0.240000	51.370000	48.830000	776.000000	0.000000	148.000000	50.000000	22.000000	-152.000000
0.250000	51.560000	46.910000	790.000000	0.000000	147.000000	51.000000	19.000000	-192.000000
0.260000	51.660000	45.270000	809.000000	0.000000	146.000000	52.000000	10.000000	-164.000000
0.270000	51.720000	43.920000	830.000000	0.000000	145.000000	53.000000	6.000000	-135.000000
0.280000	51.930000	42.770000	834.000000	0.000000	143.000000	53.000000	21.000000	-115.000000
0.290000	52.140000	42.300000	853.000000	0.000000	145.000000	54.000000	21.000000	-47.000000
0.300000	52.280000	42.070000	861.000000	0.000000	144.000000	54.000000	14.000000	-23.000000
0.310000	52.380000	42.000000	897.000000	0.000000	143.000000	55.000000	10.000000	-7.000000
0.320000	52.380000	42.000000	923.000000	0.000000	143.000000	55.000000	0.000000	0.000000
0.330000	52.380000	42.140000	929.000000	0.000000	143.000000	55.000000	0.000000	14.000000
0.340000	52.200000	42.320000	914.000000	0.000000	143.000000	55.000000	-18.000000	18.000000
0.350000	51.950000	43.020000	912.000000	0.000000	141.000000	56.000000	-25.000000	70.000000
0.360000	51.680000	44.150000	908.000000	0.000000	141.000000	56.000000	-27.000000	113.000000
0.370000	51.380000	45.570000	905.000000	0.000000	141.000000	56.000000	-30.000000	142.000000
0.380000	50.990000	46.680000	908.000000	0.000000	141.000000	56.000000	-39.000000	111.000000
0.390000	50.540000	47.390000	902.000000	0.000000	140.000000	55.000000	-45.000000	71.000000
0.400000	50.220000	47.830000	900.000000	0.000000	141.000000	55.000000	-32.000000	44.000000
0.410000	50.080000	47.990000	902.000000	0.000000	141.000000	55.000000	-14.000000	16.000000
0.420000	50.080000	47.990000	890.000000	0.000000	142.000000	54.000000	0.000000	0.000000
0.430000	50.080000	47.990000	887.000000	0.000000	142.000000	54.000000	0.000000	0.000000
0.440000	50.150000	47.800000	882.000000	0.000000	143.000000	53.000000	7.000000	-19.000000
0.450000	50.290000	47.270000	881.000000	0.000000	143.000000	53.000000	14.000000	-53.000000
0.460000	50.460000	46.510000	881.000000	0.000000	143.000000	53.000000	17.000000	-76.000000
0.470000	50.810000	45.900000	882.000000	0.000000	143.000000	53.000000	35.000000	-61.000000
0.480000	51.360000	45.490000	875.000000	0.000000	142.000000	54.000000	55.000000	-41.000000
0.490000	52.030000	45.220000	879.000000	0.000000	142.000000	54.000000	67.000000	-27.000000
0.500000	52.720000	45.170000	882.000000	0.000000	143.000000	55.000000	69.000000	-5.000000
0.510000	53.310000	45.370000	881.000000	0.000000	141.000000	56.000000	59.000000	20.000000
0.520000	53.700000	45.740000	882.000000	0.000000	141.000000	56.000000	39.000000	37.000000
0.530000	53.980000	46.060000	885.000000	0.000000	142.000000	57.000000	28.000000	32.000000
0.540000	53.980000	46.350000	893.000000	0.000000	142.000000	57.000000	0.000000	29.000000
0.550000	53.980000	46.460000	897.000000	0.000000	142.000000	57.000000	0.000000	11.000000
0.560000	53.980000	46.460000	899.000000	0.000000	143.000000	56.000000	0.000000	0.000000
0.570000	53.980000	46.320000	905.000000	0.000000	143.000000	56.000000	0.000000	-14.000000
0.580000	53.980000	46.010000	903.000000	0.000000	143.000000	56.000000	0.000000	-31.000000
0.590000	53.980000	45.600000	905.000000	0.000000	143.000000	56.000000	0.000000	-41.000000
0.600000	53.910000	45.240000	909.000000	0.000000	143.000000	56.000000	-7.000000	-36.000000
0.610000	54.040000	44.980000	905.000000	0.000000	143.000000	56.000000	13.000000	-26.000000
0.620000	54.180000	44.780000	906.000000	0.000000	143.000000	56.000000	14.000000	-20.000000
0.630000	54.290000	44.780000	892.000000	0.000000	143.000000	56.000000	11.000000	0.000000
0.640000	54.380000	44.910000	902.000000	0.000000	143.000000	56.000000	9.000000	13.000000
0.650000	54.670000	45.130000	897.000000	0.000000	143.000000	56.000000	29.000000	22.000000
0.660000	54.920000	45.540000	896.000000	0.000000	144.000000	57.000000	25.000000	41.000000
0.670000	55.140000	45.950000	894.000000	0.000000	144.000000	57.000000	22.000000	41.000000
0.680000	55.250000	46.370000	897.000000	0.000000	144.000000	57.000000	11.000000	42.000000
0.690000	55.250000	46.430000	897.000000	0.000000	144.000000	57.000000	0.000000	6.000000
0.700000	55.250000	46.430000	900.000000	0.000000	144.000000	57.000000	0.000000	0.000000
0.710000	55.250000	46.430000	899.000000	0.000000	144.000000	57.000000	0.000000	0.000000
0.720000	55.250000	46.260000	900.000000	0.000000	144.000000	57.000000	0.000000	-17.000000
0.730000	55.310000	46.010000	905.000000	0.000000	145.000000	56.000000	6.000000	-25.000000
0.740000	55.310000	45.660000	906.000000	0.000000	145.000000	56.000000	0.000000	-35.000000
0.750000	55.410000	45.270000	905.000000	0.000000	145.000000	56.000000	10.000000	-39.000000
0.760000	55.550000	44.950000	899.000000	0.000000	144.000000	57.000000	14.000000	-32.000000
0.770000	55.700000	44.830000	900.000000	0.000000	144.000000	57.000000	15.000000	-12.000000
0.780000	55.840000	44.830000	896.000000	0.000000	144.000000	57.000000	14.000000	0.000000
0.790000	56.180000	44.910000	890.000000	0.000000	144.000000	57.000000	34.000000	8.000000
0.800000	56.510000	45.180000	878.000000	0.000000	144.000000	57.000000	33.000000	27.000000
0.810000	56.810000	45.560000	873.000000	0.000000	144.000000	57.000000	30.000000	38.000000
0.820000	56.950000	45.880000	867.000000	0.000000	144.000000	57.000000	14.000000	32.000000
0.830000	57.010000	46.170000	866.000000	0.000000	144.000000	57.000000	6.000000	29.000000
0.840000	57.010000	46.390000	872.000000	0.000000	146.000000	57.000000	0.000000	22.000000
0.850000	57.010000	46.390000	873.000000	0.000000	146.000000	57.000000	0.000000	0.000000
0.860000	57.010000	46.340000	881.000000	0.000000	146.000000	57.000000	0.000000	-5.000000
0.870000	57.010000	46.210000	896.000000	0.000000	146.000000	57.000000	0.000000	-13.000000
0.880000	57.010000	45.870000	893.000000	0.000000	146.000000	57.000000	0.000000	-34.000000
0.890000	56.960000	45.390000	887.000000	0.000000	146.000000	57.000000	-5.000000	-48.000000
0.900000	57.120000	45.250000	882.000000	0.000000	146.000000	57.000000	16.000000	-14.000000
0.910000	57.330000	45.110000	873.000000	0.000000	146.000000	57.000000	21.000000	-14.000000
0.920000	57.660000	45.010000	863.000000	0.000000	146.000000	57.000000	33.000000	-10.000000
0.930000	58.060000	45.160000	864.000000	0.000000	146.000000	57.000000	40.000000	15.000000
0.940000	58.440000	45.460000	858.000000	0.000000	146.000000	57.000000	38.000000	30.000000
0.950000	58.720000	45.810000	845.000000	0.000000	146.000000	57.000000	28.000000	35.000000
0.960000	58.930000	46.160000	843.000000	0.000000	146.000000	57.000000	21.000000	35.000000
0.970000	58.980000	46.510000	854.000000	0.000000	146.000000	57.000000	5.000000	35.000000
0.980000	58.980000	46.640000	869.000000	0.000000	146.000000	57.000000	0.000000	13.000000
0.990000	58.980000	46.640000	860.000000	0.000000	146.000000	57.000000	0.000000	0.000000
1.000000	58.980000	46.580000	864.000000	0.000000	146.000000	57.000000	0.000000	-6.000000
1.010000	58.980000	46.420000	866.000000	0.000000	148.000000	57.000000	0.000000	-16.000000
1.020000	58.980000	46.210000	855.000000	0.000000	148.000000	57.000000	0.000000	-21.000000
1.030000	58.980000	45.970000	819.000000	0.000000	148.000000	57.000000	0.000000	-24.000000
1.040000	59.310000	45.730000	728.000000	0.000000	148.000000	57.000000	33.000000	-24.000000
1.050000	59.650000	45.530000	502.000000	0.000000	147.000000	58.000000	34.000000	-20.000000
1.060000	60.030000	45.470000	15.000000	0.000000	147.000000	58.000000	38.000000	-6.000000
1.070000	60.030000	45.470000	0.000000	1.000000	147.000000	58.000000	0.000000	0.000000
1.080000	60.670000	45.540000	0.000000	0.000000	149.000000	58.000000	64.000000	7.000000
1.090000	60.840000	45.670000	0.000000	0.000000	149.000000	58.000000	17.000000	13.000000
1.100000	61.020000	45.860000	0.000000	0.000000	149.000000	58.000000	18.000000	19.000000
1.110000	61.020000	45.860000	216.000000	1.000000	150.000000	58.000000	0.000000	0.000000
1.120000	61.280000	46.100000	309.000000	0.000000	150.000000	58.000000	26.000000	24.000000
1.130000	61.280000	46.300000	449.000000	0.000000	152.000000	59.000000	0.000000	20.000000
1.140000	61.280000	46.550000	583.000000	0.000000	152.000000	59.000000	0.000000	25.000000
1.150000	61.160000	46.790000	721.000000	0.000000	152.000000	59.000000	-12.000000	24.000000
1.160000	61.040000	46.980000	818.000000	0.000000	152.000000	59.000000	-12.000000	19.000000
1.170000	60.910000	47.100000	845.000000	0.000000	151.000000	58.000000	-13.000000	12.000000
1.180000	60.650000	47.100000	853.000000	0.000000	151.000000	58.000000	-26.000000	0.000000
1.190000	60.290000	46.930000	861.000000	0.000000	150.000000	57.000000	-36.000000	-17.000000
1.200000	59.930000	46.580000	861.000000	0.000000	150.000000	57.000000	-36.000000	-35.000000
1.210000	59.710000	46.200000	857.000000	0.000000	149.000000	56.000000	-22.000000	-38.000000
1.220000	59.590000	45.770000	843.000000	0.000000	148.000000	57.000000	-12.000000	-43.000000
1.230000	59.690000	45.300000	834.000000	0.000000	148.000000	57.000000	10.000000	-47.000000
1.240000	60.000000	45.090000	819.000000	0.000000	147.000000	56.000000	31.000000	-21.000000
1.250000	60.460000	45.090000	818.000000	0.000000	146.000000	57.000000	46.000000	0.000000
1.260000	60.870000	45.160000	812.000000	0.000000	146.000000	57.000000	41.000000	7.000000
1.270000	61.250000	45.410000	808.000000	0.000000	146.000000	57.000000	38.000000	25.000000
1.280000	61.620000	45.740000	800.000000	0.000000	146.000000	57.000000	37.000000	33.000000
1.290000	61.850000	46.130000	803.000000	0.000000	147.000000	58.000000	23.000000	39.000000
1.300000	61.940000	46.460000	808.000000	0.000000	147.000000	58.000000	9.000000	33.000000
1.310000	61.940000	46.740000	818.000000	0.000000	147.000000	58.000000	0.000000	28.000000
1.320000	61.850000	46.920000	852.000000	0.000000	147.000000	58.000000	-9.000000	18.000000
1.330000	61.800000	46.970000	861.000000	0.000000	148.000000	57.000000	-5.000000	5.000000
1.340000	61.800000	46.920000	860.000000	0.000000	148.000000	57.000000	0.000000	-5.000000
1.350000	61.800000	46.790000	861.000000	0.000000	148.000000	57.000000	0.000000	-13.000000
1.360000	61.800000	46.430000	864.000000	0.000000	149.000000	56.000000	0.000000	-36.000000
1.370000	61.800000	45.910000	861.000000	0.000000	149.000000	56.000000	0.000000	-52.000000
1.380000	61.920000	45.470000	851.000000	0.000000	149.000000	56.000000	12.000000	-44.000000
1.390000	62.100000	45.250000	851.000000	0.000000	148.000000	57.000000	18.000000	-22.000000
1.400000	62.420000	45.180000	839.000000	0.000000	148.000000	57.000000	32.000000	-7.000000
1.410000	62.830000	45.250000	825.000000	0.000000	148.000000	57.000000	41.000000	7.000000
1.420000	63.180000	45.480000	817.000000	0.000000	147.000000	58.000000	35.000000	23.000000
1.430000	63.530000	45.820000	824.000000	0.000000	149.000000	58.000000	35.000000	34.000000
1.440000	63.740000	46.160000	817.000000	0.000000	149.000000	58.000000	21.000000	34.000000
1.450000	63.860000	46.470000	815.000000	0.000000	149.000000	58.000000	12.000000	31.000000
1.460000	63.860000	46.710000	832.000000	0.000000	150.000000	58.000000	0.000000	24.000000
1.470000	63.860000	46.800000	833.000000	0.000000	150.000000	58.000000	0.000000	9.000000
1.480000	63.810000	46.800000	834.000000	0.000000	152.000000	59.000000	-5.000000	0.000000
1.490000	63.810000	46.750000	860.000000	0.000000	153.000000	58.000000	0.000000	-5.000000
1.500000	63.810000	46.490000	869.000000	0.000000	153.000000	58.000000	0.000000	-26.000000
1.510000	63.880000	46.090000	855.000000	0.000000	153.000000	58.000000	7.000000	-40.000000
1.520000	63.880000	45.830000	852.000000	0.000000	153.000000	58.000000	0.000000	-26.000000
1.530000	64.010000	45.660000	824.000000	0.000000	153.000000	58.000000	13.000000	-17.000000
1.540000	64.210000	45.560000	752.000000	0.000000	152.000000	59.000000	20.000000	-10.000000
1.550000	64.470000	45.560000	570.000000	0.000000	152.000000	59.000000	26.000000	0.000000
1.560000	64.680000	45.760000	124.000000	0.000000	152.000000	59.000000	21.000000	20.000000
1.570000	64.680000	45.760000	0.000000	1.000000	152.000000	59.000000	0.000000	0.000000
1.580000	64.770000	46.320000	0.000000	0.000000	152.000000	59.000000	9.000000	56.000000
1.590000	64.610000	46.730000	0.000000	0.000000	152.000000	59.000000	-16.000000	41.000000
1.600000	64.440000	47.200000	0.000000	0.000000	152.000000	59.000000	-17.000000	47.000000
1.610000	64.260000	47.450000	0.000000	0.000000	150.000000	58.000000	-18.000000	25.000000
1.620000	64.260000	47.450000	284.000000	1.000000	151.000000	58.000000	0.000000	0.000000
1.630000	63.970000	47.920000	430.000000	0.000000	151.000000	58.000000	-29.000000	47.000000
1.640000	63.780000	48.140000	497.000000	0.000000	152.000000	57.000000	-19.000000	22.000000
1.650000	63.780000	48.210000	492.000000	0.000000	153.000000	56.000000	0.000000	7.000000
1.660000	63.780000	48.210000	415.000000	0.000000	153.000000	56.000000	0.000000	0.000000
1.670000	63.880000	48.090000	212.000000	0.000000	153.000000	56.000000	10.000000	-12.000000
1.680000	63.880000	48.090000	0.000000	1.000000	154.000000	55.000000	0.000000	0.000000
1.690000	64.540000	47.280000	0.000000	0.000000	154.000000	55.000000	66.000000	-81.000000
1.700000	64.740000	46.960000	0.000000	0.000000	154.000000	56.000000	20.000000	-32.000000
1.710000	64.960000	46.680000	0.000000	0.000000	154.000000	56.000000	22.000000	-28.000000
1.720000	65.180000	46.420000	0.000000	0.000000	154.000000	56.000000	22.000000	-26.000000
1.730000	65.540000	46.270000	0.000000	0.000000	154.000000	56.000000	36.000000	-15.000000
1.740000	65.890000	46.180000	0.000000	0.000000	154.000000	57.000000	35.000000	-9.000000
1.750000	66.230000	46.120000	0.000000	0.000000	154.000000	57.000000	34.000000	-6.000000
1.760000	66.230000	46.120000	181.000000	1.000000	154.000000	57.000000	0.000000	0.000000
1.770000	66.660000	46.300000	329.000000	0.000000	153.000000	58.000000	43.000000	18.000000
1.780000	66.660000	46.570000	460.000000	0.000000	153.000000	58.000000	0.000000	27.000000
1.790000	66.660000	46.820000	585.000000	0.000000	153.000000	58.000000	0.000000	25.000000
1.800000	66.660000	47.070000	664.000000	0.000000	153.000000	58.000000	0.000000	25.000000
1.810000	66.480000	47.260000	722.000000	0.000000	154.000000	58.000000	-18.000000	19.000000
1.820000	66.260000	47.360000	784.000000	0.000000	154.000000	58.000000	-22.000000	10.000000
1.830000	65.980000	47.360000	800.000000	0.000000	154.000000	58.000000	-28.000000	0.000000
1.840000	65.690000	47.230000	811.000000	0.000000	155.000000	58.000000	-29.000000	-13.000000
1.850000	65.420000	46.960000	817.000000	0.000000	154.000000	57.000000	-27.000000	-27.000000
1.860000	65.150000	46.550000	787.000000	0.000000	154.000000	57.000000	-27.000000	-41.000000
1.870000	65.090000	46.150000	733.000000	0.000000	154.000000	57.000000	-6.000000	-40.000000
1.880000	65.250000	45.790000	653.000000	0.000000	154.000000	57.000000	16.000000	-36.000000
1.890000	65.560000	45.560000	497.000000	0.000000	153.000000	58.000000	31.000000	-23.000000
1.900000	66.180000	45.390000	156.000000	0.000000	153.000000	58.000000	62.000000	-17.000000
1.910000	66.180000	45.390000	0.000000	1.000000	152.000000	59.000000	0.000000	0.000000
1.920000	67.480000	45.660000	0.000000	0.000000	152.000000	59.000000	130.000000	27.000000
1.930000	67.950000	45.960000	0.000000	0.000000	153.000000	59.000000	47.000000	30.000000
1.940000	68.300000	46.180000	0.000000	0.000000	153.000000	59.000000	35.000000	22.000000
1.950000	68.300000	46.180000	249.000000	1.000000	155.000000	60.000000	0.000000	0.000000
1.960000	68.510000	46.550000	367.000000	0.000000	155.000000	60.000000	21.000000	37.000000
1.970000	68.420000	46.710000	518.000000	0.000000	155.000000	60.000000	-9.000000	16.000000
1.980000	68.260000	46.850000	652.000000	0.000000	155.000000	60.000000	-16.000000	14.000000
1.990000	68.040000	46.960000	733.000000	0.000000	156.000000	59.000000	-22.000000	11.000000
2.000000	67.780000	47.030000	753.000000	0.000000	156.000000	59.000000	-26.000000	7.000000
2.010000	67.480000	46.900000	790.000000	0.000000	156.000000	59.000000	-30.000000	-13.000000
2.020000	67.200000	46.650000	790.000000	0.000000	157.000000	58.000000	-28.000000	-25.000000
2.030000	66.940000	46.210000	785.000000	0.000000	157.000000	58.000000	-26.000000	-44.000000
2.040000	66.880000	45.760000	762.000000	0.000000	155.000000	58.000000	-6.000000	-45.000000
2.050000	66.970000	45.490000	760.000000	0.000000	155.000000	58.000000	9.000000	-27.000000
2.060000	67.210000	45.330000	757.000000	0.000000	154.000000	58.000000	24.000000	-16.000000
2.070000	67.630000	45.330000	760.000000	0.000000	154.000000	58.000000	42.000000	0.000000
2.080000	68.160000	45.530000	755.000000	0.000000	154.000000	58.000000	53.000000	20.000000
2.090000	68.490000	45.850000	763.000000	0.000000	154.000000	58.000000	33.000000	32.000000
2.100000	68.680000	46.090000	754.000000	0.000000	154.000000	58.000000	19.000000	24.000000
2.110000	68.770000	46.320000	784.000000	0.000000	154.000000	58.000000	9.000000	23.000000
2.120000	68.770000	46.380000	790.000000	0.000000	154.000000	58.000000	0.000000	6.000000
2.130000	68.770000	46.320000	790.000000	0.000000	154.000000	58.000000	0.000000	-6.000000
2.140000	68.770000	46.260000	783.000000	0.000000	154.000000	58.000000	0.000000	-6.000000
2.150000	69.010000	46.150000	727.000000	0.000000	154.000000	58.000000	24.000000	-11.000000
2.160000	69.330000	45.980000	464.000000	0.000000	154.000000	58.000000	32.000000	-17.000000
2.170000	69.330000	45.980000	0.000000	1.000000	156.000000	59.000000	0.000000	0.000000
2.180000	70.110000	45.810000	0.000000	0.000000	156.000000	59.000000	78.000000	-17.000000
2.190000	70.110000	45.860000	0.000000	0.000000	157.000000	59.000000	0.000000	5.000000
2.200000	69.940000	46.130000	0.000000	0.000000	159.000000	59.000000	-17.000000	27.000000
2.210000	69.860000	46.380000	0.000000	0.000000	160.000000	58.000000	-8.000000	25.000000
