t	x	y	pressure	penup	azimuth	inclination	v_x	v_y
0.000000	84.980000	77.330000	1.000000	1.000000	144.000000	61.000000	0.000000	0.000000
0.010000	84.980000	77.330000	101.000000	1.000000	144.000000	61.000000	0.000000	0.000000
0.020000	84.980000	77.330000	110.000000	0.000000	144.000000	61.000000	0.000000	0.000000
0.030000	84.980000	77.330000	200.000000	0.000000	143.000000	62.000000	0.000000	0.000000
0.040000	84.980000	77.330000	246.000000	0.000000	143.000000	62.000000	0.000000	0.000000
0.050000	84.980000	77.330000	274.000000	0.000000	143.000000	62.000000	0.000000	0.000000
0.060000	84.980000	77.330000	354.000000	0.000000	143.000000	62.000000	0.000000	0.000000
0.070000	84.980000	77.330000	441.000000	0.000000	143.000000	62.000000	0.000000	0.000000
0.080000	84.980000	77.330000	499.000000	0.000000	144.000000	62.000000	0.000000	0.000000
0.090000	84.980000	77.330000	537.000000	0.000000	144.000000	62.000000	0.000000	0.000000
0.100000	85.340000	77.380000	578.000000	0.000000	144.000000	62.000000	36.000000	5.000000
0.110000	85.630000	77.670000	616.000000	0.000000	144.000000	62.000000	29.000000	29.000000
0.120000	86.030000	78.060000	644.000000	0.000000	144.000000	62.000000	40.000000	39.000000
0.130000	86.520000	78.510000	653.000000	0.000000	144.000000	62.000000	49.000000	45.000000
0.140000	87.090000	79.250000	673.000000	0.000000	144.000000	62.000000	57.000000	74.000000
0.150000	87.700000	80.120000	676.000000	0.000000	146.000000	63.000000	61.000000	87.000000
0.160000	88.260000	81.080000	682.000000	0.000000	147.000000	62.000000	56.000000	96.000000
0.170000	88.670000	82.070000	669.000000	0.000000	147.000000	62.000000	41.000000	99.000000
0.180000	89.010000	83.250000	646.000000	0.000000	147.000000	62.000000	34.000000	118.000000
0.190000	89.200000	84.560000	641.000000	0.000000	147.000000	62.000000	19.000000	131.000000
0.200000	89.290000	85.990000	646.000000	0.000000	148.000000	61.000000	9.000000	143.000000
0.210000	89.290000	87.030000	647.000000	0.000000	148.000000	61.000000	0.000000	104.000000
0.220000	89.290000	87.800000	636.000000	0.000000	147.000000	61.000000	0.000000	77.000000
0.230000	89.290000	88.320000	640.000000	0.000000	147.000000	61.000000	0.000000	52.000000
0.240000	89.290000	88.630000	647.000000	0.000000	145.000000	60.000000	0.000000	31.000000
0.250000	89.290000	88.790000	637.000000	0.000000	146.000000	60.000000	0.000000	16.000000
0.260000	89.290000	88.730000	644.000000	0.000000	146.000000	60.000000	0.000000	-6.000000
0.270000	89.290000	88.300000	644.000000	0.000000	145.000000	59.000000	0.000000	-43.000000
0.280000	89.130000	87.630000	659.000000	0.000000	146.000000	60.000000	-16.000000	-67.000000
0.290000	88.940000	86.490000	675.000000	0.000000	146.000000	60.000000	-19.000000	-114.000000
0.300000	88.730000	85.250000	690.000000	0.000000	148.000000	60.000000	-21.000000	-124.000000
0.310000	88.600000	83.950000	691.000000	0.000000	148.000000	60.000000	-13.000000	-130.000000
0.320000	88.520000	82.980000	708.000000	0.000000	151.000000	60.000000	-8.000000	-97.000000
0.330000	88.520000	82.110000	716.000000	0.000000	151.000000	60.000000	0.000000	-87.000000
0.340000	88.440000	81.310000	725.000000	0.000000	152.000000	60.000000	-8.000000	-80.000000
0.350000	88.280000	80.770000	733.000000	0.000000	152.000000	60.000000	-16.000000	-54.000000
0.360000	88.170000	80.310000	720.000000	0.000000	153.000000	61.000000	-11.000000	-46.000000
0.370000	88.020000	79.900000	725.000000	0.000000	153.000000	61.000000	-15.000000	-41.000000
0.380000	87.830000	79.590000	727.000000	0.000000	153.000000	61.000000	-19.000000	-31.000000
0.390000	87.690000	79.370000	727.000000	0.000000	152.000000	62.000000	-14.000000	-22.000000
0.400000	87.570000	79.200000	733.000000	0.000000	150.000000	62.000000	-12.000000	-17.000000
0.410000	87.500000	79.200000	717.000000	0.000000	150.000000	62.000000	-7.000000	0.000000
0.420000	87.500000	79.350000	666.000000	0.000000	150.000000	62.000000	0.000000	15.000000
0.430000	87.450000	79.590000	667.000000	0.000000	150.000000	62.000000	-5.000000	24.000000
0.440000	87.450000	80.090000	671.000000	0.000000	150.000000	62.000000	0.000000	50.000000
0.450000	87.450000	80.580000	668.000000	0.000000	150.000000	62.000000	0.000000	49.000000
0.460000	87.450000	81.040000	668.000000	0.000000	150.000000	62.000000	0.000000	46.000000
0.470000	87.400000	81.340000	671.000000	0.000000	150.000000	62.000000	-5.000000	30.000000
0.480000	87.400000	81.550000	673.000000	0.000000	150.000000	62.000000	0.000000	21.000000
0.490000	87.400000	81.670000	671.000000	0.000000	150.000000	62.000000	0.000000	12.000000
0.500000	87.400000	81.760000	665.000000	0.000000	150.000000	62.000000	0.000000	9.000000
0.510000	87.400000	81.810000	658.000000	0.000000	148.000000	61.000000	0.000000	5.000000
0.520000	87.400000	81.810000	652.000000	0.000000	150.000000	60.000000	0.000000	0.000000
0.530000	87.400000	81.810000	656.000000	0.000000	150.000000	60.000000	0.000000	0.000000
0.540000	87.470000	81.640000	659.000000	0.000000	151.000000	61.000000	7.000000	-17.000000
0.550000	87.590000	81.450000	662.000000	0.000000	151.000000	61.000000	12.000000	-19.000000
0.560000	87.790000	81.220000	664.000000	0.000000	151.000000	61.000000	20.000000	-23.000000
0.570000	88.060000	80.940000	681.000000	0.000000	151.000000	61.000000	27.000000	-28.000000
0.580000	88.390000	80.760000	690.000000	0.000000	151.000000	61.000000	33.000000	-18.000000
0.590000	88.750000	80.650000	690.000000	0.000000	150.000000	62.000000	36.000000	-11.000000
0.600000	89.140000	80.520000	697.000000	0.000000	150.000000	62.000000	39.000000	-13.000000
0.610000	89.530000	80.420000	707.000000	0.000000	150.000000	62.000000	39.000000	-10.000000
0.620000	89.890000	80.490000	710.000000	0.000000	150.000000	62.000000	36.000000	7.000000
0.630000	90.230000	80.650000	713.000000	0.000000	149.000000	63.000000	34.000000	16.000000
0.640000	90.420000	80.780000	716.000000	0.000000	149.000000	63.000000	19.000000	13.000000
0.650000	90.540000	81.040000	717.000000	0.000000	149.000000	63.000000	12.000000	26.000000
0.660000	90.620000	81.400000	716.000000	0.000000	147.000000	62.000000	8.000000	36.000000
0.670000	90.620000	81.730000	719.000000	0.000000	148.000000	61.000000	0.000000	33.000000
0.680000	90.620000	82.010000	727.000000	0.000000	148.000000	61.000000	0.000000	28.000000
0.690000	90.620000	82.200000	727.000000	0.000000	147.000000	61.000000	0.000000	19.000000
0.700000	90.570000	82.260000	731.000000	0.000000	147.000000	61.000000	-5.000000	6.000000
0.710000	90.570000	82.260000	730.000000	0.000000	147.000000	61.000000	0.000000	0.000000
0.720000	90.570000	82.160000	731.000000	0.000000	147.000000	61.000000	0.000000	-10.000000
0.730000	90.570000	82.020000	737.000000	0.000000	148.000000	60.000000	0.000000	-14.000000
0.740000	90.490000	81.770000	748.000000	0.000000	148.000000	60.000000	-8.000000	-25.000000
0.750000	90.490000	81.520000	751.000000	0.000000	148.000000	60.000000	0.000000	-25.000000
0.760000	90.490000	81.280000	757.000000	0.000000	148.000000	60.000000	0.000000	-24.000000
0.770000	90.540000	81.010000	754.000000	0.000000	148.000000	60.000000	5.000000	-27.000000
0.780000	90.540000	80.870000	751.000000	0.000000	147.000000	61.000000	0.000000	-14.000000
0.790000	90.670000	80.870000	749.000000	0.000000	147.000000	61.000000	13.000000	0.000000
0.800000	90.820000	80.870000	740.000000	0.000000	147.000000	61.000000	15.000000	0.000000
0.810000	91.060000	80.980000	740.000000	0.000000	147.000000	61.000000	24.000000	11.000000
0.820000	91.290000	81.180000	748.000000	0.000000	147.000000	61.000000	23.000000	20.000000
0.830000	91.460000	81.410000	746.000000	0.000000	147.000000	61.000000	17.000000	23.000000
0.840000	91.600000	81.630000	746.000000	0.000000	147.000000	61.000000	14.000000	22.000000
0.850000	91.660000	81.820000	748.000000	0.000000	148.000000	61.000000	6.000000	19.000000
0.860000	91.660000	81.960000	751.000000	0.000000	148.000000	61.000000	0.000000	14.000000
0.870000	91.660000	82.060000	749.000000	0.000000	148.000000	61.000000	0.000000	10.000000
0.880000	91.720000	82.150000	754.000000	0.000000	148.000000	61.000000	6.000000	9.000000
0.890000	91.720000	82.270000	754.000000	0.000000	148.000000	61.000000	0.000000	12.000000
0.900000	91.720000	82.270000	749.000000	0.000000	148.000000	61.000000	0.000000	0.000000
0.910000	91.720000	82.270000	749.000000	0.000000	150.000000	60.000000	0.000000	0.000000
0.920000	91.720000	82.270000	751.000000	0.000000	150.000000	60.000000	0.000000	0.000000
0.930000	91.720000	82.270000	755.000000	0.000000	150.000000	60.000000	0.000000	0.000000
0.940000	91.640000	81.930000	758.000000	0.000000	150.000000	60.000000	-8.000000	-34.000000
0.950000	91.640000	81.660000	758.000000	0.000000	150.000000	60.000000	0.000000	-27.000000
0.960000	91.640000	81.490000	760.000000	0.000000	150.000000	60.000000	0.000000	-17.000000
0.970000	91.640000	81.360000	761.000000	0.000000	148.000000	61.000000	0.000000	-13.000000
0.980000	91.730000	81.260000	751.000000	0.000000	148.000000	61.000000	9.000000	-10.000000
0.990000	91.850000	81.160000	763.000000	0.000000	148.000000	61.000000	12.000000	-10.000000
1.000000	92.000000	81.090000	754.000000	0.000000	148.000000	61.000000	15.000000	-7.000000
1.010000	92.160000	81.090000	748.000000	0.000000	148.000000	61.000000	16.000000	0.000000
1.020000	92.320000	81.220000	745.000000	0.000000	148.000000	61.000000	16.000000	13.000000
1.030000	92.520000	81.400000	745.000000	0.000000	148.000000	61.000000	20.000000	18.000000
1.040000	92.750000	81.570000	740.000000	0.000000	150.000000	62.000000	23.000000	17.000000
1.050000	92.910000	81.720000	731.000000	0.000000	150.000000	62.000000	16.000000	15.000000
1.060000	93.010000	81.850000	727.000000	0.000000	150.000000	62.000000	10.000000	13.000000
1.070000	93.100000	81.950000	727.000000	0.000000	150.000000	62.000000	9.000000	10.000000
1.080000	93.100000	82.050000	725.000000	0.000000	150.000000	62.000000	0.000000	10.000000
1.090000	93.150000	82.130000	722.000000	0.000000	150.000000	62.000000	5.000000	8.000000
1.100000	93.150000	82.210000	731.000000	0.000000	150.000000	62.000000	0.000000	8.000000
1.110000	93.230000	82.270000	730.000000	0.000000	150.000000	62.000000	8.000000	6.000000
1.120000	93.230000	82.320000	725.000000	0.000000	150.000000	62.000000	0.000000	5.000000
1.130000	93.290000	82.320000	725.000000	0.000000	150.000000	62.000000	6.000000	0.000000
1.140000	93.290000	82.320000	724.000000	0.000000	150.000000	62.000000	0.000000	0.000000
1.150000	93.370000	82.320000	727.000000	0.000000	150.000000	62.000000	8.000000	0.000000
1.160000	93.370000	82.400000	728.000000	0.000000	150.000000	62.000000	0.000000	8.000000
1.170000	93.370000	82.400000	728.000000	0.000000	150.000000	62.000000	0.000000	0.000000
1.180000	93.370000	82.400000	733.000000	0.000000	150.000000	62.000000	0.000000	0.000000
1.190000	93.370000	82.400000	721.000000	0.000000	150.000000	62.000000	0.000000	0.000000
1.200000	93.370000	82.400000	720.000000	0.000000	150.000000	62.000000	0.000000	0.000000
1.210000	93.370000	82.400000	722.000000	0.000000	150.000000	62.000000	0.000000	0.000000
1.220000	93.370000	82.340000	725.000000	0.000000	150.000000	62.000000	0.000000	-6.000000
1.230000	93.300000	82.240000	728.000000	0.000000	150.000000	62.000000	-7.000000	-10.000000
1.240000	93.210000	82.080000	730.000000	0.000000	150.000000	62.000000	-9.000000	-16.000000
1.250000	93.210000	81.910000	736.000000	0.000000	150.000000	62.000000	0.000000	-17.000000
1.260000	93.130000	81.730000	742.000000	0.000000	150.000000	62.000000	-8.000000	-18.000000
1.270000	93.130000	81.520000	748.000000	0.000000	150.000000	62.000000	0.000000	-21.000000
1.280000	93.130000	81.340000	751.000000	0.000000	150.000000	62.000000	0.000000	-18.000000
1.290000	93.130000	81.230000	752.000000	0.000000	150.000000	62.000000	0.000000	-11.000000
1.300000	93.210000	81.150000	758.000000	0.000000	150.000000	62.000000	8.000000	-8.000000
1.310000	93.210000	81.150000	755.000000	0.000000	150.000000	62.000000	0.000000	0.000000
1.320000	93.280000	81.100000	755.000000	0.000000	152.000000	62.000000	7.000000	-5.000000
1.330000	93.280000	81.100000	755.000000	0.000000	152.000000	62.000000	0.000000	0.000000
1.340000	93.280000	81.100000	757.000000	0.000000	152.000000	62.000000	0.000000	0.000000
1.350000	93.330000	81.100000	760.000000	0.000000	152.000000	62.000000	5.000000	0.000000
1.360000	93.380000	81.100000	750.000000	0.000000	152.000000	62.000000	5.000000	0.000000
1.370000	93.490000	81.100000	751.000000	0.000000	152.000000	62.000000	11.000000	0.000000
1.380000	93.720000	81.180000	751.000000	0.000000	152.000000	62.000000	23.000000	8.000000
1.390000	94.020000	81.250000	751.000000	0.000000	152.000000	62.000000	30.000000	7.000000
1.400000	94.160000	81.310000	763.000000	0.000000	152.000000	62.000000	14.000000	6.000000
1.410000	94.250000	81.310000	751.000000	0.000000	152.000000	62.000000	9.000000	0.000000
1.420000	94.310000	81.360000	751.000000	0.000000	152.000000	62.000000	6.000000	5.000000
1.430000	94.400000	81.410000	751.000000	0.000000	154.000000	63.000000	9.000000	5.000000
1.440000	94.460000	81.460000	751.000000	0.000000	154.000000	63.000000	6.000000	5.000000
1.450000	94.460000	81.510000	763.000000	0.000000	154.000000	63.000000	0.000000	5.000000
1.460000	94.530000	81.510000	758.000000	0.000000	154.000000	63.000000	7.000000	0.000000
1.470000	94.600000	81.610000	752.000000	0.000000	154.000000	63.000000	7.000000	10.000000
1.480000	94.650000	81.700000	749.000000	0.000000	154.000000	63.000000	5.000000	9.000000
1.490000	94.650000	81.750000	749.000000	0.000000	154.000000	63.000000	0.000000	5.000000
1.500000	94.650000	81.820000	748.000000	0.000000	154.000000	63.000000	0.000000	7.000000
1.510000	94.740000	81.910000	745.000000	0.000000	155.000000	63.000000	9.000000	9.000000
1.520000	94.800000	82.020000	737.000000	0.000000	155.000000	63.000000	6.000000	11.000000
1.530000	94.860000	82.130000	731.000000	0.000000	155.000000	63.000000	6.000000	11.000000
1.540000	94.860000	82.240000	731.000000	0.000000	155.000000	63.000000	0.000000	11.000000
1.550000	94.860000	82.310000	731.000000	0.000000	155.000000	63.000000	0.000000	7.000000
1.560000	94.920000	82.360000	731.000000	0.000000	155.000000	63.000000	6.000000	5.000000
1.570000	94.920000	82.410000	737.000000	0.000000	155.000000	63.000000	0.000000	5.000000
1.580000	94.920000	82.410000	737.000000	0.000000	155.000000	63.000000	0.000000	0.000000
1.590000	94.920000	82.410000	737.000000	0.000000	155.000000	63.000000	0.000000	0.000000
1.600000	94.920000	82.410000	736.000000	0.000000	155.000000	63.000000	0.000000	0.000000
1.610000	94.920000	82.410000	733.000000	0.000000	155.000000	63.000000	0.000000	0.000000
1.620000	94.920000	82.410000	734.000000	0.000000	155.000000	63.000000	0.000000	0.000000
1.630000	94.920000	82.410000	731.000000	0.000000	155.000000	63.000000	0.000000	0.000000
1.640000	94.920000	82.410000	734.000000	0.000000	155.000000	63.000000	0.000000	0.000000
1.650000	94.820000	82.350000	736.000000	0.000000	155.000000	63.000000	-10.000000	-6.000000
1.660000	94.720000	82.270000	736.000000	0.000000	155.000000	63.000000	-10.000000	-8.000000
1.670000	94.600000	82.180000	739.000000	0.000000	155.000000	63.000000	-12.000000	-9.000000
1.680000	94.500000	82.070000	739.000000	0.000000	155.000000	63.000000	-10.000000	-11.000000
1.690000	94.430000	81.950000	740.000000	0.000000	155.000000	63.000000	-7.000000	-12.000000
1.700000	94.430000	81.850000	745.000000	0.000000	155.000000	63.000000	0.000000	-10.000000
1.710000	94.430000	81.770000	746.000000	0.000000	155.000000	63.000000	0.000000	-8.000000
1.720000	94.530000	81.640000	746.000000	0.000000	154.000000	63.000000	10.000000	-13.000000
1.730000	94.530000	81.530000	754.000000	0.000000	154.000000	63.000000	0.000000	-11.000000
1.740000	94.610000	81.420000	755.000000	0.000000	154.000000	63.000000	8.000000	-11.000000
1.750000	94.680000	81.300000	763.000000	0.000000	154.000000	63.000000	7.000000	-12.000000
1.760000	94.760000	81.180000	751.000000	0.000000	154.000000	63.000000	8.000000	-12.000000
1.770000	94.810000	81.130000	751.000000	0.000000	154.000000	63.000000	5.000000	-5.000000
1.780000	94.810000	81.130000	759.000000	0.000000	155.000000	63.000000	0.000000	0.000000
1.790000	94.980000	81.080000	762.000000	0.000000	154.000000	64.000000	17.000000	-5.000000
1.800000	95.100000	81.080000	770.000000	0.000000	154.000000	64.000000	12.000000	0.000000
1.810000	95.220000	81.080000	771.000000	0.000000	154.000000	64.000000	12.000000	0.000000
1.820000	95.310000	81.080000	773.000000	0.000000	154.000000	64.000000	9.000000	0.000000
1.830000	95.410000	81.080000	774.000000	0.000000	154.000000	64.000000	10.000000	0.000000
1.840000	95.490000	81.180000	779.000000	0.000000	154.000000	64.000000	8.000000	10.000000
1.850000	95.490000	81.180000	787.000000	0.000000	154.000000	64.000000	0.000000	0.000000
1.860000	95.490000	81.260000	787.000000	0.000000	154.000000	64.000000	0.000000	8.000000
1.870000	95.490000	81.380000	787.000000	0.000000	154.000000	64.000000	0.000000	12.000000
1.880000	95.560000	81.560000	782.000000	0.000000	154.000000	64.000000	7.000000	18.000000
1.890000	95.560000	81.680000	776.000000	0.000000	154.000000	64.000000	0.000000	12.000000
1.900000	95.560000	81.800000	777.000000	0.000000	154.000000	64.000000	0.000000	12.000000
1.910000	95.560000	81.910000	776.000000	0.000000	154.000000	64.000000	0.000000	11.000000
1.920000	95.610000	81.990000	777.000000	0.000000	154.000000	64.000000	5.000000	8.000000
1.930000	95.610000	82.060000	779.000000	0.000000	154.000000	64.000000	0.000000	7.000000
1.940000	95.610000	82.060000	785.000000	0.000000	154.000000	64.000000	0.000000	0.000000
1.950000	95.610000	82.130000	788.000000	0.000000	154.000000	64.000000	0.000000	7.000000
1.960000	95.560000	82.130000	788.000000	0.000000	154.000000	64.000000	-5.000000	0.000000
1.970000	95.560000	82.130000	788.000000	0.000000	155.000000	63.000000	0.000000	0.000000
1.980000	95.560000	82.130000	787.000000	0.000000	155.000000	63.000000	0.000000	0.000000
1.990000	95.560000	82.130000	785.000000	0.000000	155.000000	63.000000	0.000000	0.000000
2.000000	95.560000	82.130000	785.000000	0.000000	155.000000	63.000000	0.000000	0.000000
2.010000	95.560000	82.130000	785.000000	0.000000	155.000000	63.000000	0.000000	0.000000
2.020000	95.560000	82.130000	787.000000	0.000000	155.000000	63.000000	0.000000	0.000000
2.030000	95.560000	82.070000	788.000000	0.000000	155.000000	63.000000	0.000000	-6.000000
2.040000	95.560000	81.990000	790.000000	0.000000	155.000000	63.000000	0.000000	-8.000000
2.050000	95.560000	81.880000	791.000000	0.000000	155.000000	63.000000	0.000000	-11.000000
2.060000	95.560000	81.760000	793.000000	0.000000	155.000000	63.000000	0.000000	-12.000000
2.070000	95.560000	81.650000	784.000000	0.000000	155.000000	63.000000	0.000000	-11.000000
2.080000	95.610000	81.530000	785.000000	0.000000	155.000000	63.000000	5.000000	-12.000000
2.090000	95.610000	81.410000	788.000000	0.000000	155.000000	63.000000	0.000000	-12.000000
2.100000	95.720000	81.320000	796.000000	0.000000	155.000000	63.000000	11.000000	-9.000000
2.110000	95.820000	81.210000	797.000000	0.000000	155.000000	63.000000	10.000000	-11.000000
2.120000	95.930000	81.140000	799.000000	0.000000	154.000000	64.000000	11.000000	-7.000000
2.130000	96.040000	81.080000	808.000000	0.000000	154.000000	64.000000	11.000000	-6.000000
2.140000	96.150000	81.000000	808.000000	0.000000	154.000000	64.000000	11.000000	-8.000000
2.150000	96.250000	81.000000	814.000000	0.000000	154.000000	64.000000	10.000000	0.000000
2.160000	96.250000	81.000000	812.000000	0.000000	154.000000	64.000000	0.000000	0.000000
2.170000	96.250000	81.000000	814.000000	0.000000	154.000000	64.000000	0.000000	0.000000
2.180000	96.530000	81.120000	814.000000	0.000000	154.000000	64.000000	28.000000	12.000000
2.190000	96.660000	81.240000	812.000000	0.000000	154.000000	64.000000	13.000000	12.000000
2.200000	96.770000	81.400000	817.000000	0.000000	154.000000	64.000000	11.000000	16.000000
2.210000	96.860000	81.540000	817.000000	0.000000	154.000000	64.000000	9.000000	14.000000
2.220000	96.910000	81.660000	814.000000	0.000000	154.000000	64.000000	5.000000	12.000000
