t	x	y	pressure	penup	azimuth	inclination	v_x	v_y
0.000000	96.750000	84.230000	256.000000	1.000000	127.000000	57.000000	0.000000	0.000000
0.010000	96.970000	84.540000	359.000000	0.000000	127.000000	57.000000	22.000000	31.000000
0.020000	97.070000	84.700000	542.000000	0.000000	127.000000	57.000000	10.000000	16.000000
0.030000	97.170000	84.820000	707.000000	0.000000	127.000000	57.000000	10.000000	12.000000
0.040000	97.170000	84.890000	828.000000	0.000000	127.000000	57.000000	0.000000	7.000000
0.050000	97.170000	84.890000	933.000000	0.000000	127.000000	57.000000	0.000000	0.000000
0.060000	97.170000	84.890000	1020.000000	0.000000	127.000000	57.000000	0.000000	0.000000
0.070000	97.170000	84.890000	1023.000000	0.000000	127.000000	57.000000	0.000000	0.000000
0.080000	97.020000	84.540000	1023.000000	0.000000	128.000000	58.000000	-15.000000	-35.000000
0.090000	96.800000	83.960000	1023.000000	0.000000	128.000000	58.000000	-22.000000	-58.000000
0.100000	96.150000	82.540000	1023.000000	0.000000	128.000000	58.000000	-65.000000	-142.000000
0.110000	95.290000	80.850000	1023.000000	0.000000	128.000000	58.000000	-86.000000	-169.000000
0.120000	94.300000	78.980000	1023.000000	0.000000	128.000000	58.000000	-99.000000	-187.000000
0.130000	93.790000	77.600000	1023.000000	0.000000	130.000000	58.000000	-51.000000	-138.000000
0.140000	93.430000	76.610000	1023.000000	0.000000	127.000000	57.000000	-36.000000	-99.000000
0.150000	93.170000	75.890000	1023.000000	0.000000	127.000000	57.000000	-26.000000	-72.000000
0.160000	93.110000	75.620000	1023.000000	0.000000	126.000000	57.000000	-6.000000	-27.000000
0.170000	93.110000	75.530000	1023.000000	0.000000	124.000000	57.000000	0.000000	-9.000000
0.180000	93.110000	75.530000	941.000000	0.000000	122.000000	57.000000	0.000000	0.000000
0.190000	93.040000	75.630000	597.000000	0.000000	122.000000	57.000000	-7.000000	10.000000
0.200000	93.040000	75.940000	1.000000	1.000000	120.000000	57.000000	0.000000	0.000000
0.210000	93.040000	75.940000	0.000000	0.000000	118.000000	57.000000	0.000000	0.000000
0.220000	93.560000	77.280000	0.000000	0.000000	119.000000	58.000000	52.000000	134.000000
0.230000	93.910000	78.250000	0.000000	0.000000	119.000000	58.000000	35.000000	97.000000
0.240000	94.290000	79.290000	0.000000	0.000000	119.000000	58.000000	38.000000	104.000000
0.250000	94.690000	80.190000	0.000000	0.000000	119.000000	58.000000	40.000000	90.000000
0.260000	95.090000	80.900000	0.000000	0.000000	119.000000	58.000000	40.000000	71.000000
0.270000	95.420000	81.490000	0.000000	0.000000	119.000000	58.000000	33.000000	59.000000
0.280000	95.710000	81.990000	0.000000	0.000000	119.000000	58.000000	29.000000	50.000000
0.290000	95.960000	82.490000	0.000000	0.000000	119.000000	58.000000	25.000000	50.000000
0.300000	96.140000	82.950000	0.000000	0.000000	119.000000	58.000000	18.000000	46.000000
0.310000	96.260000	83.340000	0.000000	0.000000	120.000000	57.000000	12.000000	39.000000
0.320000	96.260000	83.550000	0.000000	0.000000	120.000000	57.000000	0.000000	21.000000
0.330000	96.320000	83.660000	0.000000	0.000000	122.000000	57.000000	6.000000	11.000000
0.340000	96.320000	83.660000	0.000000	0.000000	123.000000	58.000000	0.000000	0.000000
0.350000	96.410000	83.660000	0.000000	0.000000	123.000000	58.000000	9.000000	0.000000
0.360000	96.470000	83.720000	0.000000	0.000000	124.000000	57.000000	6.000000	6.000000
0.370000	96.470000	83.800000	0.000000	0.000000	124.000000	57.000000	0.000000	8.000000
0.380000	96.540000	83.880000	0.000000	0.000000	124.000000	57.000000	7.000000	8.000000
0.390000	96.540000	84.000000	0.000000	0.000000	126.000000	57.000000	0.000000	12.000000
0.400000	96.540000	84.000000	0.000000	0.000000	126.000000	57.000000	0.000000	0.000000
0.410000	96.590000	84.290000	0.000000	0.000000	124.000000	57.000000	5.000000	29.000000
0.420000	96.660000	84.410000	0.000000	0.000000	124.000000	57.000000	7.000000	12.000000
0.430000	96.750000	84.470000	0.000000	0.000000	126.000000	58.000000	9.000000	6.000000
0.440000	96.800000	84.470000	0.000000	0.000000	126.000000	58.000000	5.000000	0.000000
0.450000	96.800000	84.470000	256.000000	1.000000	126.000000	58.000000	0.000000	0.000000
0.460000	96.800000	84.470000	420.000000	0.000000	126.000000	58.000000	0.000000	0.000000
0.470000	96.950000	84.720000	572.000000	0.000000	126.000000	58.000000	15.000000	25.000000
0.480000	97.090000	84.870000	690.000000	0.000000	126.000000	58.000000	14.000000	15.000000
0.490000	97.180000	84.990000	788.000000	0.000000	126.000000	58.000000	9.000000	12.000000
0.500000	97.230000	84.990000	857.000000	0.000000	126.000000	58.000000	5.000000	0.000000
0.510000	97.230000	84.990000	917.000000	0.000000	126.000000	58.000000	0.000000	0.000000
0.520000	97.230000	84.990000	949.000000	0.000000	126.000000	58.000000	0.000000	0.000000
0.530000	97.150000	84.760000	973.000000	0.000000	128.000000	58.000000	-8.000000	-23.000000
0.540000	97.000000	84.380000	994.000000	0.000000	128.000000	58.000000	-15.000000	-38.000000
0.550000	96.730000	83.720000	982.000000	0.000000	128.000000	58.000000	-27.000000	-66.000000
0.560000	96.480000	83.180000	979.000000	0.000000	128.000000	58.000000	-25.000000	-54.000000
0.570000	96.410000	82.720000	979.000000	0.000000	128.000000	58.000000	-7.000000	-46.000000
0.580000	96.460000	82.440000	992.000000	0.000000	128.000000	58.000000	5.000000	-28.000000
0.590000	96.520000	82.310000	977.000000	0.000000	128.000000	58.000000	6.000000	-13.000000
0.600000	96.570000	82.310000	980.000000	0.000000	128.000000	58.000000	5.000000	0.000000
0.610000	96.570000	82.310000	989.000000	0.000000	128.000000	58.000000	0.000000	0.000000
0.620000	96.630000	82.490000	995.000000	0.000000	128.000000	58.000000	6.000000	18.000000
0.630000	96.690000	82.810000	995.000000	0.000000	130.000000	58.000000	6.000000	32.000000
0.640000	96.740000	83.130000	989.000000	0.000000	130.000000	58.000000	5.000000	32.000000
0.650000	96.680000	83.420000	979.000000	0.000000	131.000000	58.000000	-6.000000	29.000000
0.660000	96.550000	83.490000	979.000000	0.000000	131.000000	58.000000	-13.000000	7.000000
0.670000	96.460000	83.420000	980.000000	0.000000	131.000000	58.000000	-9.000000	-7.000000
0.680000	96.250000	83.350000	976.000000	0.000000	131.000000	58.000000	-21.000000	-7.000000
0.690000	95.950000	83.130000	964.000000	0.000000	131.000000	58.000000	-30.000000	-22.000000
0.700000	95.790000	82.820000	964.000000	0.000000	131.000000	58.000000	-16.000000	-31.000000
0.710000	95.660000	82.510000	964.000000	0.000000	131.000000	58.000000	-13.000000	-31.000000
0.720000	95.660000	82.270000	964.000000	0.000000	131.000000	58.000000	0.000000	-24.000000
0.730000	95.840000	82.080000	961.000000	0.000000	131.000000	58.000000	18.000000	-19.000000
0.740000	95.970000	81.990000	962.000000	0.000000	131.000000	58.000000	13.000000	-9.000000
0.750000	96.150000	81.990000	955.000000	0.000000	130.000000	58.000000	18.000000	0.000000
0.760000	96.390000	81.990000	956.000000	0.000000	130.000000	58.000000	24.000000	0.000000
0.770000	96.670000	82.160000	955.000000	0.000000	130.000000	58.000000	28.000000	17.000000
0.780000	96.980000	82.430000	953.000000	0.000000	130.000000	58.000000	31.000000	27.000000
0.790000	97.310000	82.790000	946.000000	0.000000	131.000000	58.000000	33.000000	36.000000
0.800000	97.610000	83.170000	947.000000	0.000000	131.000000	58.000000	30.000000	38.000000
0.810000	97.720000	83.370000	947.000000	0.000000	131.000000	58.000000	11.000000	20.000000
0.820000	97.720000	83.450000	949.000000	0.000000	131.000000	58.000000	0.000000	8.000000
0.830000	97.720000	83.450000	938.000000	0.000000	131.000000	58.000000	0.000000	0.000000
0.840000	97.620000	83.350000	934.000000	0.000000	131.000000	58.000000	-10.000000	-10.000000
0.850000	97.520000	83.070000	947.000000	0.000000	131.000000	58.000000	-10.000000	-28.000000
0.860000	97.370000	82.660000	947.000000	0.000000	131.000000	58.000000	-15.000000	-41.000000
0.870000	97.280000	82.270000	948.000000	0.000000	131.000000	58.000000	-9.000000	-39.000000
0.880000	97.280000	82.030000	948.000000	0.000000	131.000000	58.000000	0.000000	-24.000000
0.890000	97.390000	81.900000	950.000000	0.000000	131.000000	58.000000	11.000000	-13.000000
0.900000	97.480000	81.810000	938.000000	0.000000	131.000000	58.000000	9.000000	-9.000000
0.910000	97.620000	81.810000	943.000000	0.000000	129.000000	59.000000	14.000000	0.000000
0.920000	97.850000	81.960000	943.000000	0.000000	129.000000	59.000000	23.000000	15.000000
0.930000	98.160000	82.320000	943.000000	0.000000	129.000000	59.000000	31.000000	36.000000
0.940000	98.520000	82.660000	946.000000	0.000000	131.000000	60.000000	36.000000	34.000000
0.950000	98.730000	82.960000	946.000000	0.000000	131.000000	60.000000	21.000000	30.000000
0.960000	98.730000	82.960000	953.000000	0.000000	131.000000	60.000000	0.000000	0.000000
0.970000	98.810000	83.220000	958.000000	0.000000	131.000000	60.000000	8.000000	26.000000
0.980000	98.810000	83.220000	956.000000	0.000000	131.000000	60.000000	0.000000	0.000000
0.990000	98.680000	83.040000	953.000000	0.000000	131.000000	60.000000	-13.000000	-18.000000
1.000000	98.540000	82.720000	946.000000	0.000000	131.000000	60.000000	-14.000000	-32.000000
1.010000	98.380000	82.360000	941.000000	0.000000	131.000000	60.000000	-16.000000	-36.000000
1.020000	98.380000	82.150000	944.000000	0.000000	131.000000	60.000000	0.000000	-21.000000
1.030000	98.380000	82.040000	946.000000	0.000000	131.000000	60.000000	0.000000	-11.000000
1.040000	98.530000	81.920000	949.000000	0.000000	131.000000	60.000000	15.000000	-12.000000
1.050000	98.650000	81.840000	947.000000	0.000000	131.000000	60.000000	12.000000	-8.000000
1.060000	98.800000	81.840000	949.000000	0.000000	131.000000	60.000000	15.000000	0.000000
1.070000	98.970000	81.790000	953.000000	0.000000	131.000000	60.000000	17.000000	-5.000000
1.080000	99.190000	81.900000	953.000000	0.000000	131.000000	60.000000	22.000000	11.000000
1.090000	99.460000	82.080000	955.000000	0.000000	131.000000	60.000000	27.000000	18.000000
1.100000	99.730000	82.370000	958.000000	0.000000	131.000000	60.000000	27.000000	29.000000
1.110000	99.920000	82.650000	961.000000	0.000000	131.000000	60.000000	19.000000	28.000000
1.120000	100.060000	82.920000	973.000000	0.000000	131.000000	60.000000	14.000000	27.000000
1.130000	100.060000	83.190000	977.000000	0.000000	129.000000	59.000000	0.000000	27.000000
1.140000	100.060000	83.250000	984.000000	0.000000	129.000000	59.000000	0.000000	6.000000
1.150000	100.060000	83.190000	985.000000	0.000000	128.000000	58.000000	0.000000	-6.000000
1.160000	99.980000	83.100000	988.000000	0.000000	128.000000	58.000000	-8.000000	-9.000000
1.170000	99.910000	82.850000	988.000000	0.000000	128.000000	58.000000	-7.000000	-25.000000
1.180000	99.830000	82.500000	985.000000	0.000000	127.000000	57.000000	-8.000000	-35.000000
1.190000	99.720000	82.270000	982.000000	0.000000	127.000000	57.000000	-11.000000	-23.000000
1.200000	99.720000	82.100000	994.000000	0.000000	127.000000	57.000000	0.000000	-17.000000
1.210000	99.770000	81.970000	964.000000	0.000000	127.000000	57.000000	5.000000	-13.000000
1.220000	99.880000	81.900000	924.000000	0.000000	127.000000	57.000000	11.000000	-7.000000
1.230000	100.030000	81.820000	821.000000	0.000000	127.000000	57.000000	15.000000	-8.000000
1.240000	100.220000	81.740000	561.000000	0.000000	127.000000	57.000000	19.000000	-8.000000
1.250000	100.220000	81.740000	0.000000	1.000000	127.000000	57.000000	0.000000	0.000000
1.260000	100.540000	81.890000	0.000000	0.000000	127.000000	57.000000	32.000000	15.000000
1.270000	100.720000	82.080000	0.000000	0.000000	127.000000	57.000000	18.000000	19.000000
1.280000	100.850000	82.240000	0.000000	0.000000	126.000000	58.000000	13.000000	16.000000
1.290000	100.950000	82.330000	0.000000	0.000000	127.000000	59.000000	10.000000	9.000000
1.300000	101.100000	82.330000	0.000000	0.000000	127.000000	59.000000	15.000000	0.000000
1.310000	101.260000	82.330000	0.000000	0.000000	128.000000	59.000000	16.000000	0.000000
1.320000	101.360000	82.250000	0.000000	0.000000	129.000000	60.000000	10.000000	-8.000000
1.330000	101.360000	82.250000	317.000000	1.000000	129.000000	60.000000	0.000000	0.000000
1.340000	101.360000	82.250000	448.000000	0.000000	129.000000	60.000000	0.000000	0.000000
1.350000	101.360000	82.250000	572.000000	0.000000	129.000000	60.000000	0.000000	0.000000
1.360000	101.360000	82.250000	668.000000	0.000000	129.000000	60.000000	0.000000	0.000000
1.370000	101.620000	82.560000	743.000000	0.000000	128.000000	59.000000	26.000000	31.000000
1.380000	101.790000	82.760000	799.000000	0.000000	128.000000	59.000000	17.000000	20.000000
1.390000	101.930000	82.950000	878.000000	0.000000	128.000000	59.000000	14.000000	19.000000
1.400000	101.930000	83.100000	933.000000	0.000000	127.000000	59.000000	0.000000	15.000000
1.410000	101.930000	83.180000	956.000000	0.000000	127.000000	59.000000	0.000000	8.000000
1.420000	101.820000	83.280000	983.000000	0.000000	127.000000	59.000000	-11.000000	10.000000
1.430000	101.750000	83.360000	973.000000	0.000000	126.000000	58.000000	-7.000000	8.000000
1.440000	101.550000	83.360000	968.000000	0.000000	126.000000	58.000000	-20.000000	0.000000
1.450000	101.260000	83.190000	967.000000	0.000000	126.000000	58.000000	-29.000000	-17.000000
1.460000	101.000000	82.900000	964.000000	0.000000	127.000000	57.000000	-26.000000	-29.000000
1.470000	100.750000	82.570000	958.000000	0.000000	127.000000	57.000000	-25.000000	-33.000000
1.480000	100.660000	82.320000	944.000000	0.000000	127.000000	57.000000	-9.000000	-25.000000
1.490000	100.660000	82.120000	942.000000	0.000000	127.000000	57.000000	0.000000	-20.000000
1.500000	100.720000	81.990000	942.000000	0.000000	127.000000	57.000000	6.000000	-13.000000
1.510000	100.800000	81.900000	942.000000	0.000000	127.000000	57.000000	8.000000	-9.000000
1.520000	100.960000	81.850000	945.000000	0.000000	127.000000	57.000000	16.000000	-5.000000
1.530000	101.190000	81.950000	947.000000	0.000000	127.000000	57.000000	23.000000	10.000000
1.540000	101.440000	82.150000	948.000000	0.000000	126.000000	58.000000	25.000000	20.000000
1.550000	101.700000	82.430000	948.000000	0.000000	126.000000	58.000000	26.000000	28.000000
1.560000	101.890000	82.760000	950.000000	0.000000	126.000000	58.000000	19.000000	33.000000
1.570000	101.950000	83.050000	937.000000	0.000000	126.000000	58.000000	6.000000	29.000000
1.580000	101.950000	83.150000	943.000000	0.000000	127.000000	57.000000	0.000000	10.000000
1.590000	101.950000	83.150000	938.000000	0.000000	127.000000	57.000000	0.000000	0.000000
1.600000	101.950000	83.050000	935.000000	0.000000	127.000000	57.000000	0.000000	-10.000000
1.610000	101.950000	82.930000	933.000000	0.000000	127.000000	57.000000	0.000000	-12.000000
1.620000	101.840000	82.680000	948.000000	0.000000	127.000000	57.000000	-11.000000	-25.000000
1.630000	101.720000	82.370000	945.000000	0.000000	127.000000	57.000000	-12.000000	-31.000000
1.640000	101.780000	82.240000	948.000000	0.000000	127.000000	57.000000	6.000000	-13.000000
1.650000	101.860000	82.140000	951.000000	0.000000	127.000000	57.000000	8.000000	-10.000000
1.660000	101.960000	82.050000	935.000000	0.000000	127.000000	57.000000	10.000000	-9.000000
1.670000	102.080000	82.050000	935.000000	0.000000	126.000000	58.000000	12.000000	0.000000
1.680000	102.210000	82.050000	940.000000	0.000000	126.000000	58.000000	13.000000	0.000000
1.690000	102.340000	82.170000	943.000000	0.000000	127.000000	59.000000	13.000000	12.000000
1.700000	102.550000	82.380000	943.000000	0.000000	127.000000	59.000000	21.000000	21.000000
1.710000	102.740000	82.640000	955.000000	0.000000	127.000000	59.000000	19.000000	26.000000
1.720000	102.900000	82.930000	962.000000	0.000000	127.000000	59.000000	16.000000	29.000000
1.730000	103.050000	83.270000	974.000000	0.000000	127.000000	59.000000	15.000000	34.000000
1.740000	103.150000	83.580000	988.000000	0.000000	127.000000	59.000000	10.000000	31.000000
1.750000	103.150000	83.660000	997.000000	0.000000	127.000000	59.000000	0.000000	8.000000
1.760000	103.150000	83.600000	1000.000000	0.000000	127.000000	59.000000	0.000000	-6.000000
1.770000	103.030000	83.390000	1003.000000	0.000000	127.000000	59.000000	-12.000000	-21.000000
1.780000	102.890000	83.010000	990.000000	0.000000	127.000000	59.000000	-14.000000	-38.000000
1.790000	102.720000	82.520000	978.000000	0.000000	128.000000	58.000000	-17.000000	-49.000000
1.800000	102.670000	82.200000	962.000000	0.000000	128.000000	58.000000	-5.000000	-32.000000
1.810000	102.770000	82.020000	912.000000	0.000000	128.000000	58.000000	10.000000	-18.000000
1.820000	102.980000	81.930000	852.000000	0.000000	127.000000	59.000000	21.000000	-9.000000
1.830000	103.270000	81.990000	734.000000	0.000000	127.000000	59.000000	29.000000	6.000000
1.840000	103.590000	82.180000	488.000000	0.000000	127.000000	59.000000	32.000000	19.000000
1.850000	103.590000	82.180000	0.000000	1.000000	128.000000	59.000000	0.000000	0.000000
1.860000	104.210000	82.840000	0.000000	0.000000	128.000000	59.000000	62.000000	66.000000
1.870000	104.370000	83.210000	0.000000	0.000000	128.000000	59.000000	16.000000	37.000000
1.880000	104.370000	83.570000	0.000000	0.000000	128.000000	59.000000	0.000000	36.000000
1.890000	104.300000	83.730000	0.000000	0.000000	128.000000	59.000000	-7.000000	16.000000
1.900000	104.180000	83.840000	0.000000	0.000000	129.000000	60.000000	-12.000000	11.000000
1.910000	104.180000	83.840000	61.000000	1.000000	129.000000	60.000000	0.000000	0.000000
1.920000	103.820000	83.900000	359.000000	0.000000	129.000000	60.000000	-36.000000	6.000000
1.930000	103.600000	83.900000	473.000000	0.000000	129.000000	60.000000	-22.000000	0.000000
1.940000	103.600000	83.980000	493.000000	0.000000	129.000000	60.000000	0.000000	8.000000
1.950000	103.600000	84.070000	441.000000	0.000000	129.000000	60.000000	0.000000	9.000000
1.960000	103.730000	84.120000	181.000000	0.000000	129.000000	60.000000	13.000000	5.000000
1.970000	103.730000	84.120000	0.000000	1.000000	129.000000	60.000000	0.000000	0.000000
1.980000	103.920000	84.030000	0.000000	0.000000	128.000000	59.000000	19.000000	-9.000000
1.990000	103.920000	83.820000	0.000000	0.000000	128.000000	59.000000	0.000000	-21.000000
2.000000	103.860000	83.630000	0.000000	0.000000	128.000000	59.000000	-6.000000	-19.000000
2.010000	103.920000	83.450000	0.000000	0.000000	128.000000	59.000000	6.000000	-18.000000
2.020000	104.100000	83.340000	0.000000	0.000000	129.000000	60.000000	18.000000	-11.000000
2.030000	104.350000	83.260000	0.000000	0.000000	129.000000	60.000000	25.000000	-8.000000
2.040000	104.540000	83.260000	0.000000	0.000000	129.000000	60.000000	19.000000	0.000000
2.050000	104.650000	83.260000	0.000000	0.000000	129.000000	60.000000	11.000000	0.000000
2.060000	104.710000	83.260000	0.000000	0.000000	129.000000	60.000000	6.000000	0.000000
2.070000	104.710000	83.260000	233.000000	1.000000	129.000000	60.000000	0.000000	0.000000
2.080000	104.710000	83.260000	420.000000	0.000000	129.000000	60.000000	0.000000	0.000000
2.090000	104.830000	83.550000	614.000000	0.000000	129.000000	60.000000	12.000000	29.000000
2.100000	104.940000	83.630000	721.000000	0.000000	129.000000	60.000000	11.000000	8.000000
2.110000	104.940000	83.630000	828.000000	0.000000	129.000000	60.000000	0.000000	0.000000
2.120000	104.940000	83.630000	899.000000	0.000000	129.000000	60.000000	0.000000	0.000000
2.130000	104.940000	83.630000	917.000000	0.000000	129.000000	60.000000	0.000000	0.000000
2.140000	104.670000	83.460000	948.000000	0.000000	129.000000	60.000000	-27.000000	-17.000000
2.150000	104.370000	83.150000	950.000000	0.000000	129.000000	60.000000	-30.000000	-31.000000
2.160000	104.010000	82.750000	959.000000	0.000000	129.000000	60.000000	-36.000000	-40.000000
2.170000	103.950000	82.450000	970.000000	0.000000	129.000000	60.000000	-6.000000	-30.000000
2.180000	103.950000	82.270000	968.000000	0.000000	129.000000	60.000000	0.000000	-18.000000
2.190000	104.050000	82.140000	974.000000	0.000000	129.000000	60.000000	10.000000	-13.000000
2.200000	104.290000	82.140000	982.000000	0.000000	128.000000	59.000000	24.000000	0.000000
