t	x	y	pressure	penup	azimuth	inclination	v_x	v_y
0.000000	84.850000	43.010000	158.000000	1.000000	128.000000	68.000000	0.000000	0.000000
0.010000	84.760000	42.720000	175.000000	0.000000	128.000000	68.000000	-9.000000	-29.000000
0.020000	84.760000	42.650000	237.000000	0.000000	128.000000	68.000000	0.000000	-7.000000
0.030000	84.760000	42.650000	311.000000	0.000000	128.000000	68.000000	0.000000	0.000000
0.040000	84.810000	42.550000	341.000000	0.000000	128.000000	68.000000	5.000000	-10.000000
0.050000	84.880000	42.550000	391.000000	0.000000	128.000000	68.000000	7.000000	0.000000
0.060000	85.010000	42.550000	436.000000	0.000000	128.000000	68.000000	13.000000	0.000000
0.070000	85.220000	42.670000	475.000000	0.000000	128.000000	68.000000	21.000000	12.000000
0.080000	85.520000	42.990000	532.000000	0.000000	125.000000	68.000000	30.000000	32.000000
0.090000	85.960000	43.590000	586.000000	0.000000	125.000000	68.000000	44.000000	60.000000
0.100000	86.480000	44.390000	631.000000	0.000000	127.000000	69.000000	52.000000	80.000000
0.110000	87.030000	45.330000	650.000000	0.000000	127.000000	69.000000	55.000000	94.000000
0.120000	87.620000	46.660000	643.000000	0.000000	127.000000	69.000000	59.000000	133.000000
0.130000	88.260000	48.260000	620.000000	0.000000	129.000000	70.000000	64.000000	160.000000
0.140000	88.870000	50.180000	617.000000	0.000000	131.000000	69.000000	61.000000	192.000000
0.150000	89.290000	51.820000	620.000000	0.000000	133.000000	69.000000	42.000000	164.000000
0.160000	89.620000	53.280000	625.000000	0.000000	135.000000	68.000000	33.000000	146.000000
0.170000	89.730000	54.200000	636.000000	0.000000	137.000000	67.000000	11.000000	92.000000
0.180000	89.730000	54.610000	647.000000	0.000000	139.000000	67.000000	0.000000	41.000000
0.190000	89.620000	54.680000	641.000000	0.000000	140.000000	66.000000	-11.000000	7.000000
0.200000	89.560000	54.500000	652.000000	0.000000	142.000000	65.000000	-6.000000	-18.000000
0.210000	89.340000	53.750000	681.000000	0.000000	141.000000	64.000000	-22.000000	-75.000000
0.220000	89.020000	52.620000	699.000000	0.000000	143.000000	63.000000	-32.000000	-113.000000
0.230000	88.570000	50.980000	716.000000	0.000000	143.000000	63.000000	-45.000000	-164.000000
0.240000	88.360000	49.660000	721.000000	0.000000	143.000000	63.000000	-21.000000	-132.000000
0.250000	88.310000	48.560000	722.000000	0.000000	145.000000	64.000000	-5.000000	-110.000000
0.260000	88.310000	47.650000	728.000000	0.000000	143.000000	64.000000	0.000000	-91.000000
0.270000	88.310000	47.070000	734.000000	0.000000	144.000000	66.000000	0.000000	-58.000000
0.280000	88.310000	46.710000	739.000000	0.000000	142.000000	66.000000	0.000000	-36.000000
0.290000	88.310000	46.460000	746.000000	0.000000	142.000000	68.000000	0.000000	-25.000000
0.300000	88.240000	46.410000	754.000000	0.000000	141.000000	68.000000	-7.000000	-5.000000
0.310000	88.240000	46.500000	749.000000	0.000000	139.000000	69.000000	0.000000	9.000000
0.320000	88.170000	46.650000	745.000000	0.000000	139.000000	71.000000	-7.000000	15.000000
0.330000	88.080000	47.110000	748.000000	0.000000	139.000000	71.000000	-9.000000	46.000000
0.340000	88.080000	47.780000	731.000000	0.000000	139.000000	71.000000	0.000000	67.000000
0.350000	88.180000	48.440000	717.000000	0.000000	139.000000	71.000000	10.000000	66.000000
0.360000	88.350000	49.010000	719.000000	0.000000	141.000000	70.000000	17.000000	57.000000
0.370000	88.350000	49.510000	717.000000	0.000000	139.000000	69.000000	0.000000	50.000000
0.380000	88.350000	49.670000	728.000000	0.000000	141.000000	68.000000	0.000000	16.000000
0.390000	88.350000	49.790000	733.000000	0.000000	142.000000	68.000000	0.000000	12.000000
0.400000	88.350000	49.790000	728.000000	0.000000	142.000000	68.000000	0.000000	0.000000
0.410000	88.350000	49.790000	725.000000	0.000000	144.000000	67.000000	0.000000	0.000000
0.420000	88.350000	49.600000	727.000000	0.000000	144.000000	67.000000	0.000000	-19.000000
0.430000	88.350000	49.360000	727.000000	0.000000	144.000000	67.000000	0.000000	-24.000000
0.440000	88.430000	49.080000	727.000000	0.000000	146.000000	66.000000	8.000000	-28.000000
0.450000	88.570000	48.850000	728.000000	0.000000	146.000000	66.000000	14.000000	-23.000000
0.460000	88.780000	48.660000	730.000000	0.000000	144.000000	67.000000	21.000000	-19.000000
0.470000	89.160000	48.560000	728.000000	0.000000	144.000000	67.000000	38.000000	-10.000000
0.480000	89.650000	48.560000	727.000000	0.000000	144.000000	67.000000	49.000000	0.000000
0.490000	90.010000	48.560000	716.000000	0.000000	142.000000	68.000000	36.000000	0.000000
0.500000	90.380000	48.700000	693.000000	0.000000	142.000000	68.000000	37.000000	14.000000
0.510000	90.680000	48.940000	697.000000	0.000000	140.000000	67.000000	30.000000	24.000000
0.520000	90.930000	49.220000	697.000000	0.000000	140.000000	67.000000	25.000000	28.000000
0.530000	91.090000	49.460000	696.000000	0.000000	140.000000	67.000000	16.000000	24.000000
0.540000	91.160000	49.680000	699.000000	0.000000	140.000000	67.000000	7.000000	22.000000
0.550000	91.160000	49.880000	702.000000	0.000000	140.000000	67.000000	0.000000	20.000000
0.560000	91.160000	50.030000	697.000000	0.000000	140.000000	67.000000	0.000000	15.000000
0.570000	91.160000	50.030000	703.000000	0.000000	140.000000	67.000000	0.000000	0.000000
0.580000	91.160000	50.030000	708.000000	0.000000	142.000000	66.000000	0.000000	0.000000
0.590000	91.160000	50.030000	716.000000	0.000000	142.000000	66.000000	0.000000	0.000000
0.600000	91.160000	49.830000	730.000000	0.000000	142.000000	66.000000	0.000000	-20.000000
0.610000	91.070000	49.570000	733.000000	0.000000	144.000000	66.000000	-9.000000	-26.000000
0.620000	90.980000	49.250000	728.000000	0.000000	142.000000	66.000000	-9.000000	-32.000000
0.630000	90.980000	48.940000	730.000000	0.000000	142.000000	66.000000	0.000000	-31.000000
0.640000	91.040000	48.680000	739.000000	0.000000	142.000000	66.000000	6.000000	-26.000000
0.650000	91.090000	48.480000	742.000000	0.000000	140.000000	67.000000	5.000000	-20.000000
0.660000	91.150000	48.310000	743.000000	0.000000	140.000000	67.000000	6.000000	-17.000000
0.670000	91.230000	48.200000	739.000000	0.000000	140.000000	67.000000	8.000000	-11.000000
0.680000	91.330000	48.200000	737.000000	0.000000	139.000000	68.000000	10.000000	0.000000
0.690000	91.330000	48.200000	736.000000	0.000000	139.000000	68.000000	0.000000	0.000000
0.700000	91.620000	48.280000	728.000000	0.000000	139.000000	68.000000	29.000000	8.000000
0.710000	91.850000	48.460000	728.000000	0.000000	139.000000	68.000000	23.000000	18.000000
0.720000	92.090000	48.710000	728.000000	0.000000	139.000000	68.000000	24.000000	25.000000
0.730000	92.330000	49.050000	727.000000	0.000000	139.000000	68.000000	24.000000	34.000000
0.740000	92.470000	49.280000	728.000000	0.000000	141.000000	68.000000	14.000000	23.000000
0.750000	92.540000	49.450000	730.000000	0.000000	141.000000	68.000000	7.000000	17.000000
0.760000	92.540000	49.620000	730.000000	0.000000	141.000000	68.000000	0.000000	17.000000
0.770000	92.600000	49.780000	728.000000	0.000000	142.000000	68.000000	6.000000	16.000000
0.780000	92.600000	49.910000	730.000000	0.000000	142.000000	68.000000	0.000000	13.000000
0.790000	92.600000	49.910000	730.000000	0.000000	142.000000	68.000000	0.000000	0.000000
0.800000	92.600000	49.910000	736.000000	0.000000	144.000000	67.000000	0.000000	0.000000
0.810000	92.600000	49.910000	737.000000	0.000000	144.000000	67.000000	0.000000	0.000000
0.820000	92.600000	49.820000	746.000000	0.000000	144.000000	67.000000	0.000000	-9.000000
0.830000	92.540000	49.640000	754.000000	0.000000	144.000000	67.000000	-6.000000	-18.000000
0.840000	92.490000	49.400000	754.000000	0.000000	144.000000	67.000000	-5.000000	-24.000000
0.850000	92.490000	49.160000	757.000000	0.000000	144.000000	67.000000	0.000000	-24.000000
0.860000	92.440000	48.950000	761.000000	0.000000	144.000000	67.000000	-5.000000	-21.000000
0.870000	92.440000	48.720000	754.000000	0.000000	142.000000	68.000000	0.000000	-23.000000
0.880000	92.530000	48.540000	760.000000	0.000000	142.000000	68.000000	9.000000	-18.000000
0.890000	92.600000	48.370000	762.000000	0.000000	142.000000	68.000000	7.000000	-17.000000
0.900000	92.660000	48.280000	760.000000	0.000000	141.000000	68.000000	6.000000	-9.000000
0.910000	92.740000	48.170000	754.000000	0.000000	141.000000	68.000000	8.000000	-11.000000
0.920000	92.830000	48.110000	761.000000	0.000000	141.000000	68.000000	9.000000	-6.000000
0.930000	92.950000	48.110000	760.000000	0.000000	141.000000	68.000000	12.000000	0.000000
0.940000	93.190000	48.240000	751.000000	0.000000	141.000000	68.000000	24.000000	13.000000
0.950000	93.510000	48.430000	748.000000	0.000000	141.000000	68.000000	32.000000	19.000000
0.960000	93.730000	48.640000	743.000000	0.000000	143.000000	69.000000	22.000000	21.000000
0.970000	94.010000	48.900000	740.000000	0.000000	143.000000	69.000000	28.000000	26.000000
0.980000	94.250000	49.160000	740.000000	0.000000	143.000000	69.000000	24.000000	26.000000
0.990000	94.430000	49.390000	739.000000	0.000000	143.000000	69.000000	18.000000	23.000000
1.000000	94.500000	49.610000	740.000000	0.000000	145.000000	70.000000	7.000000	22.000000
1.010000	94.550000	49.760000	743.000000	0.000000	145.000000	70.000000	5.000000	15.000000
1.020000	94.550000	49.890000	740.000000	0.000000	147.000000	69.000000	0.000000	13.000000
1.030000	94.640000	49.980000	742.000000	0.000000	147.000000	69.000000	9.000000	9.000000
1.040000	94.700000	49.980000	745.000000	0.000000	147.000000	69.000000	6.000000	0.000000
1.050000	94.700000	49.980000	748.000000	0.000000	148.000000	68.000000	0.000000	0.000000
1.060000	94.630000	49.980000	757.000000	0.000000	148.000000	68.000000	-7.000000	0.000000
1.070000	94.630000	49.910000	760.000000	0.000000	148.000000	68.000000	0.000000	-7.000000
1.080000	94.520000	49.730000	756.000000	0.000000	148.000000	68.000000	-11.000000	-18.000000
1.090000	94.380000	49.460000	762.000000	0.000000	148.000000	68.000000	-14.000000	-27.000000
1.100000	94.330000	49.240000	768.000000	0.000000	148.000000	68.000000	-5.000000	-22.000000
1.110000	94.220000	49.010000	777.000000	0.000000	148.000000	68.000000	-11.000000	-23.000000
1.120000	94.220000	48.790000	780.000000	0.000000	147.000000	69.000000	0.000000	-22.000000
1.130000	94.220000	48.640000	785.000000	0.000000	147.000000	69.000000	0.000000	-15.000000
1.140000	94.360000	48.530000	791.000000	0.000000	147.000000	69.000000	14.000000	-11.000000
1.150000	94.450000	48.420000	785.000000	0.000000	145.000000	70.000000	9.000000	-11.000000
1.160000	94.540000	48.420000	784.000000	0.000000	145.000000	70.000000	9.000000	0.000000
1.170000	94.730000	48.420000	770.000000	0.000000	145.000000	70.000000	19.000000	0.000000
1.180000	94.970000	48.420000	745.000000	0.000000	145.000000	70.000000	24.000000	0.000000
1.190000	95.270000	48.480000	697.000000	0.000000	145.000000	70.000000	30.000000	6.000000
1.200000	95.540000	48.590000	667.000000	0.000000	148.000000	70.000000	27.000000	11.000000
1.210000	95.720000	48.700000	602.000000	0.000000	148.000000	70.000000	18.000000	11.000000
1.220000	95.920000	48.840000	492.000000	0.000000	148.000000	70.000000	20.000000	14.000000
1.230000	96.110000	49.010000	369.000000	0.000000	148.000000	70.000000	19.000000	17.000000
1.240000	96.290000	49.230000	213.000000	0.000000	148.000000	70.000000	18.000000	22.000000
1.250000	96.450000	49.410000	95.000000	0.000000	150.000000	71.000000	16.000000	18.000000
1.260000	96.610000	49.530000	63.000000	0.000000	150.000000	71.000000	16.000000	12.000000
1.270000	96.770000	49.640000	48.000000	0.000000	150.000000	71.000000	16.000000	11.000000
1.280000	96.910000	49.720000	120.000000	0.000000	150.000000	71.000000	14.000000	8.000000
1.290000	97.040000	49.790000	240.000000	0.000000	152.000000	70.000000	13.000000	7.000000
1.300000	97.160000	49.880000	343.000000	0.000000	152.000000	70.000000	12.000000	9.000000
1.310000	97.220000	49.980000	417.000000	0.000000	154.000000	70.000000	6.000000	10.000000
1.320000	97.220000	50.050000	474.000000	0.000000	154.000000	70.000000	0.000000	7.000000
1.330000	97.220000	50.140000	516.000000	0.000000	154.000000	70.000000	0.000000	9.000000
1.340000	97.220000	50.240000	561.000000	0.000000	155.000000	69.000000	0.000000	10.000000
1.350000	97.220000	50.240000	592.000000	0.000000	155.000000	69.000000	0.000000	0.000000
1.360000	97.130000	50.240000	595.000000	0.000000	155.000000	69.000000	-9.000000	0.000000
1.370000	96.980000	50.240000	620.000000	0.000000	155.000000	69.000000	-15.000000	0.000000
1.380000	96.760000	50.080000	647.000000	0.000000	155.000000	69.000000	-22.000000	-16.000000
1.390000	96.570000	49.950000	694.000000	0.000000	155.000000	69.000000	-19.000000	-13.000000
1.400000	96.410000	49.780000	721.000000	0.000000	155.000000	69.000000	-16.000000	-17.000000
1.410000	96.280000	49.570000	731.000000	0.000000	155.000000	69.000000	-13.000000	-21.000000
1.420000	96.170000	49.320000	748.000000	0.000000	155.000000	69.000000	-11.000000	-25.000000
1.430000	96.110000	49.080000	763.000000	0.000000	155.000000	69.000000	-6.000000	-24.000000
1.440000	96.110000	48.870000	756.000000	0.000000	152.000000	70.000000	0.000000	-21.000000
1.450000	96.190000	48.700000	762.000000	0.000000	152.000000	70.000000	8.000000	-17.000000
1.460000	96.270000	48.560000	770.000000	0.000000	152.000000	70.000000	8.000000	-14.000000
1.470000	96.390000	48.420000	777.000000	0.000000	150.000000	71.000000	12.000000	-14.000000
1.480000	96.560000	48.330000	779.000000	0.000000	150.000000	71.000000	17.000000	-9.000000
1.490000	96.720000	48.270000	777.000000	0.000000	150.000000	71.000000	16.000000	-6.000000
1.500000	96.850000	48.330000	770.000000	0.000000	150.000000	71.000000	13.000000	6.000000
1.510000	97.060000	48.470000	760.000000	0.000000	150.000000	71.000000	21.000000	14.000000
1.520000	97.250000	48.670000	760.000000	0.000000	150.000000	71.000000	19.000000	20.000000
1.530000	97.410000	48.900000	757.000000	0.000000	153.000000	71.000000	16.000000	23.000000
1.540000	97.560000	49.130000	753.000000	0.000000	153.000000	71.000000	15.000000	23.000000
1.550000	97.670000	49.340000	750.000000	0.000000	153.000000	71.000000	11.000000	21.000000
1.560000	97.720000	49.510000	751.000000	0.000000	153.000000	71.000000	5.000000	17.000000
1.570000	97.720000	49.650000	750.000000	0.000000	153.000000	71.000000	0.000000	14.000000
1.580000	97.720000	49.750000	763.000000	0.000000	153.000000	71.000000	0.000000	10.000000
1.590000	97.720000	49.840000	763.000000	0.000000	153.000000	71.000000	0.000000	9.000000
1.600000	97.720000	49.900000	753.000000	0.000000	154.000000	70.000000	0.000000	6.000000
1.610000	97.720000	49.900000	753.000000	0.000000	154.000000	70.000000	0.000000	0.000000
1.620000	97.720000	49.900000	757.000000	0.000000	154.000000	70.000000	0.000000	0.000000
1.630000	97.720000	49.830000	767.000000	0.000000	155.000000	69.000000	0.000000	-7.000000
1.640000	97.640000	49.620000	770.000000	0.000000	155.000000	69.000000	-8.000000	-21.000000
1.650000	97.640000	49.310000	779.000000	0.000000	155.000000	69.000000	0.000000	-31.000000
1.660000	97.580000	49.090000	780.000000	0.000000	154.000000	70.000000	-6.000000	-22.000000
1.670000	97.580000	48.940000	785.000000	0.000000	154.000000	70.000000	0.000000	-15.000000
1.680000	97.630000	48.850000	787.000000	0.000000	154.000000	70.000000	5.000000	-9.000000
1.690000	97.700000	48.720000	784.000000	0.000000	153.000000	71.000000	7.000000	-13.000000
1.700000	97.760000	48.620000	776.000000	0.000000	153.000000	71.000000	6.000000	-10.000000
1.710000	97.890000	48.620000	767.000000	0.000000	153.000000	71.000000	13.000000	0.000000
1.720000	98.090000	48.620000	753.000000	0.000000	153.000000	71.000000	20.000000	0.000000
1.730000	98.340000	48.720000	754.000000	0.000000	153.000000	71.000000	25.000000	10.000000
1.740000	98.530000	48.820000	745.000000	0.000000	153.000000	71.000000	19.000000	10.000000
1.750000	98.680000	48.930000	739.000000	0.000000	155.000000	71.000000	15.000000	11.000000
1.760000	98.820000	49.140000	740.000000	0.000000	155.000000	71.000000	14.000000	21.000000
1.770000	98.960000	49.340000	746.000000	0.000000	155.000000	71.000000	14.000000	20.000000
1.780000	99.050000	49.530000	751.000000	0.000000	155.000000	71.000000	9.000000	19.000000
1.790000	99.100000	49.710000	754.000000	0.000000	155.000000	71.000000	5.000000	18.000000
1.800000	99.100000	49.870000	760.000000	0.000000	155.000000	71.000000	0.000000	16.000000
1.810000	99.100000	49.960000	750.000000	0.000000	158.000000	72.000000	0.000000	9.000000
1.820000	99.100000	49.960000	753.000000	0.000000	158.000000	72.000000	0.000000	0.000000
1.830000	99.100000	49.960000	759.000000	0.000000	159.000000	71.000000	0.000000	0.000000
1.840000	99.100000	49.960000	767.000000	0.000000	159.000000	71.000000	0.000000	0.000000
1.850000	99.100000	49.860000	777.000000	0.000000	159.000000	71.000000	0.000000	-10.000000
1.860000	99.010000	49.610000	793.000000	0.000000	159.000000	71.000000	-9.000000	-25.000000
1.870000	98.890000	49.260000	791.000000	0.000000	159.000000	71.000000	-12.000000	-35.000000
1.880000	98.890000	48.990000	805.000000	0.000000	159.000000	71.000000	0.000000	-27.000000
1.890000	98.890000	48.720000	809.000000	0.000000	159.000000	71.000000	0.000000	-27.000000
1.900000	98.890000	48.540000	814.000000	0.000000	158.000000	72.000000	0.000000	-18.000000
1.910000	98.980000	48.430000	814.000000	0.000000	158.000000	72.000000	9.000000	-11.000000
1.920000	99.090000	48.320000	809.000000	0.000000	158.000000	72.000000	11.000000	-11.000000
1.930000	99.220000	48.320000	790.000000	0.000000	157.000000	73.000000	13.000000	0.000000
1.940000	99.430000	48.390000	760.000000	0.000000	157.000000	73.000000	21.000000	7.000000
1.950000	99.620000	48.490000	727.000000	0.000000	157.000000	73.000000	19.000000	10.000000
1.960000	99.770000	48.690000	652.000000	0.000000	157.000000	73.000000	15.000000	20.000000
1.970000	99.860000	48.970000	588.000000	0.000000	154.000000	72.000000	9.000000	28.000000
1.980000	99.910000	49.220000	496.000000	0.000000	151.000000	72.000000	5.000000	25.000000
1.990000	99.910000	49.460000	377.000000	0.000000	148.000000	71.000000	0.000000	24.000000
2.000000	99.850000	49.690000	244.000000	0.000000	148.000000	71.000000	-6.000000	23.000000
2.010000	99.780000	49.930000	188.000000	0.000000	146.000000	71.000000	-7.000000	24.000000
2.020000	99.700000	50.200000	153.000000	0.000000	148.000000	70.000000	-8.000000	27.000000
2.030000	99.610000	50.440000	144.000000	0.000000	148.000000	70.000000	-9.000000	24.000000
2.040000	99.520000	50.630000	190.000000	0.000000	148.000000	70.000000	-9.000000	19.000000
2.050000	99.470000	50.770000	257.000000	0.000000	152.000000	70.000000	-5.000000	14.000000
2.060000	99.470000	50.860000	389.000000	0.000000	154.000000	70.000000	0.000000	9.000000
2.070000	99.410000	50.920000	474.000000	0.000000	157.000000	71.000000	-6.000000	6.000000
2.080000	99.410000	50.920000	540.000000	0.000000	160.000000	70.000000	0.000000	0.000000
2.090000	99.410000	50.920000	567.000000	0.000000	163.000000	70.000000	0.000000	0.000000
2.100000	99.410000	50.920000	567.000000	0.000000	163.000000	70.000000	0.000000	0.000000
2.110000	99.410000	50.920000	541.000000	0.000000	166.000000	70.000000	0.000000	0.000000
2.120000	99.410000	50.830000	425.000000	0.000000	166.000000	70.000000	0.000000	-9.000000
2.130000	99.500000	50.750000	137.000000	0.000000	166.000000	70.000000	9.000000	-8.000000
2.140000	99.500000	50.750000	0.000000	1.000000	166.000000	70.000000	0.000000	0.000000
2.150000	99.570000	50.620000	0.000000	0.000000	166.000000	70.000000	7.000000	-13.000000
2.160000	99.640000	50.570000	0.000000	0.000000	166.000000	70.000000	7.000000	-5.000000
2.170000	99.760000	50.570000	0.000000	0.000000	166.000000	70.000000	12.000000	0.000000
2.180000	99.900000	50.510000	0.000000	0.000000	163.000000	70.000000	14.000000	-6.000000
2.190000	100.160000	50.390000	0.000000	0.000000	162.000000	71.000000	26.000000	-12.000000
2.200000	100.480000	50.260000	0.000000	0.000000	159.000000	71.000000	32.000000	-13.000000
2.210000	100.770000	50.120000	0.000000	0.000000	159.000000	71.000000	29.000000	-14.000000
