t	x	y	pressure	penup	azimuth	inclination	v_x	v_y
0.000000	14.920000	89.500000	60.000000	1.000000	146.000000	63.000000	0.000000	0.000000
0.010000	15.000000	89.820000	91.000000	0.000000	149.000000	63.000000	8.000000	32.000000
0.020000	15.000000	89.900000	148.000000	0.000000	149.000000	63.000000	0.000000	8.000000
0.030000	15.000000	89.960000	183.000000	0.000000	149.000000	63.000000	0.000000	6.000000
0.040000	14.940000	89.960000	226.000000	0.000000	149.000000	63.000000	-6.000000	0.000000
0.050000	14.940000	89.960000	256.000000	0.000000	149.000000	63.000000	0.000000	0.000000
0.060000	14.940000	89.960000	270.000000	0.000000	148.000000	63.000000	0.000000	0.000000
0.070000	14.940000	89.850000	319.000000	0.000000	148.000000	63.000000	0.000000	-11.000000
0.080000	14.940000	89.510000	348.000000	0.000000	146.000000	63.000000	0.000000	-34.000000
0.090000	14.940000	89.010000	382.000000	0.000000	146.000000	63.000000	0.000000	-50.000000
0.100000	14.730000	88.300000	402.000000	0.000000	147.000000	62.000000	-21.000000	-71.000000
0.110000	14.440000	87.400000	440.000000	0.000000	147.000000	62.000000	-29.000000	-90.000000
0.120000	14.070000	86.380000	472.000000	0.000000	146.000000	62.000000	-37.000000	-102.000000
0.130000	13.670000	85.200000	505.000000	0.000000	146.000000	62.000000	-40.000000	-118.000000
0.140000	13.280000	83.890000	527.000000	0.000000	143.000000	62.000000	-39.000000	-131.000000
0.150000	12.860000	82.490000	537.000000	0.000000	141.000000	61.000000	-42.000000	-140.000000
0.160000	12.410000	81.260000	585.000000	0.000000	141.000000	61.000000	-45.000000	-123.000000
0.170000	12.140000	80.340000	616.000000	0.000000	138.000000	61.000000	-27.000000	-92.000000
0.180000	11.930000	79.640000	655.000000	0.000000	136.000000	61.000000	-21.000000	-70.000000
0.190000	11.840000	79.180000	666.000000	0.000000	135.000000	60.000000	-9.000000	-46.000000
0.200000	11.840000	79.180000	678.000000	0.000000	134.000000	60.000000	0.000000	0.000000
0.210000	11.840000	79.180000	687.000000	0.000000	134.000000	60.000000	0.000000	0.000000
0.220000	11.840000	79.180000	675.000000	0.000000	132.000000	59.000000	0.000000	0.000000
0.230000	11.840000	79.180000	620.000000	0.000000	134.000000	60.000000	0.000000	0.000000
0.240000	11.840000	79.180000	389.000000	0.000000	134.000000	60.000000	0.000000	0.000000
0.250000	11.840000	79.180000	0.000000	1.000000	134.000000	60.000000	0.000000	0.000000
0.260000	12.150000	80.230000	0.000000	0.000000	135.000000	60.000000	31.000000	105.000000
0.270000	12.360000	81.110000	0.000000	0.000000	135.000000	60.000000	21.000000	88.000000
0.280000	12.420000	81.520000	0.000000	0.000000	135.000000	60.000000	6.000000	41.000000
0.290000	12.510000	81.720000	0.000000	0.000000	135.000000	62.000000	9.000000	20.000000
0.300000	12.630000	81.770000	0.000000	0.000000	135.000000	62.000000	12.000000	5.000000
0.310000	12.740000	81.770000	0.000000	0.000000	137.000000	62.000000	11.000000	0.000000
0.320000	12.800000	81.930000	0.000000	0.000000	135.000000	63.000000	6.000000	16.000000
0.330000	12.800000	82.230000	0.000000	0.000000	135.000000	63.000000	0.000000	30.000000
0.340000	12.900000	82.460000	0.000000	0.000000	135.000000	63.000000	10.000000	23.000000
0.350000	12.900000	82.660000	0.000000	0.000000	135.000000	63.000000	0.000000	20.000000
0.360000	12.840000	82.830000	0.000000	0.000000	135.000000	63.000000	-6.000000	17.000000
0.370000	12.760000	82.770000	0.000000	0.000000	135.000000	63.000000	-8.000000	-6.000000
0.380000	12.580000	82.580000	0.000000	0.000000	137.000000	62.000000	-18.000000	-19.000000
0.390000	12.320000	82.300000	0.000000	0.000000	137.000000	62.000000	-26.000000	-28.000000
0.400000	11.930000	82.040000	0.000000	0.000000	137.000000	62.000000	-39.000000	-26.000000
0.410000	11.540000	81.780000	0.000000	0.000000	137.000000	62.000000	-39.000000	-26.000000
0.420000	11.140000	81.590000	0.000000	0.000000	137.000000	62.000000	-40.000000	-19.000000
0.430000	10.870000	81.460000	0.000000	0.000000	137.000000	62.000000	-27.000000	-13.000000
0.440000	10.760000	81.400000	0.000000	0.000000	135.000000	63.000000	-11.000000	-6.000000
0.450000	10.760000	81.400000	0.000000	0.000000	137.000000	63.000000	0.000000	0.000000
0.460000	10.850000	81.480000	0.000000	0.000000	137.000000	63.000000	9.000000	8.000000
0.470000	10.980000	81.690000	0.000000	0.000000	137.000000	63.000000	13.000000	21.000000
0.480000	11.160000	81.970000	0.000000	0.000000	137.000000	63.000000	18.000000	28.000000
0.490000	11.400000	82.300000	0.000000	0.000000	137.000000	63.000000	24.000000	33.000000
0.500000	11.700000	82.690000	0.000000	0.000000	137.000000	63.000000	30.000000	39.000000
0.510000	12.050000	83.060000	0.000000	0.000000	137.000000	63.000000	35.000000	37.000000
0.520000	12.420000	83.410000	0.000000	0.000000	138.000000	63.000000	37.000000	35.000000
0.530000	12.790000	83.750000	0.000000	0.000000	138.000000	63.000000	37.000000	34.000000
0.540000	13.090000	84.070000	0.000000	0.000000	138.000000	63.000000	30.000000	32.000000
0.550000	13.340000	84.320000	0.000000	0.000000	140.000000	62.000000	25.000000	25.000000
0.560000	13.450000	84.500000	0.000000	0.000000	140.000000	62.000000	11.000000	18.000000
0.570000	13.450000	84.500000	0.000000	0.000000	141.000000	63.000000	0.000000	0.000000
0.580000	13.310000	84.500000	0.000000	0.000000	143.000000	62.000000	-14.000000	0.000000
0.590000	13.230000	84.500000	0.000000	0.000000	143.000000	62.000000	-8.000000	0.000000
0.600000	13.230000	84.500000	0.000000	0.000000	143.000000	62.000000	0.000000	0.000000
0.610000	13.230000	84.500000	0.000000	0.000000	143.000000	62.000000	0.000000	0.000000
0.620000	13.230000	84.580000	0.000000	0.000000	143.000000	62.000000	0.000000	8.000000
0.630000	13.300000	84.640000	0.000000	0.000000	143.000000	62.000000	7.000000	6.000000
0.640000	13.380000	84.720000	0.000000	0.000000	143.000000	62.000000	8.000000	8.000000
0.650000	13.440000	84.800000	0.000000	0.000000	143.000000	62.000000	6.000000	8.000000
0.660000	13.490000	84.870000	0.000000	0.000000	143.000000	62.000000	5.000000	7.000000
0.670000	13.490000	84.870000	0.000000	0.000000	143.000000	62.000000	0.000000	0.000000
0.680000	13.490000	84.870000	0.000000	0.000000	143.000000	62.000000	0.000000	0.000000
0.690000	13.370000	84.870000	0.000000	0.000000	143.000000	62.000000	-12.000000	0.000000
0.700000	13.310000	84.810000	0.000000	0.000000	143.000000	62.000000	-6.000000	-6.000000
0.710000	13.310000	84.810000	0.000000	0.000000	143.000000	62.000000	0.000000	0.000000
0.720000	13.310000	84.810000	0.000000	0.000000	143.000000	62.000000	0.000000	0.000000
0.730000	13.420000	85.080000	0.000000	0.000000	143.000000	62.000000	11.000000	27.000000
0.740000	13.550000	85.220000	0.000000	0.000000	143.000000	62.000000	13.000000	14.000000
0.750000	13.670000	85.330000	0.000000	0.000000	143.000000	62.000000	12.000000	11.000000
0.760000	13.780000	85.400000	0.000000	0.000000	143.000000	62.000000	11.000000	7.000000
0.770000	13.860000	85.400000	0.000000	0.000000	143.000000	62.000000	8.000000	0.000000
0.780000	13.910000	85.400000	0.000000	0.000000	143.000000	62.000000	5.000000	0.000000
0.790000	13.910000	85.350000	0.000000	0.000000	143.000000	62.000000	0.000000	-5.000000
0.800000	13.910000	85.350000	91.000000	1.000000	143.000000	62.000000	0.000000	0.000000
0.810000	13.910000	85.350000	172.000000	0.000000	143.000000	62.000000	0.000000	0.000000
0.820000	13.910000	85.350000	207.000000	0.000000	143.000000	62.000000	0.000000	0.000000
0.830000	14.090000	85.730000	255.000000	0.000000	143.000000	62.000000	18.000000	38.000000
0.840000	14.180000	85.940000	306.000000	0.000000	141.000000	63.000000	9.000000	21.000000
0.850000	14.180000	86.090000	340.000000	0.000000	141.000000	63.000000	0.000000	15.000000
0.860000	14.180000	86.220000	386.000000	0.000000	141.000000	63.000000	0.000000	13.000000
0.870000	14.120000	86.300000	423.000000	0.000000	141.000000	63.000000	-6.000000	8.000000
0.880000	14.020000	86.360000	430.000000	0.000000	141.000000	63.000000	-10.000000	6.000000
0.890000	13.900000	86.360000	436.000000	0.000000	141.000000	63.000000	-12.000000	0.000000
0.900000	13.740000	86.310000	440.000000	0.000000	141.000000	63.000000	-16.000000	-5.000000
0.910000	13.570000	86.200000	443.000000	0.000000	141.000000	63.000000	-17.000000	-11.000000
0.920000	13.380000	86.080000	448.000000	0.000000	141.000000	63.000000	-19.000000	-12.000000
0.930000	13.280000	85.980000	448.000000	0.000000	141.000000	63.000000	-10.000000	-10.000000
0.940000	13.170000	85.860000	449.000000	0.000000	141.000000	63.000000	-11.000000	-12.000000
0.950000	13.050000	85.710000	439.000000	0.000000	141.000000	63.000000	-12.000000	-15.000000
0.960000	12.900000	85.520000	445.000000	0.000000	141.000000	63.000000	-15.000000	-19.000000
0.970000	12.760000	85.280000	447.000000	0.000000	141.000000	63.000000	-14.000000	-24.000000
0.980000	12.650000	85.000000	447.000000	0.000000	141.000000	63.000000	-11.000000	-28.000000
0.990000	12.570000	84.740000	450.000000	0.000000	141.000000	63.000000	-8.000000	-26.000000
1.000000	12.570000	84.520000	453.000000	0.000000	141.000000	61.000000	0.000000	-22.000000
1.010000	12.570000	84.350000	458.000000	0.000000	141.000000	61.000000	0.000000	-17.000000
1.020000	12.570000	84.180000	461.000000	0.000000	141.000000	61.000000	0.000000	-17.000000
1.030000	12.700000	84.080000	465.000000	0.000000	139.000000	61.000000	13.000000	-10.000000
1.040000	12.830000	84.030000	466.000000	0.000000	139.000000	61.000000	13.000000	-5.000000
1.050000	13.020000	84.030000	468.000000	0.000000	139.000000	61.000000	19.000000	0.000000
1.060000	13.300000	84.250000	468.000000	0.000000	139.000000	61.000000	28.000000	22.000000
1.070000	13.570000	84.590000	469.000000	0.000000	139.000000	61.000000	27.000000	34.000000
1.080000	13.820000	84.970000	474.000000	0.000000	139.000000	61.000000	25.000000	38.000000
1.090000	14.040000	85.370000	474.000000	0.000000	139.000000	61.000000	22.000000	40.000000
1.100000	14.200000	85.790000	464.000000	0.000000	139.000000	61.000000	16.000000	42.000000
1.110000	14.310000	86.000000	465.000000	0.000000	141.000000	61.000000	11.000000	21.000000
1.120000	14.370000	86.160000	472.000000	0.000000	141.000000	61.000000	6.000000	16.000000
1.130000	14.370000	86.160000	475.000000	0.000000	140.000000	62.000000	0.000000	0.000000
1.140000	14.370000	86.210000	480.000000	0.000000	141.000000	63.000000	0.000000	5.000000
1.150000	14.370000	86.210000	477.000000	0.000000	141.000000	63.000000	0.000000	0.000000
1.160000	14.370000	86.120000	475.000000	0.000000	141.000000	63.000000	0.000000	-9.000000
1.170000	14.310000	85.980000	477.000000	0.000000	141.000000	63.000000	-6.000000	-14.000000
1.180000	14.230000	85.770000	481.000000	0.000000	141.000000	63.000000	-8.000000	-21.000000
1.190000	14.150000	85.460000	496.000000	0.000000	141.000000	63.000000	-8.000000	-31.000000
1.200000	14.070000	85.080000	512.000000	0.000000	141.000000	63.000000	-8.000000	-38.000000
1.210000	14.020000	84.640000	532.000000	0.000000	141.000000	63.000000	-5.000000	-44.000000
1.220000	14.020000	84.180000	537.000000	0.000000	141.000000	63.000000	0.000000	-46.000000
1.230000	14.020000	83.880000	562.000000	0.000000	141.000000	61.000000	0.000000	-30.000000
1.240000	14.100000	83.700000	569.000000	0.000000	141.000000	61.000000	8.000000	-18.000000
1.250000	14.170000	83.540000	580.000000	0.000000	141.000000	61.000000	7.000000	-16.000000
1.260000	14.260000	83.540000	570.000000	0.000000	141.000000	61.000000	9.000000	0.000000
1.270000	14.390000	83.540000	543.000000	0.000000	141.000000	61.000000	13.000000	0.000000
1.280000	14.540000	83.750000	481.000000	0.000000	141.000000	61.000000	15.000000	21.000000
1.290000	14.690000	83.950000	284.000000	0.000000	144.000000	61.000000	15.000000	20.000000
1.300000	14.690000	83.950000	0.000000	1.000000	144.000000	61.000000	0.000000	0.000000
1.310000	15.050000	84.370000	0.000000	0.000000	144.000000	61.000000	36.000000	42.000000
1.320000	15.250000	84.550000	0.000000	0.000000	146.000000	62.000000	20.000000	18.000000
1.330000	15.460000	84.750000	0.000000	0.000000	146.000000	62.000000	21.000000	20.000000
1.340000	16.040000	85.010000	0.000000	0.000000	147.000000	62.000000	58.000000	26.000000
1.350000	16.680000	85.290000	0.000000	0.000000	147.000000	62.000000	64.000000	28.000000
1.360000	17.200000	85.480000	0.000000	0.000000	147.000000	62.000000	52.000000	19.000000
1.370000	17.620000	85.610000	0.000000	0.000000	147.000000	62.000000	42.000000	13.000000
1.380000	17.750000	85.660000	0.000000	0.000000	146.000000	62.000000	13.000000	5.000000
1.390000	17.640000	85.570000	0.000000	0.000000	147.000000	61.000000	-11.000000	-9.000000
1.400000	17.360000	85.400000	0.000000	0.000000	145.000000	60.000000	-28.000000	-17.000000
1.410000	16.940000	85.190000	0.000000	0.000000	145.000000	60.000000	-42.000000	-21.000000
1.420000	16.510000	84.990000	0.000000	0.000000	145.000000	60.000000	-43.000000	-20.000000
1.430000	16.070000	84.840000	0.000000	0.000000	145.000000	60.000000	-44.000000	-15.000000
1.440000	15.760000	84.720000	0.000000	0.000000	144.000000	61.000000	-31.000000	-12.000000
1.450000	15.450000	84.590000	0.000000	0.000000	146.000000	62.000000	-31.000000	-13.000000
1.460000	15.310000	84.590000	0.000000	0.000000	146.000000	62.000000	-14.000000	0.000000
1.470000	15.310000	84.590000	0.000000	0.000000	147.000000	62.000000	0.000000	0.000000
1.480000	15.250000	84.590000	0.000000	0.000000	147.000000	62.000000	-6.000000	0.000000
1.490000	15.250000	84.520000	0.000000	0.000000	149.000000	63.000000	0.000000	-7.000000
1.500000	15.180000	84.520000	0.000000	0.000000	148.000000	63.000000	-7.000000	0.000000
1.510000	15.180000	84.520000	0.000000	0.000000	148.000000	63.000000	0.000000	0.000000
1.520000	15.110000	84.520000	0.000000	0.000000	148.000000	63.000000	-7.000000	0.000000
1.530000	15.110000	84.520000	0.000000	0.000000	148.000000	63.000000	0.000000	0.000000
1.540000	15.110000	84.520000	0.000000	0.000000	146.000000	63.000000	0.000000	0.000000
1.550000	15.110000	84.520000	75.000000	1.000000	146.000000	63.000000	0.000000	0.000000
1.560000	15.110000	84.520000	210.000000	0.000000	146.000000	63.000000	0.000000	0.000000
1.570000	15.110000	84.520000	292.000000	0.000000	146.000000	63.000000	0.000000	0.000000
1.580000	15.110000	84.520000	349.000000	0.000000	146.000000	63.000000	0.000000	0.000000
1.590000	15.110000	84.520000	374.000000	0.000000	146.000000	63.000000	0.000000	0.000000
1.600000	15.260000	84.860000	399.000000	0.000000	144.000000	62.000000	15.000000	34.000000
1.610000	15.370000	85.130000	397.000000	0.000000	144.000000	62.000000	11.000000	27.000000
1.620000	15.550000	85.450000	410.000000	0.000000	144.000000	62.000000	18.000000	32.000000
1.630000	15.770000	85.730000	417.000000	0.000000	144.000000	62.000000	22.000000	28.000000
1.640000	15.940000	86.010000	415.000000	0.000000	144.000000	62.000000	17.000000	28.000000
1.650000	16.080000	86.280000	425.000000	0.000000	144.000000	62.000000	14.000000	27.000000
1.660000	16.150000	86.470000	438.000000	0.000000	144.000000	62.000000	7.000000	19.000000
1.670000	16.150000	86.620000	448.000000	0.000000	144.000000	62.000000	0.000000	15.000000
1.680000	16.150000	86.670000	460.000000	0.000000	143.000000	63.000000	0.000000	5.000000
1.690000	16.150000	86.670000	463.000000	0.000000	141.000000	63.000000	0.000000	0.000000
1.700000	16.060000	86.610000	460.000000	0.000000	141.000000	63.000000	-9.000000	-6.000000
1.710000	15.970000	86.490000	465.000000	0.000000	143.000000	63.000000	-9.000000	-12.000000
1.720000	15.820000	86.210000	466.000000	0.000000	143.000000	63.000000	-15.000000	-28.000000
1.730000	15.710000	85.840000	468.000000	0.000000	143.000000	63.000000	-11.000000	-37.000000
1.740000	15.600000	85.430000	481.000000	0.000000	143.000000	63.000000	-11.000000	-41.000000
1.750000	15.480000	85.110000	496.000000	0.000000	143.000000	63.000000	-12.000000	-32.000000
1.760000	15.480000	84.860000	522.000000	0.000000	143.000000	63.000000	0.000000	-25.000000
1.770000	15.480000	84.510000	521.000000	0.000000	144.000000	62.000000	0.000000	-35.000000
1.780000	15.480000	84.290000	537.000000	0.000000	144.000000	62.000000	0.000000	-22.000000
1.790000	15.600000	84.170000	537.000000	0.000000	144.000000	62.000000	12.000000	-12.000000
1.800000	15.730000	84.090000	535.000000	0.000000	144.000000	62.000000	13.000000	-8.000000
1.810000	15.730000	84.090000	530.000000	0.000000	144.000000	62.000000	0.000000	0.000000
1.820000	16.170000	84.360000	527.000000	0.000000	143.000000	62.000000	44.000000	27.000000
1.830000	16.480000	84.670000	526.000000	0.000000	144.000000	61.000000	31.000000	31.000000
1.840000	16.720000	85.010000	526.000000	0.000000	144.000000	61.000000	24.000000	34.000000
1.850000	16.910000	85.360000	529.000000	0.000000	144.000000	61.000000	19.000000	35.000000
1.860000	17.110000	85.660000	530.000000	0.000000	143.000000	62.000000	20.000000	30.000000
1.870000	17.220000	85.920000	537.000000	0.000000	144.000000	62.000000	11.000000	26.000000
1.880000	17.270000	86.070000	546.000000	0.000000	144.000000	62.000000	5.000000	15.000000
1.890000	17.270000	86.170000	546.000000	0.000000	144.000000	62.000000	0.000000	10.000000
1.900000	17.270000	86.220000	561.000000	0.000000	144.000000	62.000000	0.000000	5.000000
1.910000	17.270000	86.220000	562.000000	0.000000	146.000000	63.000000	0.000000	0.000000
1.920000	17.270000	86.220000	564.000000	0.000000	146.000000	63.000000	0.000000	0.000000
1.930000	17.270000	86.220000	561.000000	0.000000	146.000000	63.000000	0.000000	0.000000
1.940000	17.270000	86.220000	565.000000	0.000000	146.000000	63.000000	0.000000	0.000000
1.950000	17.270000	86.220000	561.000000	0.000000	146.000000	63.000000	0.000000	0.000000
1.960000	17.270000	86.090000	567.000000	0.000000	146.000000	63.000000	0.000000	-13.000000
1.970000	17.220000	85.890000	581.000000	0.000000	146.000000	63.000000	-5.000000	-20.000000
1.980000	17.090000	85.530000	585.000000	0.000000	146.000000	63.000000	-13.000000	-36.000000
1.990000	17.000000	85.070000	606.000000	0.000000	146.000000	63.000000	-9.000000	-46.000000
2.000000	17.000000	84.730000	619.000000	0.000000	146.000000	63.000000	0.000000	-34.000000
2.010000	17.000000	84.420000	639.000000	0.000000	146.000000	63.000000	0.000000	-31.000000
2.020000	17.000000	84.140000	641.000000	0.000000	146.000000	63.000000	0.000000	-28.000000
2.030000	17.070000	84.080000	622.000000	0.000000	147.000000	62.000000	7.000000	-6.000000
2.040000	17.150000	84.080000	616.000000	0.000000	146.000000	62.000000	8.000000	0.000000
2.050000	17.380000	84.080000	586.000000	0.000000	146.000000	62.000000	23.000000	0.000000
2.060000	17.710000	84.330000	580.000000	0.000000	146.000000	62.000000	33.000000	25.000000
2.070000	18.010000	84.690000	567.000000	0.000000	147.000000	62.000000	30.000000	36.000000
2.080000	18.270000	85.130000	564.000000	0.000000	147.000000	62.000000	26.000000	44.000000
2.090000	18.510000	85.490000	564.000000	0.000000	147.000000	62.000000	24.000000	36.000000
2.100000	18.610000	85.810000	567.000000	0.000000	149.000000	63.000000	10.000000	32.000000
2.110000	18.610000	86.080000	577.000000	0.000000	149.000000	63.000000	0.000000	27.000000
2.120000	18.610000	86.200000	599.000000	0.000000	149.000000	63.000000	0.000000	12.000000
2.130000	18.610000	86.200000	614.000000	0.000000	151.000000	63.000000	0.000000	0.000000
2.140000	18.610000	86.200000	610.000000	0.000000	150.000000	64.000000	0.000000	0.000000
2.150000	18.530000	86.090000	628.000000	0.000000	150.000000	64.000000	-8.000000	-11.000000
2.160000	18.530000	85.770000	634.000000	0.000000	150.000000	64.000000	0.000000	-32.000000
2.170000	18.430000	85.310000	639.000000	0.000000	150.000000	64.000000	-10.000000	-46.000000
2.180000	18.350000	84.930000	645.000000	0.000000	150.000000	64.000000	-8.000000	-38.000000
2.190000	18.350000	84.620000	636.000000	0.000000	150.000000	64.000000	0.000000	-31.000000
2.200000	18.400000	84.360000	641.000000	0.000000	150.000000	64.000000	5.000000	-26.000000
2.210000	18.480000	84.250000	613.000000	0.000000	151.000000	63.000000	8.000000	-11.000000
2.220000	18.540000	84.200000	561.000000	0.000000	149.000000	63.000000	6.000000	-5.000000
2.230000	18.540000	84.200000	464.000000	0.000000	149.000000	63.000000	0.000000	0.000000
