t	x	y	pressure	penup	azimuth	inclination	v_x	v_y
0.000000	13.270000	51.190000	142.000000	1.000000	132.000000	60.000000	0.000000	0.000000
0.010000	13.170000	51.450000	279.000000	0.000000	134.000000	60.000000	-10.000000	26.000000
0.020000	13.120000	51.680000	405.000000	0.000000	134.000000	60.000000	-5.000000	23.000000
0.030000	13.060000	51.960000	545.000000	0.000000	134.000000	60.000000	-6.000000	28.000000
0.040000	13.010000	52.270000	636.000000	0.000000	132.000000	59.000000	-5.000000	31.000000
0.050000	12.960000	52.480000	720.000000	0.000000	132.000000	59.000000	-5.000000	21.000000
0.060000	12.910000	52.650000	808.000000	0.000000	131.000000	58.000000	-5.000000	17.000000
0.070000	12.850000	52.700000	822.000000	0.000000	132.000000	58.000000	-6.000000	5.000000
0.080000	12.850000	52.700000	828.000000	0.000000	132.000000	58.000000	0.000000	0.000000
0.090000	12.850000	52.630000	846.000000	0.000000	131.000000	57.000000	0.000000	-7.000000
0.100000	12.910000	52.200000	861.000000	0.000000	131.000000	57.000000	6.000000	-43.000000
0.110000	13.030000	51.510000	876.000000	0.000000	131.000000	57.000000	12.000000	-69.000000
0.120000	13.270000	50.570000	888.000000	0.000000	131.000000	57.000000	24.000000	-94.000000
0.130000	13.530000	49.640000	896.000000	0.000000	131.000000	57.000000	26.000000	-93.000000
0.140000	13.800000	48.720000	902.000000	0.000000	132.000000	58.000000	27.000000	-92.000000
0.150000	13.990000	47.930000	893.000000	0.000000	131.000000	58.000000	19.000000	-79.000000
0.160000	13.990000	47.390000	911.000000	0.000000	131.000000	58.000000	0.000000	-54.000000
0.170000	13.990000	47.020000	935.000000	0.000000	131.000000	60.000000	0.000000	-37.000000
0.180000	13.870000	46.790000	942.000000	0.000000	129.000000	60.000000	-12.000000	-23.000000
0.190000	13.700000	46.790000	942.000000	0.000000	128.000000	61.000000	-17.000000	0.000000
0.200000	13.480000	46.840000	951.000000	0.000000	128.000000	61.000000	-22.000000	5.000000
0.210000	13.280000	47.100000	917.000000	0.000000	126.000000	61.000000	-20.000000	26.000000
0.220000	13.120000	47.570000	918.000000	0.000000	126.000000	61.000000	-16.000000	47.000000
0.230000	13.030000	48.170000	918.000000	0.000000	125.000000	60.000000	-9.000000	60.000000
0.240000	13.030000	48.490000	897.000000	0.000000	125.000000	60.000000	0.000000	32.000000
0.250000	13.030000	48.610000	867.000000	0.000000	125.000000	60.000000	0.000000	12.000000
0.260000	13.030000	48.610000	855.000000	0.000000	124.000000	60.000000	0.000000	0.000000
0.270000	13.150000	48.550000	842.000000	0.000000	125.000000	59.000000	12.000000	-6.000000
0.280000	13.400000	48.480000	842.000000	0.000000	125.000000	59.000000	25.000000	-7.000000
0.290000	13.730000	48.410000	845.000000	0.000000	125.000000	59.000000	33.000000	-7.000000
0.300000	14.090000	48.340000	846.000000	0.000000	127.000000	59.000000	36.000000	-7.000000
0.310000	14.450000	48.340000	854.000000	0.000000	128.000000	59.000000	36.000000	0.000000
0.320000	14.840000	48.430000	863.000000	0.000000	128.000000	59.000000	39.000000	9.000000
0.330000	15.070000	48.490000	863.000000	0.000000	128.000000	59.000000	23.000000	6.000000
0.340000	15.200000	48.580000	888.000000	0.000000	129.000000	60.000000	13.000000	9.000000
0.350000	15.260000	48.680000	899.000000	0.000000	129.000000	60.000000	6.000000	10.000000
0.360000	15.330000	48.890000	915.000000	0.000000	131.000000	61.000000	7.000000	21.000000
0.370000	15.400000	49.050000	936.000000	0.000000	131.000000	61.000000	7.000000	16.000000
0.380000	15.400000	49.120000	944.000000	0.000000	131.000000	61.000000	0.000000	7.000000
0.390000	15.400000	49.120000	939.000000	0.000000	131.000000	61.000000	0.000000	0.000000
0.400000	15.400000	49.070000	935.000000	0.000000	131.000000	61.000000	0.000000	-5.000000
0.410000	15.400000	48.830000	938.000000	0.000000	131.000000	61.000000	0.000000	-24.000000
0.420000	15.400000	48.460000	936.000000	0.000000	131.000000	61.000000	0.000000	-37.000000
0.430000	15.450000	48.160000	932.000000	0.000000	131.000000	61.000000	5.000000	-30.000000
0.440000	15.550000	47.860000	932.000000	0.000000	131.000000	61.000000	10.000000	-30.000000
0.450000	15.760000	47.620000	929.000000	0.000000	131.000000	61.000000	21.000000	-24.000000
0.460000	15.950000	47.540000	933.000000	0.000000	129.000000	61.000000	19.000000	-8.000000
0.470000	16.130000	47.540000	935.000000	0.000000	128.000000	61.000000	18.000000	0.000000
0.480000	16.380000	47.760000	936.000000	0.000000	128.000000	61.000000	25.000000	22.000000
0.490000	16.630000	48.050000	941.000000	0.000000	128.000000	61.000000	25.000000	29.000000
0.500000	16.880000	48.400000	936.000000	0.000000	128.000000	61.000000	25.000000	35.000000
0.510000	17.080000	48.860000	936.000000	0.000000	128.000000	61.000000	20.000000	46.000000
0.520000	17.210000	49.080000	935.000000	0.000000	128.000000	61.000000	13.000000	22.000000
0.530000	17.290000	49.140000	935.000000	0.000000	129.000000	60.000000	8.000000	6.000000
0.540000	17.290000	49.050000	941.000000	0.000000	129.000000	60.000000	0.000000	-9.000000
0.550000	17.290000	48.770000	942.000000	0.000000	129.000000	60.000000	0.000000	-28.000000
0.560000	17.370000	48.370000	948.000000	0.000000	129.000000	60.000000	8.000000	-40.000000
0.570000	17.500000	48.030000	929.000000	0.000000	129.000000	60.000000	13.000000	-34.000000
0.580000	17.680000	47.660000	903.000000	0.000000	129.000000	60.000000	18.000000	-37.000000
0.590000	17.830000	47.500000	864.000000	0.000000	129.000000	60.000000	15.000000	-16.000000
0.600000	17.970000	47.500000	788.000000	0.000000	128.000000	61.000000	14.000000	0.000000
0.610000	18.050000	47.500000	628.000000	0.000000	128.000000	61.000000	8.000000	0.000000
0.620000	18.100000	47.630000	165.000000	0.000000	128.000000	61.000000	5.000000	13.000000
0.630000	18.100000	47.630000	0.000000	1.000000	129.000000	61.000000	0.000000	0.000000
0.640000	18.260000	48.040000	0.000000	0.000000	129.000000	61.000000	16.000000	41.000000
0.650000	18.380000	48.450000	0.000000	0.000000	129.000000	61.000000	12.000000	41.000000
0.660000	18.490000	48.940000	0.000000	0.000000	129.000000	61.000000	11.000000	49.000000
0.670000	18.540000	49.430000	0.000000	0.000000	129.000000	61.000000	5.000000	49.000000
0.680000	18.480000	49.900000	0.000000	0.000000	129.000000	61.000000	-6.000000	47.000000
0.690000	18.340000	50.140000	0.000000	0.000000	129.000000	61.000000	-14.000000	24.000000
0.700000	18.340000	50.140000	468.000000	1.000000	129.000000	61.000000	0.000000	0.000000
0.710000	18.060000	50.230000	512.000000	0.000000	129.000000	61.000000	-28.000000	9.000000
0.720000	17.880000	50.160000	611.000000	0.000000	131.000000	61.000000	-18.000000	-7.000000
0.730000	17.880000	50.160000	659.000000	0.000000	131.000000	61.000000	0.000000	0.000000
0.740000	18.000000	49.920000	672.000000	0.000000	129.000000	60.000000	12.000000	-24.000000
0.750000	18.230000	49.700000	693.000000	0.000000	131.000000	60.000000	23.000000	-22.000000
0.760000	18.670000	49.580000	739.000000	0.000000	131.000000	60.000000	44.000000	-12.000000
0.770000	19.130000	49.580000	817.000000	0.000000	131.000000	60.000000	46.000000	0.000000
0.780000	19.610000	49.770000	861.000000	0.000000	131.000000	60.000000	48.000000	19.000000
0.790000	19.980000	50.150000	897.000000	0.000000	131.000000	60.000000	37.000000	38.000000
0.800000	20.290000	50.630000	948.000000	0.000000	131.000000	60.000000	31.000000	48.000000
0.810000	20.410000	51.090000	977.000000	0.000000	131.000000	60.000000	12.000000	46.000000
0.820000	20.320000	51.520000	994.000000	0.000000	132.000000	60.000000	-9.000000	43.000000
0.830000	20.100000	51.920000	1023.000000	0.000000	132.000000	60.000000	-22.000000	40.000000
0.840000	19.890000	52.060000	1023.000000	0.000000	134.000000	60.000000	-21.000000	14.000000
0.850000	19.670000	52.060000	1023.000000	0.000000	134.000000	60.000000	-22.000000	0.000000
0.860000	19.430000	51.660000	1023.000000	0.000000	134.000000	60.000000	-24.000000	-40.000000
0.870000	19.120000	51.120000	1023.000000	0.000000	135.000000	59.000000	-31.000000	-54.000000
0.880000	18.970000	50.460000	1023.000000	0.000000	135.000000	59.000000	-15.000000	-66.000000
0.890000	18.920000	49.560000	1023.000000	0.000000	134.000000	60.000000	-5.000000	-90.000000
0.900000	19.130000	48.810000	1023.000000	0.000000	134.000000	60.000000	21.000000	-75.000000
0.910000	19.360000	48.150000	1023.000000	0.000000	134.000000	60.000000	23.000000	-66.000000
0.920000	19.660000	47.700000	1023.000000	0.000000	132.000000	60.000000	30.000000	-45.000000
0.930000	19.980000	47.460000	1023.000000	0.000000	131.000000	61.000000	32.000000	-24.000000
0.940000	20.320000	47.360000	1023.000000	0.000000	131.000000	61.000000	34.000000	-10.000000
0.950000	20.660000	47.440000	1023.000000	0.000000	129.000000	61.000000	34.000000	8.000000
0.960000	21.000000	47.730000	1023.000000	0.000000	129.000000	61.000000	34.000000	29.000000
0.970000	21.340000	48.160000	1023.000000	0.000000	130.000000	62.000000	34.000000	43.000000
0.980000	21.540000	48.510000	1023.000000	0.000000	130.000000	62.000000	20.000000	35.000000
0.990000	21.650000	48.670000	1023.000000	0.000000	130.000000	62.000000	11.000000	16.000000
1.000000	21.650000	48.670000	1023.000000	0.000000	130.000000	62.000000	0.000000	0.000000
1.010000	21.650000	48.590000	1023.000000	0.000000	130.000000	62.000000	0.000000	-8.000000
1.020000	21.650000	48.430000	1023.000000	0.000000	132.000000	63.000000	0.000000	-16.000000
1.030000	21.760000	48.160000	1023.000000	0.000000	132.000000	63.000000	11.000000	-27.000000
1.040000	21.860000	47.860000	1023.000000	0.000000	132.000000	63.000000	10.000000	-30.000000
1.050000	21.960000	47.590000	1023.000000	0.000000	132.000000	63.000000	10.000000	-27.000000
1.060000	22.140000	47.520000	990.000000	0.000000	132.000000	63.000000	18.000000	-7.000000
1.070000	22.320000	47.520000	935.000000	0.000000	132.000000	63.000000	18.000000	0.000000
1.080000	22.520000	47.750000	749.000000	0.000000	132.000000	63.000000	20.000000	23.000000
1.090000	22.690000	48.000000	149.000000	0.000000	132.000000	63.000000	17.000000	25.000000
1.100000	22.690000	48.000000	0.000000	1.000000	132.000000	63.000000	0.000000	0.000000
1.110000	22.830000	48.550000	0.000000	0.000000	130.000000	63.000000	14.000000	55.000000
1.120000	22.760000	48.830000	0.000000	0.000000	130.000000	63.000000	-7.000000	28.000000
1.130000	22.680000	49.100000	0.000000	0.000000	129.000000	63.000000	-8.000000	27.000000
1.140000	22.630000	49.340000	0.000000	0.000000	129.000000	63.000000	-5.000000	24.000000
1.150000	22.580000	49.570000	0.000000	0.000000	127.000000	62.000000	-5.000000	23.000000
1.160000	22.580000	49.570000	25.000000	1.000000	127.000000	62.000000	0.000000	0.000000
1.170000	22.580000	49.570000	440.000000	0.000000	126.000000	61.000000	0.000000	0.000000
1.180000	22.580000	49.570000	515.000000	0.000000	128.000000	61.000000	0.000000	0.000000
1.190000	22.580000	49.570000	584.000000	0.000000	128.000000	61.000000	0.000000	0.000000
1.200000	22.580000	49.570000	619.000000	0.000000	128.000000	61.000000	0.000000	0.000000
1.210000	22.580000	49.570000	611.000000	0.000000	129.000000	61.000000	0.000000	0.000000
1.220000	22.760000	49.190000	619.000000	0.000000	129.000000	61.000000	18.000000	-38.000000
1.230000	22.900000	49.020000	638.000000	0.000000	131.000000	61.000000	14.000000	-17.000000
1.240000	23.060000	48.860000	640.000000	0.000000	132.000000	61.000000	16.000000	-16.000000
1.250000	23.150000	48.760000	673.000000	0.000000	132.000000	61.000000	9.000000	-10.000000
1.260000	23.150000	48.690000	693.000000	0.000000	130.000000	62.000000	0.000000	-7.000000
1.270000	23.320000	48.640000	734.000000	0.000000	132.000000	63.000000	17.000000	-5.000000
1.280000	23.470000	48.560000	751.000000	0.000000	132.000000	63.000000	15.000000	-8.000000
1.290000	23.660000	48.410000	759.000000	0.000000	132.000000	63.000000	19.000000	-15.000000
1.300000	23.860000	48.190000	774.000000	0.000000	132.000000	63.000000	20.000000	-22.000000
1.310000	24.020000	47.890000	785.000000	0.000000	132.000000	63.000000	16.000000	-30.000000
1.320000	24.200000	47.540000	833.000000	0.000000	132.000000	63.000000	18.000000	-35.000000
1.330000	24.370000	47.440000	909.000000	0.000000	130.000000	63.000000	17.000000	-10.000000
1.340000	24.580000	47.550000	934.000000	0.000000	132.000000	64.000000	21.000000	11.000000
1.350000	24.820000	47.790000	1014.000000	0.000000	132.000000	64.000000	24.000000	24.000000
1.360000	24.950000	48.250000	1023.000000	0.000000	132.000000	64.000000	13.000000	46.000000
1.370000	25.010000	48.700000	1023.000000	0.000000	132.000000	64.000000	6.000000	45.000000
1.380000	24.900000	49.140000	1023.000000	0.000000	132.000000	64.000000	-11.000000	44.000000
1.390000	24.640000	49.350000	909.000000	0.000000	132.000000	64.000000	-26.000000	21.000000
1.400000	24.290000	49.350000	337.000000	0.000000	133.000000	63.000000	-35.000000	0.000000
1.410000	24.290000	49.350000	0.000000	1.000000	133.000000	63.000000	0.000000	0.000000
1.420000	23.510000	49.180000	0.000000	0.000000	133.000000	63.000000	-78.000000	-17.000000
1.430000	23.410000	49.180000	0.000000	0.000000	132.000000	63.000000	-10.000000	0.000000
1.440000	23.410000	49.180000	0.000000	0.000000	130.000000	63.000000	0.000000	0.000000
1.450000	24.180000	49.350000	0.000000	0.000000	129.000000	63.000000	77.000000	17.000000
1.460000	25.050000	49.470000	0.000000	0.000000	129.000000	63.000000	87.000000	12.000000
1.470000	25.690000	49.560000	0.000000	0.000000	126.000000	62.000000	64.000000	9.000000
1.480000	26.060000	49.610000	0.000000	0.000000	124.000000	63.000000	37.000000	5.000000
1.490000	26.260000	49.660000	0.000000	0.000000	121.000000	63.000000	20.000000	5.000000
1.500000	26.410000	49.660000	0.000000	0.000000	118.000000	62.000000	15.000000	0.000000
1.510000	27.000000	49.830000	0.000000	0.000000	116.000000	60.000000	59.000000	17.000000
1.520000	27.890000	50.050000	0.000000	0.000000	113.000000	60.000000	89.000000	22.000000
1.530000	28.720000	50.290000	0.000000	0.000000	110.000000	58.000000	83.000000	24.000000
1.540000	29.310000	50.620000	0.000000	0.000000	109.000000	57.000000	59.000000	33.000000
1.550000	29.740000	51.020000	0.000000	0.000000	109.000000	57.000000	43.000000	40.000000
1.560000	30.290000	51.190000	0.000000	0.000000	110.000000	56.000000	55.000000	17.000000
1.570000	30.890000	51.310000	0.000000	0.000000	110.000000	56.000000	60.000000	12.000000
1.580000	30.890000	51.400000	0.000000	0.000000	112.000000	56.000000	0.000000	9.000000
1.590000	30.440000	51.260000	0.000000	0.000000	116.000000	56.000000	-45.000000	-14.000000
1.600000	30.440000	51.260000	0.000000	0.000000	119.000000	58.000000	0.000000	0.000000
1.610000	30.120000	51.320000	0.000000	0.000000	121.000000	58.000000	-32.000000	6.000000
1.620000	29.580000	51.450000	0.000000	0.000000	124.000000	58.000000	-54.000000	13.000000
1.630000	29.450000	51.390000	0.000000	0.000000	126.000000	58.000000	-13.000000	-6.000000
1.640000	29.450000	51.210000	0.000000	0.000000	128.000000	58.000000	0.000000	-18.000000
1.650000	29.640000	50.970000	0.000000	0.000000	128.000000	58.000000	19.000000	-24.000000
1.660000	29.830000	50.700000	0.000000	0.000000	128.000000	58.000000	19.000000	-27.000000
1.670000	29.940000	50.590000	0.000000	0.000000	130.000000	58.000000	11.000000	-11.000000
1.680000	29.940000	50.590000	0.000000	0.000000	130.000000	58.000000	0.000000	0.000000
1.690000	29.870000	50.660000	0.000000	0.000000	127.000000	57.000000	-7.000000	7.000000
1.700000	29.870000	50.760000	0.000000	0.000000	128.000000	58.000000	0.000000	10.000000
1.710000	30.060000	50.900000	0.000000	0.000000	128.000000	58.000000	19.000000	14.000000
1.720000	30.320000	51.110000	0.000000	0.000000	129.000000	59.000000	26.000000	21.000000
1.730000	30.680000	51.320000	0.000000	0.000000	129.000000	59.000000	36.000000	21.000000
1.740000	31.040000	51.540000	0.000000	0.000000	131.000000	60.000000	36.000000	22.000000
1.750000	31.040000	51.540000	36.000000	1.000000	131.000000	60.000000	0.000000	0.000000
1.760000	31.400000	51.860000	412.000000	0.000000	132.000000	59.000000	36.000000	32.000000
1.770000	31.280000	52.230000	613.000000	0.000000	134.000000	60.000000	-12.000000	37.000000
1.780000	31.070000	52.460000	808.000000	0.000000	134.000000	60.000000	-21.000000	23.000000
1.790000	30.800000	52.510000	894.000000	0.000000	134.000000	60.000000	-27.000000	5.000000
1.800000	30.520000	52.510000	948.000000	0.000000	135.000000	59.000000	-28.000000	0.000000
1.810000	30.090000	52.280000	989.000000	0.000000	135.000000	59.000000	-43.000000	-23.000000
1.820000	29.550000	51.900000	1003.000000	0.000000	135.000000	59.000000	-54.000000	-38.000000
1.830000	29.230000	51.300000	1015.000000	0.000000	135.000000	59.000000	-32.000000	-60.000000
1.840000	28.950000	50.670000	1014.000000	0.000000	135.000000	59.000000	-28.000000	-63.000000
1.850000	28.950000	49.980000	999.000000	0.000000	135.000000	59.000000	0.000000	-69.000000
1.860000	29.040000	49.260000	997.000000	0.000000	135.000000	59.000000	9.000000	-72.000000
1.870000	29.220000	48.850000	985.000000	0.000000	132.000000	59.000000	18.000000	-41.000000
1.880000	29.430000	48.610000	992.000000	0.000000	132.000000	59.000000	21.000000	-24.000000
1.890000	29.730000	48.480000	985.000000	0.000000	132.000000	59.000000	30.000000	-13.000000
1.900000	30.060000	48.560000	982.000000	0.000000	131.000000	60.000000	33.000000	8.000000
1.910000	30.340000	48.800000	986.000000	0.000000	131.000000	60.000000	28.000000	24.000000
1.920000	30.480000	49.140000	977.000000	0.000000	129.000000	60.000000	14.000000	34.000000
1.930000	30.540000	49.470000	977.000000	0.000000	129.000000	60.000000	6.000000	33.000000
1.940000	30.470000	49.770000	986.000000	0.000000	129.000000	60.000000	-7.000000	30.000000
1.950000	30.320000	49.920000	902.000000	0.000000	129.000000	60.000000	-15.000000	15.000000
1.960000	30.110000	49.980000	745.000000	0.000000	129.000000	60.000000	-21.000000	6.000000
1.970000	29.870000	49.910000	374.000000	0.000000	129.000000	60.000000	-24.000000	-7.000000
1.980000	29.870000	49.910000	0.000000	1.000000	131.000000	60.000000	0.000000	0.000000
1.990000	29.660000	49.490000	0.000000	0.000000	131.000000	60.000000	-21.000000	-42.000000
2.000000	29.710000	49.430000	0.000000	0.000000	131.000000	60.000000	5.000000	-6.000000
2.010000	29.920000	49.370000	0.000000	0.000000	129.000000	60.000000	21.000000	-6.000000
2.020000	30.310000	49.310000	0.000000	0.000000	129.000000	60.000000	39.000000	-6.000000
2.030000	30.820000	49.260000	0.000000	0.000000	129.000000	60.000000	51.000000	-5.000000
2.040000	31.220000	49.200000	0.000000	0.000000	128.000000	61.000000	40.000000	-6.000000
2.050000	31.520000	49.200000	0.000000	0.000000	128.000000	61.000000	30.000000	0.000000
2.060000	31.760000	49.200000	0.000000	0.000000	126.000000	60.000000	24.000000	0.000000
2.070000	32.000000	49.200000	0.000000	0.000000	126.000000	60.000000	24.000000	0.000000
2.080000	32.270000	49.290000	0.000000	0.000000	126.000000	60.000000	27.000000	9.000000
2.090000	32.570000	49.420000	0.000000	0.000000	126.000000	60.000000	30.000000	13.000000
2.100000	32.800000	49.420000	0.000000	0.000000	126.000000	60.000000	23.000000	0.000000
2.110000	32.800000	49.420000	0.000000	0.000000	126.000000	60.000000	0.000000	0.000000
2.120000	32.800000	49.420000	387.000000	1.000000	128.000000	61.000000	0.000000	0.000000
2.130000	33.120000	49.490000	521.000000	0.000000	128.000000	61.000000	32.000000	7.000000
2.140000	33.180000	49.620000	697.000000	0.000000	128.000000	61.000000	6.000000	13.000000
2.150000	33.180000	49.820000	809.000000	0.000000	131.000000	61.000000	0.000000	20.000000
2.160000	33.180000	49.970000	932.000000	0.000000	131.000000	61.000000	0.000000	15.000000
2.170000	33.100000	50.070000	1000.000000	0.000000	131.000000	61.000000	-8.000000	10.000000
2.180000	32.920000	50.120000	1023.000000	0.000000	134.000000	61.000000	-18.000000	5.000000
2.190000	32.650000	50.120000	1023.000000	0.000000	134.000000	61.000000	-27.000000	0.000000
2.200000	32.310000	50.000000	1023.000000	0.000000	134.000000	61.000000	-34.000000	-12.000000
2.210000	31.980000	49.800000	1023.000000	0.000000	135.000000	60.000000	-33.000000	-20.000000
