t	x	y	pressure	penup	azimuth	inclination	v_x	v_y
0.000000	86.660000	65.670000	34.000000	1.000000	146.000000	55.000000	0.000000	0.000000
0.010000	86.660000	65.670000	80.000000	0.000000	146.000000	55.000000	0.000000	0.000000
0.020000	86.660000	65.670000	132.000000	0.000000	146.000000	55.000000	0.000000	0.000000
0.030000	86.660000	65.670000	210.000000	0.000000	145.000000	56.000000	0.000000	0.000000
0.040000	86.660000	65.670000	241.000000	0.000000	145.000000	56.000000	0.000000	0.000000
0.050000	86.660000	65.670000	289.000000	0.000000	145.000000	56.000000	0.000000	0.000000
0.060000	86.660000	65.670000	327.000000	0.000000	145.000000	56.000000	0.000000	0.000000
0.070000	86.660000	65.670000	333.000000	0.000000	145.000000	56.000000	0.000000	0.000000
0.080000	86.660000	65.670000	354.000000	0.000000	145.000000	56.000000	0.000000	0.000000
0.090000	86.900000	65.390000	367.000000	0.000000	145.000000	56.000000	24.000000	-28.000000
0.100000	87.000000	65.080000	379.000000	0.000000	145.000000	56.000000	10.000000	-31.000000
0.110000	87.140000	64.670000	397.000000	0.000000	145.000000	56.000000	14.000000	-41.000000
0.120000	87.310000	64.200000	407.000000	0.000000	145.000000	56.000000	17.000000	-47.000000
0.130000	87.510000	63.730000	417.000000	0.000000	146.000000	55.000000	20.000000	-47.000000
0.140000	87.730000	63.230000	423.000000	0.000000	146.000000	55.000000	22.000000	-50.000000
0.150000	87.930000	62.690000	414.000000	0.000000	146.000000	55.000000	20.000000	-54.000000
0.160000	88.140000	62.150000	420.000000	0.000000	146.000000	55.000000	21.000000	-54.000000
0.170000	88.270000	61.620000	430.000000	0.000000	147.000000	55.000000	13.000000	-53.000000
0.180000	88.360000	61.190000	439.000000	0.000000	147.000000	55.000000	9.000000	-43.000000
0.190000	88.310000	60.750000	455.000000	0.000000	147.000000	55.000000	-5.000000	-44.000000
0.200000	88.260000	60.400000	472.000000	0.000000	147.000000	55.000000	-5.000000	-35.000000
0.210000	88.260000	60.110000	493.000000	0.000000	146.000000	55.000000	0.000000	-29.000000
0.220000	88.150000	59.840000	496.000000	0.000000	148.000000	56.000000	-11.000000	-27.000000
0.230000	88.020000	59.600000	519.000000	0.000000	148.000000	56.000000	-13.000000	-24.000000
0.240000	87.820000	59.370000	541.000000	0.000000	148.000000	56.000000	-20.000000	-23.000000
0.250000	87.470000	59.490000	548.000000	0.000000	148.000000	56.000000	-35.000000	12.000000
0.260000	87.030000	59.610000	563.000000	0.000000	147.000000	56.000000	-44.000000	12.000000
0.270000	86.590000	59.820000	597.000000	0.000000	147.000000	56.000000	-44.000000	21.000000
0.280000	86.140000	60.100000	638.000000	0.000000	147.000000	56.000000	-45.000000	28.000000
0.290000	85.740000	60.390000	668.000000	0.000000	147.000000	56.000000	-40.000000	29.000000
0.300000	85.430000	60.680000	676.000000	0.000000	147.000000	56.000000	-31.000000	29.000000
0.310000	85.240000	60.860000	681.000000	0.000000	146.000000	55.000000	-19.000000	18.000000
0.320000	85.180000	60.970000	665.000000	0.000000	146.000000	55.000000	-6.000000	11.000000
0.330000	85.180000	60.970000	568.000000	0.000000	146.000000	55.000000	0.000000	0.000000
0.340000	85.260000	60.970000	333.000000	0.000000	146.000000	55.000000	8.000000	0.000000
0.350000	85.260000	60.970000	0.000000	1.000000	148.000000	56.000000	0.000000	0.000000
0.360000	85.690000	60.840000	0.000000	0.000000	148.000000	56.000000	43.000000	-13.000000
0.370000	86.150000	61.130000	0.000000	0.000000	149.000000	55.000000	46.000000	29.000000
0.380000	86.530000	61.660000	0.000000	0.000000	150.000000	55.000000	38.000000	53.000000
0.390000	87.220000	62.390000	0.000000	0.000000	150.000000	55.000000	69.000000	73.000000
0.400000	88.110000	62.860000	0.000000	0.000000	150.000000	55.000000	89.000000	47.000000
0.410000	89.130000	63.150000	0.000000	0.000000	150.000000	55.000000	102.000000	29.000000
0.420000	90.090000	63.920000	0.000000	0.000000	151.000000	54.000000	96.000000	77.000000
0.430000	90.780000	64.060000	0.000000	0.000000	148.000000	54.000000	69.000000	14.000000
0.440000	91.300000	63.780000	0.000000	0.000000	147.000000	52.000000	52.000000	-28.000000
0.450000	91.520000	63.470000	0.000000	0.000000	147.000000	51.000000	22.000000	-31.000000
0.460000	91.460000	63.010000	0.000000	0.000000	144.000000	50.000000	-6.000000	-46.000000
0.470000	91.220000	62.440000	0.000000	0.000000	143.000000	49.000000	-24.000000	-57.000000
0.480000	90.990000	61.940000	0.000000	0.000000	141.000000	49.000000	-23.000000	-50.000000
0.490000	90.860000	61.410000	0.000000	0.000000	139.000000	48.000000	-13.000000	-53.000000
0.500000	90.960000	61.520000	0.000000	0.000000	138.000000	49.000000	10.000000	11.000000
0.510000	91.170000	62.060000	0.000000	0.000000	138.000000	50.000000	21.000000	54.000000
0.520000	91.120000	62.140000	0.000000	0.000000	138.000000	51.000000	-5.000000	8.000000
0.530000	91.050000	62.140000	0.000000	0.000000	140.000000	52.000000	-7.000000	0.000000
0.540000	90.960000	62.140000	0.000000	0.000000	141.000000	53.000000	-9.000000	0.000000
0.550000	90.850000	62.140000	0.000000	0.000000	142.000000	54.000000	-11.000000	0.000000
0.560000	90.730000	62.140000	0.000000	0.000000	144.000000	54.000000	-12.000000	0.000000
0.570000	90.620000	62.140000	0.000000	0.000000	145.000000	55.000000	-11.000000	0.000000
0.580000	90.520000	62.090000	0.000000	0.000000	145.000000	55.000000	-10.000000	-5.000000
0.590000	90.520000	62.140000	0.000000	0.000000	146.000000	55.000000	0.000000	5.000000
0.600000	90.520000	62.210000	0.000000	0.000000	146.000000	55.000000	0.000000	7.000000
0.610000	90.620000	62.290000	0.000000	0.000000	146.000000	55.000000	10.000000	8.000000
0.620000	90.670000	62.350000	0.000000	0.000000	148.000000	56.000000	5.000000	6.000000
0.630000	90.670000	62.400000	0.000000	0.000000	148.000000	56.000000	0.000000	5.000000
0.640000	90.610000	62.400000	0.000000	0.000000	148.000000	56.000000	-6.000000	0.000000
0.650000	90.470000	62.400000	0.000000	0.000000	149.000000	55.000000	-14.000000	0.000000
0.660000	90.320000	62.400000	0.000000	0.000000	149.000000	55.000000	-15.000000	0.000000
0.670000	90.150000	62.310000	0.000000	0.000000	149.000000	55.000000	-17.000000	-9.000000
0.680000	90.010000	62.250000	0.000000	0.000000	149.000000	55.000000	-14.000000	-6.000000
0.690000	89.880000	62.250000	0.000000	0.000000	149.000000	55.000000	-13.000000	0.000000
0.700000	89.790000	62.250000	0.000000	0.000000	150.000000	55.000000	-9.000000	0.000000
0.710000	89.790000	62.250000	0.000000	0.000000	150.000000	55.000000	0.000000	0.000000
0.720000	89.790000	62.300000	0.000000	0.000000	150.000000	55.000000	0.000000	5.000000
0.730000	89.790000	62.400000	0.000000	0.000000	150.000000	55.000000	0.000000	10.000000
0.740000	89.870000	62.400000	0.000000	0.000000	150.000000	55.000000	8.000000	0.000000
0.750000	89.930000	62.400000	0.000000	0.000000	150.000000	55.000000	6.000000	0.000000
0.760000	89.930000	62.400000	0.000000	0.000000	150.000000	55.000000	0.000000	0.000000
0.770000	89.860000	62.400000	0.000000	0.000000	149.000000	55.000000	-7.000000	0.000000
0.780000	89.860000	62.400000	0.000000	0.000000	149.000000	55.000000	0.000000	0.000000
0.790000	89.760000	62.400000	0.000000	0.000000	149.000000	55.000000	-10.000000	0.000000
0.800000	89.680000	62.400000	0.000000	0.000000	149.000000	55.000000	-8.000000	0.000000
0.810000	89.680000	62.400000	0.000000	0.000000	149.000000	55.000000	0.000000	0.000000
0.820000	89.680000	62.460000	0.000000	0.000000	149.000000	55.000000	0.000000	6.000000
0.830000	89.750000	62.460000	0.000000	0.000000	149.000000	55.000000	7.000000	0.000000
0.840000	89.810000	62.550000	0.000000	0.000000	149.000000	55.000000	6.000000	9.000000
0.850000	89.870000	62.650000	0.000000	0.000000	149.000000	55.000000	6.000000	10.000000
0.860000	89.870000	62.730000	0.000000	0.000000	149.000000	55.000000	0.000000	8.000000
0.870000	89.870000	62.730000	53.000000	1.000000	149.000000	55.000000	0.000000	0.000000
0.880000	89.870000	62.730000	112.000000	0.000000	149.000000	55.000000	0.000000	0.000000
0.890000	89.750000	62.990000	170.000000	0.000000	149.000000	55.000000	-12.000000	26.000000
0.900000	89.750000	63.050000	225.000000	0.000000	149.000000	55.000000	0.000000	6.000000
0.910000	89.700000	63.110000	259.000000	0.000000	147.000000	55.000000	-5.000000	6.000000
0.920000	89.700000	63.210000	289.000000	0.000000	147.000000	55.000000	0.000000	10.000000
0.930000	89.700000	63.280000	327.000000	0.000000	147.000000	55.000000	0.000000	7.000000
0.940000	89.700000	63.340000	361.000000	0.000000	146.000000	54.000000	0.000000	6.000000
0.950000	89.700000	63.340000	396.000000	0.000000	146.000000	54.000000	0.000000	0.000000
0.960000	89.750000	63.390000	415.000000	0.000000	146.000000	54.000000	5.000000	5.000000
0.970000	89.750000	63.390000	446.000000	0.000000	146.000000	54.000000	0.000000	0.000000
0.980000	89.700000	63.390000	447.000000	0.000000	146.000000	54.000000	-5.000000	0.000000
0.990000	89.700000	63.330000	453.000000	0.000000	146.000000	54.000000	0.000000	-6.000000
1.000000	89.640000	63.280000	460.000000	0.000000	146.000000	54.000000	-6.000000	-5.000000
1.010000	89.640000	63.220000	465.000000	0.000000	146.000000	54.000000	0.000000	-6.000000
1.020000	89.580000	63.160000	474.000000	0.000000	146.000000	54.000000	-6.000000	-6.000000
1.030000	89.580000	63.110000	465.000000	0.000000	145.000000	54.000000	0.000000	-5.000000
1.040000	89.580000	63.110000	468.000000	0.000000	145.000000	54.000000	0.000000	0.000000
1.050000	89.580000	63.020000	472.000000	0.000000	143.000000	53.000000	0.000000	-9.000000
1.060000	89.580000	62.950000	478.000000	0.000000	143.000000	53.000000	0.000000	-7.000000
1.070000	89.580000	62.850000	481.000000	0.000000	143.000000	53.000000	0.000000	-10.000000
1.080000	89.580000	62.700000	483.000000	0.000000	143.000000	53.000000	0.000000	-15.000000
1.090000	89.580000	62.540000	488.000000	0.000000	143.000000	53.000000	0.000000	-16.000000
1.100000	89.640000	62.370000	493.000000	0.000000	143.000000	53.000000	6.000000	-17.000000
1.110000	89.690000	62.150000	498.000000	0.000000	145.000000	54.000000	5.000000	-22.000000
1.120000	89.750000	61.930000	489.000000	0.000000	145.000000	54.000000	6.000000	-22.000000
1.130000	89.850000	61.660000	499.000000	0.000000	145.000000	54.000000	10.000000	-27.000000
1.140000	89.960000	61.370000	502.000000	0.000000	146.000000	54.000000	11.000000	-29.000000
1.150000	90.100000	61.110000	515.000000	0.000000	146.000000	54.000000	14.000000	-26.000000
1.160000	90.270000	60.920000	520.000000	0.000000	146.000000	54.000000	17.000000	-19.000000
1.170000	90.510000	60.920000	519.000000	0.000000	146.000000	54.000000	24.000000	0.000000
1.180000	90.760000	60.990000	521.000000	0.000000	146.000000	54.000000	25.000000	7.000000
1.190000	91.020000	61.250000	518.000000	0.000000	146.000000	54.000000	26.000000	26.000000
1.200000	91.200000	61.640000	522.000000	0.000000	147.000000	55.000000	18.000000	39.000000
1.210000	91.310000	62.120000	529.000000	0.000000	147.000000	55.000000	11.000000	48.000000
1.220000	91.380000	62.510000	539.000000	0.000000	147.000000	55.000000	7.000000	39.000000
1.230000	91.310000	62.720000	556.000000	0.000000	147.000000	55.000000	-7.000000	21.000000
1.240000	91.230000	62.800000	568.000000	0.000000	147.000000	55.000000	-8.000000	8.000000
1.250000	91.180000	62.800000	567.000000	0.000000	147.000000	55.000000	-5.000000	0.000000
1.260000	91.130000	62.740000	572.000000	0.000000	147.000000	55.000000	-5.000000	-6.000000
1.270000	91.130000	62.530000	591.000000	0.000000	147.000000	55.000000	0.000000	-21.000000
1.280000	91.130000	62.220000	611.000000	0.000000	147.000000	55.000000	0.000000	-31.000000
1.290000	91.130000	61.770000	614.000000	0.000000	147.000000	55.000000	0.000000	-45.000000
1.300000	91.260000	61.450000	602.000000	0.000000	147.000000	55.000000	13.000000	-32.000000
1.310000	91.420000	61.230000	570.000000	0.000000	147.000000	55.000000	16.000000	-22.000000
1.320000	91.620000	61.100000	497.000000	0.000000	147.000000	55.000000	20.000000	-13.000000
1.330000	91.830000	61.040000	340.000000	0.000000	147.000000	55.000000	21.000000	-6.000000
1.340000	91.830000	61.040000	0.000000	1.000000	147.000000	55.000000	0.000000	0.000000
1.350000	92.430000	61.120000	0.000000	0.000000	147.000000	55.000000	60.000000	8.000000
1.360000	92.300000	61.290000	0.000000	0.000000	146.000000	55.000000	-13.000000	17.000000
1.370000	92.230000	61.520000	0.000000	0.000000	146.000000	55.000000	-7.000000	23.000000
1.380000	92.300000	61.730000	0.000000	0.000000	146.000000	55.000000	7.000000	21.000000
1.390000	92.450000	61.930000	0.000000	0.000000	146.000000	55.000000	15.000000	20.000000
1.400000	92.580000	62.090000	0.000000	0.000000	146.000000	55.000000	13.000000	16.000000
1.410000	92.720000	62.330000	0.000000	0.000000	146.000000	55.000000	14.000000	24.000000
1.420000	92.880000	62.630000	0.000000	0.000000	146.000000	55.000000	16.000000	30.000000
1.430000	93.000000	62.920000	0.000000	0.000000	147.000000	55.000000	12.000000	29.000000
1.440000	93.080000	63.150000	0.000000	0.000000	146.000000	54.000000	8.000000	23.000000
1.450000	93.080000	63.280000	0.000000	0.000000	146.000000	54.000000	0.000000	13.000000
1.460000	93.080000	63.360000	0.000000	0.000000	146.000000	54.000000	0.000000	8.000000
1.470000	93.020000	63.360000	0.000000	0.000000	145.000000	54.000000	-6.000000	0.000000
1.480000	92.960000	63.420000	0.000000	0.000000	145.000000	54.000000	-6.000000	6.000000
1.490000	92.910000	63.420000	0.000000	0.000000	146.000000	54.000000	-5.000000	0.000000
1.500000	92.910000	63.530000	0.000000	0.000000	146.000000	54.000000	0.000000	11.000000
1.510000	92.910000	63.590000	0.000000	0.000000	146.000000	54.000000	0.000000	6.000000
1.520000	92.910000	63.650000	0.000000	0.000000	146.000000	54.000000	0.000000	6.000000
1.530000	92.910000	63.650000	0.000000	0.000000	147.000000	55.000000	0.000000	0.000000
1.540000	92.990000	63.600000	0.000000	0.000000	147.000000	55.000000	8.000000	-5.000000
1.550000	93.040000	63.600000	0.000000	0.000000	146.000000	55.000000	5.000000	0.000000
1.560000	93.040000	63.600000	34.000000	1.000000	146.000000	55.000000	0.000000	0.000000
1.570000	93.040000	63.600000	101.000000	0.000000	146.000000	55.000000	0.000000	0.000000
1.580000	93.040000	63.600000	180.000000	0.000000	146.000000	55.000000	0.000000	0.000000
1.590000	93.040000	63.600000	207.000000	0.000000	146.000000	55.000000	0.000000	0.000000
1.600000	93.040000	63.600000	254.000000	0.000000	146.000000	55.000000	0.000000	0.000000
1.610000	93.310000	63.820000	277.000000	0.000000	146.000000	55.000000	27.000000	22.000000
1.620000	93.580000	63.920000	299.000000	0.000000	146.000000	55.000000	27.000000	10.000000
1.630000	93.950000	64.120000	312.000000	0.000000	146.000000	55.000000	37.000000	20.000000
1.640000	94.250000	64.390000	309.000000	0.000000	146.000000	55.000000	30.000000	27.000000
1.650000	94.440000	64.710000	314.000000	0.000000	145.000000	56.000000	19.000000	32.000000
1.660000	94.560000	65.030000	307.000000	0.000000	145.000000	56.000000	12.000000	32.000000
1.670000	94.560000	65.350000	315.000000	0.000000	145.000000	56.000000	0.000000	32.000000
1.680000	94.410000	65.670000	319.000000	0.000000	145.000000	56.000000	-15.000000	32.000000
1.690000	94.180000	65.830000	314.000000	0.000000	145.000000	56.000000	-23.000000	16.000000
1.700000	93.890000	65.950000	314.000000	0.000000	145.000000	56.000000	-29.000000	12.000000
1.710000	93.610000	65.950000	309.000000	0.000000	145.000000	56.000000	-28.000000	0.000000
1.720000	93.390000	65.950000	310.000000	0.000000	145.000000	56.000000	-22.000000	0.000000
1.730000	93.220000	65.830000	307.000000	0.000000	145.000000	56.000000	-17.000000	-12.000000
1.740000	93.100000	65.660000	319.000000	0.000000	145.000000	56.000000	-12.000000	-17.000000
1.750000	93.040000	65.340000	322.000000	0.000000	145.000000	56.000000	-6.000000	-32.000000
1.760000	93.040000	64.940000	329.000000	0.000000	144.000000	56.000000	0.000000	-40.000000
1.770000	93.040000	64.560000	341.000000	0.000000	144.000000	56.000000	0.000000	-38.000000
1.780000	93.040000	64.140000	373.000000	0.000000	144.000000	56.000000	0.000000	-42.000000
1.790000	93.160000	63.650000	394.000000	0.000000	144.000000	56.000000	12.000000	-49.000000
1.800000	93.230000	63.200000	420.000000	0.000000	144.000000	56.000000	7.000000	-45.000000
1.810000	93.310000	62.760000	465.000000	0.000000	145.000000	56.000000	8.000000	-44.000000
1.820000	93.430000	62.350000	502.000000	0.000000	146.000000	55.000000	12.000000	-41.000000
1.830000	93.600000	62.020000	515.000000	0.000000	146.000000	55.000000	17.000000	-33.000000
1.840000	93.830000	61.740000	541.000000	0.000000	148.000000	56.000000	23.000000	-28.000000
1.850000	94.080000	61.530000	537.000000	0.000000	148.000000	56.000000	25.000000	-21.000000
1.860000	94.370000	61.440000	548.000000	0.000000	148.000000	56.000000	29.000000	-9.000000
1.870000	94.650000	61.440000	546.000000	0.000000	149.000000	56.000000	28.000000	0.000000
1.880000	94.920000	61.580000	548.000000	0.000000	149.000000	56.000000	27.000000	14.000000
1.890000	95.080000	61.800000	540.000000	0.000000	149.000000	56.000000	16.000000	22.000000
1.900000	95.180000	62.070000	544.000000	0.000000	151.000000	56.000000	10.000000	27.000000
1.910000	95.180000	62.310000	546.000000	0.000000	151.000000	56.000000	0.000000	24.000000
1.920000	95.130000	62.500000	536.000000	0.000000	151.000000	56.000000	-5.000000	19.000000
1.930000	95.130000	62.500000	546.000000	0.000000	151.000000	56.000000	0.000000	0.000000
1.940000	95.130000	62.500000	544.000000	0.000000	151.000000	56.000000	0.000000	0.000000
1.950000	95.130000	62.500000	542.000000	0.000000	151.000000	56.000000	0.000000	0.000000
1.960000	95.180000	62.140000	545.000000	0.000000	151.000000	56.000000	5.000000	-36.000000
1.970000	95.250000	61.870000	545.000000	0.000000	151.000000	56.000000	7.000000	-27.000000
1.980000	95.370000	61.610000	538.000000	0.000000	151.000000	56.000000	12.000000	-26.000000
1.990000	95.490000	61.460000	468.000000	0.000000	151.000000	56.000000	12.000000	-15.000000
2.000000	95.620000	61.360000	247.000000	0.000000	151.000000	56.000000	13.000000	-10.000000
2.010000	95.620000	61.360000	0.000000	1.000000	151.000000	56.000000	0.000000	0.000000
2.020000	95.880000	61.570000	0.000000	0.000000	151.000000	56.000000	26.000000	21.000000
2.030000	96.020000	61.890000	0.000000	0.000000	151.000000	56.000000	14.000000	32.000000
2.040000	96.170000	62.200000	0.000000	0.000000	151.000000	56.000000	15.000000	31.000000
2.050000	96.430000	62.470000	0.000000	0.000000	151.000000	56.000000	26.000000	27.000000
2.060000	96.640000	62.570000	0.000000	0.000000	151.000000	56.000000	21.000000	10.000000
2.070000	96.810000	62.570000	0.000000	0.000000	151.000000	56.000000	17.000000	0.000000
2.080000	96.960000	62.570000	0.000000	0.000000	151.000000	56.000000	15.000000	0.000000
2.090000	97.040000	62.570000	0.000000	0.000000	149.000000	56.000000	8.000000	0.000000
2.100000	97.040000	62.570000	0.000000	0.000000	149.000000	56.000000	0.000000	0.000000
2.110000	97.040000	62.570000	0.000000	0.000000	150.000000	55.000000	0.000000	0.000000
2.120000	97.090000	62.570000	0.000000	0.000000	149.000000	55.000000	5.000000	0.000000
2.130000	97.090000	62.680000	0.000000	0.000000	149.000000	55.000000	0.000000	11.000000
2.140000	97.170000	62.680000	0.000000	0.000000	149.000000	56.000000	8.000000	0.000000
2.150000	97.170000	62.680000	3.000000	0.000000	149.000000	56.000000	0.000000	0.000000
2.160000	97.170000	62.680000	93.000000	1.000000	149.000000	56.000000	0.000000	0.000000
2.170000	97.490000	62.960000	216.000000	0.000000	151.000000	56.000000	32.000000	28.000000
2.180000	97.490000	63.070000	332.000000	0.000000	151.000000	56.000000	0.000000	11.000000
2.190000	97.490000	63.160000	412.000000	0.000000	151.000000	56.000000	0.000000	9.000000
2.200000	97.420000	63.220000	481.000000	0.000000	152.000000	57.000000	-7.000000	6.000000
2.210000	97.300000	63.220000	518.000000	0.000000	152.000000	57.000000	-12.000000	0.000000
2.220000	97.120000	63.220000	535.000000	0.000000	152.000000	57.000000	-18.000000	0.000000
2.230000	96.890000	63.000000	546.000000	0.000000	152.000000	57.000000	-23.000000	-22.000000
