t	x	y	pressure	penup	azimuth	inclination	v_x	v_y
0.000000	87.470000	13.430000	32.000000	1.000000	149.000000	55.000000	0.000000	0.000000
0.010000	87.470000	13.430000	96.000000	0.000000	149.000000	55.000000	0.000000	0.000000
0.020000	87.470000	13.430000	148.000000	0.000000	146.000000	55.000000	0.000000	0.000000
0.030000	87.470000	13.430000	210.000000	0.000000	146.000000	55.000000	0.000000	0.000000
0.040000	87.180000	13.610000	251.000000	0.000000	145.000000	56.000000	-29.000000	18.000000
0.050000	87.180000	13.700000	259.000000	0.000000	144.000000	56.000000	0.000000	9.000000
0.060000	87.180000	13.700000	277.000000	0.000000	144.000000	56.000000	0.000000	0.000000
0.070000	87.180000	13.790000	287.000000	0.000000	144.000000	56.000000	0.000000	9.000000
0.080000	87.180000	13.790000	284.000000	0.000000	144.000000	56.000000	0.000000	0.000000
0.090000	87.240000	13.860000	299.000000	0.000000	144.000000	56.000000	6.000000	7.000000
0.100000	87.240000	13.860000	314.000000	0.000000	144.000000	56.000000	0.000000	0.000000
0.110000	87.240000	13.860000	340.000000	0.000000	144.000000	56.000000	0.000000	0.000000
0.120000	87.240000	13.860000	334.000000	0.000000	144.000000	56.000000	0.000000	0.000000
0.130000	87.240000	13.770000	351.000000	0.000000	144.000000	56.000000	0.000000	-9.000000
0.140000	87.240000	13.640000	371.000000	0.000000	144.000000	56.000000	0.000000	-13.000000
0.150000	87.330000	13.430000	376.000000	0.000000	144.000000	56.000000	9.000000	-21.000000
0.160000	87.430000	13.080000	382.000000	0.000000	144.000000	56.000000	10.000000	-35.000000
0.170000	87.560000	12.650000	387.000000	0.000000	144.000000	56.000000	13.000000	-43.000000
0.180000	87.710000	12.240000	388.000000	0.000000	144.000000	56.000000	15.000000	-41.000000
0.190000	87.920000	11.820000	392.000000	0.000000	144.000000	56.000000	21.000000	-42.000000
0.200000	88.140000	11.430000	397.000000	0.000000	145.000000	56.000000	22.000000	-39.000000
0.210000	88.350000	11.050000	410.000000	0.000000	145.000000	56.000000	21.000000	-38.000000
0.220000	88.580000	10.680000	420.000000	0.000000	145.000000	56.000000	23.000000	-37.000000
0.230000	88.810000	10.350000	425.000000	0.000000	147.000000	56.000000	23.000000	-33.000000
0.240000	89.030000	10.040000	428.000000	0.000000	147.000000	56.000000	22.000000	-31.000000
0.250000	89.230000	9.680000	433.000000	0.000000	147.000000	56.000000	20.000000	-36.000000
0.260000	89.370000	9.310000	438.000000	0.000000	145.000000	56.000000	14.000000	-37.000000
0.270000	89.480000	8.940000	440.000000	0.000000	145.000000	56.000000	11.000000	-37.000000
0.280000	89.540000	8.610000	446.000000	0.000000	146.000000	55.000000	6.000000	-33.000000
0.290000	89.540000	8.370000	449.000000	0.000000	146.000000	55.000000	0.000000	-24.000000
0.300000	89.540000	8.200000	455.000000	0.000000	148.000000	56.000000	0.000000	-17.000000
0.310000	89.400000	8.050000	473.000000	0.000000	149.000000	55.000000	-14.000000	-15.000000
0.320000	89.200000	8.050000	509.000000	0.000000	149.000000	55.000000	-20.000000	0.000000
0.330000	88.960000	8.050000	521.000000	0.000000	150.000000	55.000000	-24.000000	0.000000
0.340000	88.500000	8.180000	537.000000	0.000000	152.000000	56.000000	-46.000000	13.000000
0.350000	88.060000	8.350000	570.000000	0.000000	152.000000	56.000000	-44.000000	17.000000
0.360000	87.620000	8.580000	578.000000	0.000000	152.000000	56.000000	-44.000000	23.000000
0.370000	87.230000	8.740000	606.000000	0.000000	152.000000	56.000000	-39.000000	16.000000
0.380000	86.980000	8.880000	620.000000	0.000000	152.000000	56.000000	-25.000000	14.000000
0.390000	86.830000	8.970000	617.000000	0.000000	150.000000	55.000000	-15.000000	9.000000
0.400000	86.780000	9.030000	597.000000	0.000000	150.000000	55.000000	-5.000000	6.000000
0.410000	86.780000	9.030000	561.000000	0.000000	149.000000	56.000000	0.000000	0.000000
0.420000	86.860000	9.090000	493.000000	0.000000	149.000000	56.000000	8.000000	6.000000
0.430000	86.990000	9.200000	312.000000	0.000000	148.000000	56.000000	13.000000	11.000000
0.440000	86.990000	9.200000	0.000000	1.000000	148.000000	56.000000	0.000000	0.000000
0.450000	88.000000	9.610000	0.000000	0.000000	149.000000	56.000000	101.000000	41.000000
0.460000	88.230000	9.920000	0.000000	0.000000	149.000000	56.000000	23.000000	31.000000
0.470000	88.230000	10.270000	0.000000	0.000000	151.000000	56.000000	0.000000	35.000000
0.480000	88.300000	10.480000	0.000000	0.000000	152.000000	56.000000	7.000000	21.000000
0.490000	88.400000	10.600000	0.000000	0.000000	153.000000	56.000000	10.000000	12.000000
0.500000	88.700000	10.650000	0.000000	0.000000	155.000000	55.000000	30.000000	5.000000
0.510000	89.130000	10.740000	0.000000	0.000000	156.000000	55.000000	43.000000	9.000000
0.520000	89.730000	10.830000	0.000000	0.000000	157.000000	54.000000	60.000000	9.000000
0.530000	90.350000	10.890000	0.000000	0.000000	157.000000	52.000000	62.000000	6.000000
0.540000	91.010000	10.890000	0.000000	0.000000	157.000000	51.000000	66.000000	0.000000
0.550000	91.460000	10.890000	0.000000	0.000000	156.000000	50.000000	45.000000	0.000000
0.560000	91.770000	10.750000	0.000000	0.000000	155.000000	48.000000	31.000000	-14.000000
0.570000	91.840000	10.570000	0.000000	0.000000	153.000000	48.000000	7.000000	-18.000000
0.580000	91.750000	10.330000	0.000000	0.000000	152.000000	48.000000	-9.000000	-24.000000
0.590000	91.560000	10.090000	0.000000	0.000000	152.000000	48.000000	-19.000000	-24.000000
0.600000	91.340000	9.940000	0.000000	0.000000	151.000000	48.000000	-22.000000	-15.000000
0.610000	91.120000	9.840000	0.000000	0.000000	152.000000	49.000000	-22.000000	-10.000000
0.620000	90.890000	9.840000	0.000000	0.000000	151.000000	51.000000	-23.000000	0.000000
0.630000	90.640000	9.840000	0.000000	0.000000	152.000000	53.000000	-25.000000	0.000000
0.640000	90.520000	9.840000	0.000000	0.000000	152.000000	54.000000	-12.000000	0.000000
0.650000	90.450000	9.840000	0.000000	0.000000	153.000000	54.000000	-7.000000	0.000000
0.660000	90.450000	9.840000	0.000000	0.000000	154.000000	55.000000	0.000000	0.000000
0.670000	90.450000	9.840000	0.000000	0.000000	154.000000	55.000000	0.000000	0.000000
0.680000	90.450000	9.840000	0.000000	0.000000	154.000000	55.000000	0.000000	0.000000
0.690000	90.450000	9.840000	0.000000	0.000000	154.000000	55.000000	0.000000	0.000000
0.700000	90.450000	9.840000	0.000000	0.000000	154.000000	55.000000	0.000000	0.000000
0.710000	90.450000	9.840000	0.000000	0.000000	154.000000	55.000000	0.000000	0.000000
0.720000	90.450000	9.840000	0.000000	0.000000	154.000000	55.000000	0.000000	0.000000
0.730000	90.450000	9.840000	0.000000	0.000000	154.000000	55.000000	0.000000	0.000000
0.740000	90.330000	10.120000	0.000000	0.000000	154.000000	55.000000	-12.000000	28.000000
0.750000	90.330000	10.290000	0.000000	0.000000	154.000000	55.000000	0.000000	17.000000
0.760000	90.330000	10.370000	0.000000	0.000000	155.000000	55.000000	0.000000	8.000000
0.770000	90.330000	10.440000	0.000000	0.000000	155.000000	55.000000	0.000000	7.000000
0.780000	90.330000	10.490000	0.000000	0.000000	155.000000	55.000000	0.000000	5.000000
0.790000	90.330000	10.490000	0.000000	0.000000	155.000000	55.000000	0.000000	0.000000
0.800000	90.430000	10.550000	0.000000	0.000000	155.000000	55.000000	10.000000	6.000000
0.810000	90.430000	10.550000	0.000000	0.000000	155.000000	55.000000	0.000000	0.000000
0.820000	90.370000	10.600000	0.000000	0.000000	155.000000	55.000000	-6.000000	5.000000
0.830000	90.370000	10.600000	0.000000	0.000000	155.000000	55.000000	0.000000	0.000000
0.840000	90.370000	10.600000	0.000000	0.000000	155.000000	55.000000	0.000000	0.000000
0.850000	90.370000	10.600000	0.000000	0.000000	155.000000	55.000000	0.000000	0.000000
0.860000	90.370000	10.520000	0.000000	0.000000	155.000000	55.000000	0.000000	-8.000000
0.870000	90.370000	10.460000	0.000000	0.000000	155.000000	55.000000	0.000000	-6.000000
0.880000	90.300000	10.390000	0.000000	0.000000	154.000000	56.000000	-7.000000	-7.000000
0.890000	90.300000	10.320000	0.000000	0.000000	154.000000	56.000000	0.000000	-7.000000
0.900000	90.230000	10.250000	0.000000	0.000000	154.000000	56.000000	-7.000000	-7.000000
0.910000	90.160000	10.250000	0.000000	0.000000	154.000000	56.000000	-7.000000	0.000000
0.920000	90.160000	10.250000	25.000000	1.000000	154.000000	57.000000	0.000000	0.000000
0.930000	90.160000	10.250000	51.000000	0.000000	154.000000	57.000000	0.000000	0.000000
0.940000	90.160000	10.250000	117.000000	0.000000	154.000000	57.000000	0.000000	0.000000
0.950000	90.160000	10.250000	184.000000	0.000000	154.000000	57.000000	0.000000	0.000000
0.960000	90.210000	10.520000	225.000000	0.000000	152.000000	57.000000	5.000000	27.000000
0.970000	90.210000	10.620000	275.000000	0.000000	151.000000	56.000000	0.000000	10.000000
0.980000	90.260000	10.710000	327.000000	0.000000	149.000000	56.000000	5.000000	9.000000
0.990000	90.260000	10.790000	339.000000	0.000000	148.000000	56.000000	0.000000	8.000000
1.000000	90.260000	10.890000	369.000000	0.000000	146.000000	55.000000	0.000000	10.000000
1.010000	90.210000	11.000000	371.000000	0.000000	144.000000	56.000000	-5.000000	11.000000
1.020000	90.210000	11.050000	398.000000	0.000000	144.000000	56.000000	0.000000	5.000000
1.030000	90.150000	11.050000	413.000000	0.000000	143.000000	55.000000	-6.000000	0.000000
1.040000	90.150000	11.100000	428.000000	0.000000	143.000000	55.000000	0.000000	5.000000
1.050000	90.150000	11.100000	448.000000	0.000000	141.000000	55.000000	0.000000	0.000000
1.060000	90.150000	11.100000	439.000000	0.000000	141.000000	55.000000	0.000000	0.000000
1.070000	90.150000	11.100000	443.000000	0.000000	141.000000	55.000000	0.000000	0.000000
1.080000	90.150000	11.100000	445.000000	0.000000	141.000000	55.000000	0.000000	0.000000
1.090000	90.150000	10.990000	447.000000	0.000000	141.000000	55.000000	0.000000	-11.000000
1.100000	90.150000	10.880000	448.000000	0.000000	144.000000	54.000000	0.000000	-11.000000
1.110000	90.100000	10.710000	458.000000	0.000000	144.000000	54.000000	-5.000000	-17.000000
1.120000	90.100000	10.530000	466.000000	0.000000	144.000000	54.000000	0.000000	-18.000000
1.130000	90.100000	10.340000	471.000000	0.000000	144.000000	54.000000	0.000000	-19.000000
1.140000	90.100000	10.140000	464.000000	0.000000	144.000000	54.000000	0.000000	-20.000000
1.150000	90.100000	9.940000	467.000000	0.000000	144.000000	54.000000	0.000000	-20.000000
1.160000	90.180000	9.760000	473.000000	0.000000	144.000000	54.000000	8.000000	-18.000000
1.170000	90.290000	9.590000	483.000000	0.000000	144.000000	54.000000	11.000000	-17.000000
1.180000	90.420000	9.380000	491.000000	0.000000	144.000000	54.000000	13.000000	-21.000000
1.190000	90.580000	9.230000	492.000000	0.000000	144.000000	54.000000	16.000000	-15.000000
1.200000	90.800000	9.120000	504.000000	0.000000	144.000000	54.000000	22.000000	-11.000000
1.210000	91.050000	9.120000	522.000000	0.000000	145.000000	54.000000	25.000000	0.000000
1.220000	91.240000	9.170000	527.000000	0.000000	146.000000	54.000000	19.000000	5.000000
1.230000	91.400000	9.240000	540.000000	0.000000	146.000000	54.000000	16.000000	7.000000
1.240000	91.480000	9.350000	545.000000	0.000000	146.000000	54.000000	8.000000	11.000000
1.250000	91.480000	9.520000	546.000000	0.000000	146.000000	54.000000	0.000000	17.000000
1.260000	91.540000	9.720000	545.000000	0.000000	147.000000	55.000000	6.000000	20.000000
1.270000	91.610000	9.940000	545.000000	0.000000	147.000000	55.000000	7.000000	22.000000
1.280000	91.690000	10.100000	543.000000	0.000000	147.000000	55.000000	8.000000	16.000000
1.290000	91.690000	10.170000	533.000000	0.000000	147.000000	55.000000	0.000000	7.000000
1.300000	91.690000	10.170000	529.000000	0.000000	146.000000	55.000000	0.000000	0.000000
1.310000	91.690000	10.110000	530.000000	0.000000	146.000000	55.000000	0.000000	-6.000000
1.320000	91.630000	10.000000	535.000000	0.000000	146.000000	55.000000	-6.000000	-11.000000
1.330000	91.630000	9.840000	535.000000	0.000000	145.000000	55.000000	0.000000	-16.000000
1.340000	91.630000	9.670000	535.000000	0.000000	145.000000	55.000000	0.000000	-17.000000
1.350000	91.700000	9.500000	521.000000	0.000000	145.000000	55.000000	7.000000	-17.000000
1.360000	91.810000	9.360000	489.000000	0.000000	146.000000	55.000000	11.000000	-14.000000
1.370000	91.920000	9.260000	386.000000	0.000000	147.000000	55.000000	11.000000	-10.000000
1.380000	92.040000	9.170000	217.000000	0.000000	149.000000	55.000000	12.000000	-9.000000
1.390000	92.040000	9.170000	0.000000	1.000000	150.000000	55.000000	0.000000	0.000000
1.400000	92.330000	9.010000	0.000000	0.000000	150.000000	55.000000	29.000000	-16.000000
1.410000	92.470000	9.110000	0.000000	0.000000	152.000000	56.000000	14.000000	10.000000
1.420000	92.590000	9.320000	0.000000	0.000000	153.000000	56.000000	12.000000	21.000000
1.430000	92.760000	9.600000	0.000000	0.000000	154.000000	55.000000	17.000000	28.000000
1.440000	92.980000	9.880000	0.000000	0.000000	155.000000	55.000000	22.000000	28.000000
1.450000	93.290000	10.140000	0.000000	0.000000	155.000000	54.000000	31.000000	26.000000
1.460000	93.640000	10.390000	0.000000	0.000000	155.000000	54.000000	35.000000	25.000000
1.470000	93.920000	10.540000	0.000000	0.000000	154.000000	53.000000	28.000000	15.000000
1.480000	94.020000	10.600000	0.000000	0.000000	155.000000	52.000000	10.000000	6.000000
1.490000	94.020000	10.600000	0.000000	0.000000	155.000000	51.000000	0.000000	0.000000
1.500000	93.850000	10.470000	0.000000	0.000000	155.000000	51.000000	-17.000000	-13.000000
1.510000	93.680000	10.370000	0.000000	0.000000	155.000000	51.000000	-17.000000	-10.000000
1.520000	93.520000	10.370000	0.000000	0.000000	153.000000	51.000000	-16.000000	0.000000
1.530000	93.400000	10.370000	0.000000	0.000000	155.000000	51.000000	-12.000000	0.000000
1.540000	93.340000	10.370000	0.000000	0.000000	155.000000	51.000000	-6.000000	0.000000
1.550000	93.340000	10.480000	0.000000	0.000000	154.000000	52.000000	0.000000	11.000000
1.560000	93.340000	10.590000	0.000000	0.000000	155.000000	52.000000	0.000000	11.000000
1.570000	93.390000	10.590000	0.000000	0.000000	155.000000	52.000000	5.000000	0.000000
1.580000	93.390000	10.660000	0.000000	0.000000	154.000000	53.000000	0.000000	7.000000
1.590000	93.390000	10.660000	0.000000	0.000000	154.000000	53.000000	0.000000	0.000000
1.600000	93.340000	10.710000	0.000000	0.000000	154.000000	53.000000	-5.000000	5.000000
1.610000	93.280000	10.710000	0.000000	0.000000	154.000000	53.000000	-6.000000	0.000000
1.620000	93.230000	10.800000	0.000000	0.000000	154.000000	53.000000	-5.000000	9.000000
1.630000	93.230000	10.870000	0.000000	0.000000	154.000000	53.000000	0.000000	7.000000
1.640000	93.140000	10.960000	0.000000	0.000000	154.000000	53.000000	-9.000000	9.000000
1.650000	93.140000	10.960000	0.000000	0.000000	154.000000	53.000000	0.000000	0.000000
1.660000	93.140000	11.040000	0.000000	0.000000	154.000000	53.000000	0.000000	8.000000
1.670000	93.140000	11.090000	0.000000	0.000000	154.000000	53.000000	0.000000	5.000000
1.680000	93.230000	11.090000	0.000000	0.000000	153.000000	54.000000	9.000000	0.000000
1.690000	93.230000	11.170000	0.000000	0.000000	153.000000	54.000000	0.000000	8.000000
1.700000	93.230000	11.230000	0.000000	0.000000	153.000000	54.000000	0.000000	6.000000
1.710000	93.230000	11.230000	0.000000	0.000000	153.000000	54.000000	0.000000	0.000000
1.720000	93.110000	11.280000	0.000000	0.000000	153.000000	55.000000	-12.000000	5.000000
1.730000	92.990000	11.280000	0.000000	0.000000	154.000000	55.000000	-12.000000	0.000000
1.740000	92.860000	11.280000	0.000000	0.000000	154.000000	55.000000	-13.000000	0.000000
1.750000	92.740000	11.340000	0.000000	0.000000	153.000000	56.000000	-12.000000	6.000000
1.760000	92.740000	11.340000	25.000000	1.000000	153.000000	56.000000	0.000000	0.000000
1.770000	92.740000	11.340000	56.000000	0.000000	153.000000	56.000000	0.000000	0.000000
1.780000	92.740000	11.340000	107.000000	0.000000	153.000000	56.000000	0.000000	0.000000
1.790000	92.740000	11.340000	139.000000	0.000000	153.000000	56.000000	0.000000	0.000000
1.800000	93.010000	11.280000	193.000000	0.000000	153.000000	56.000000	27.000000	-6.000000
1.810000	93.230000	11.330000	241.000000	0.000000	152.000000	56.000000	22.000000	5.000000
1.820000	93.500000	11.440000	279.000000	0.000000	152.000000	56.000000	27.000000	11.000000
1.830000	93.780000	11.640000	324.000000	0.000000	150.000000	55.000000	28.000000	20.000000
1.840000	94.040000	11.980000	329.000000	0.000000	150.000000	55.000000	26.000000	34.000000
1.850000	94.280000	12.410000	345.000000	0.000000	150.000000	55.000000	24.000000	43.000000
1.860000	94.430000	12.890000	339.000000	0.000000	149.000000	55.000000	15.000000	48.000000
1.870000	94.530000	13.380000	335.000000	0.000000	149.000000	55.000000	10.000000	49.000000
1.880000	94.530000	13.880000	324.000000	0.000000	149.000000	55.000000	0.000000	50.000000
1.890000	94.390000	14.130000	310.000000	0.000000	149.000000	55.000000	-14.000000	25.000000
1.900000	94.200000	14.330000	314.000000	0.000000	149.000000	55.000000	-19.000000	20.000000
1.910000	94.050000	14.380000	309.000000	0.000000	150.000000	54.000000	-15.000000	5.000000
1.920000	93.860000	14.380000	302.000000	0.000000	150.000000	54.000000	-19.000000	0.000000
1.930000	93.630000	14.170000	301.000000	0.000000	150.000000	54.000000	-23.000000	-21.000000
1.940000	93.420000	13.950000	304.000000	0.000000	150.000000	54.000000	-21.000000	-22.000000
1.950000	93.230000	13.630000	302.000000	0.000000	150.000000	54.000000	-19.000000	-32.000000
1.960000	93.090000	13.130000	304.000000	0.000000	150.000000	54.000000	-14.000000	-50.000000
1.970000	93.010000	12.520000	304.000000	0.000000	148.000000	54.000000	-8.000000	-61.000000
1.980000	93.010000	11.890000	316.000000	0.000000	148.000000	54.000000	0.000000	-63.000000
1.990000	93.010000	11.240000	320.000000	0.000000	147.000000	55.000000	0.000000	-65.000000
2.000000	93.090000	10.780000	339.000000	0.000000	147.000000	55.000000	8.000000	-46.000000
2.010000	93.210000	10.450000	369.000000	0.000000	147.000000	55.000000	12.000000	-33.000000
2.020000	93.400000	10.110000	389.000000	0.000000	147.000000	55.000000	19.000000	-34.000000
2.030000	93.620000	9.870000	409.000000	0.000000	149.000000	55.000000	22.000000	-24.000000
2.040000	93.890000	9.690000	420.000000	0.000000	149.000000	55.000000	27.000000	-18.000000
2.050000	94.130000	9.580000	445.000000	0.000000	149.000000	55.000000	24.000000	-11.000000
2.060000	94.310000	9.530000	469.000000	0.000000	150.000000	55.000000	18.000000	-5.000000
2.070000	94.480000	9.530000	473.000000	0.000000	150.000000	55.000000	17.000000	0.000000
2.080000	94.620000	9.530000	478.000000	0.000000	151.000000	54.000000	14.000000	0.000000
2.090000	94.790000	9.630000	481.000000	0.000000	153.000000	55.000000	17.000000	10.000000
2.100000	94.960000	9.800000	475.000000	0.000000	153.000000	55.000000	17.000000	17.000000
2.110000	95.130000	10.000000	475.000000	0.000000	154.000000	55.000000	17.000000	20.000000
2.120000	95.260000	10.200000	470.000000	0.000000	154.000000	55.000000	13.000000	20.000000
2.130000	95.380000	10.390000	464.000000	0.000000	155.000000	55.000000	12.000000	19.000000
2.140000	95.500000	10.580000	471.000000	0.000000	155.000000	55.000000	12.000000	19.000000
2.150000	95.580000	10.580000	471.000000	0.000000	155.000000	55.000000	8.000000	0.000000
2.160000	95.640000	10.580000	468.000000	0.000000	155.000000	55.000000	6.000000	0.000000
2.170000	95.640000	10.470000	467.000000	0.000000	155.000000	55.000000	0.000000	-11.000000
2.180000	95.690000	10.300000	473.000000	0.000000	155.000000	55.000000	5.000000	-17.000000
2.190000	95.690000	10.060000	491.000000	0.000000	155.000000	55.000000	0.000000	-24.000000
2.200000	95.690000	9.800000	493.000000	0.000000	155.000000	55.000000	0.000000	-26.000000
2.210000	95.690000	9.560000	483.000000	0.000000	157.000000	56.000000	0.000000	-24.000000
2.220000	95.810000	9.460000	467.000000	0.000000	157.000000	56.000000	12.000000	-10.000000
2.230000	95.980000	9.460000	430.000000	0.000000	157.000000	56.000000	17.000000	0.000000
2.240000	96.170000	9.530000	349.000000	0.000000	157.000000	56.000000	19.000000	7.000000
