t	x	y	pressure	penup	azimuth	inclination	v_x	v_y
0.000000	49.010000	52.130000	191.000000	1.000000	138.000000	64.000000	0.000000	0.000000
0.010000	48.830000	53.720000	222.000000	0.000000	141.000000	64.000000	-18.000000	159.000000
0.020000	48.770000	53.990000	223.000000	0.000000	145.000000	64.000000	-6.000000	27.000000
0.030000	48.840000	53.990000	304.000000	0.000000	146.000000	63.000000	7.000000	0.000000
0.040000	48.990000	53.760000	371.000000	0.000000	149.000000	63.000000	15.000000	-23.000000
0.050000	49.360000	52.550000	436.000000	0.000000	149.000000	63.000000	37.000000	-121.000000
0.060000	49.740000	50.720000	515.000000	0.000000	151.000000	63.000000	38.000000	-183.000000
0.070000	49.880000	48.080000	592.000000	0.000000	151.000000	63.000000	14.000000	-264.000000
0.080000	49.880000	45.810000	668.000000	0.000000	150.000000	64.000000	0.000000	-227.000000
0.090000	49.880000	43.790000	720.000000	0.000000	146.000000	64.000000	0.000000	-202.000000
0.100000	49.680000	42.220000	790.000000	0.000000	145.000000	65.000000	-20.000000	-157.000000
0.110000	49.310000	41.050000	867.000000	0.000000	140.000000	66.000000	-37.000000	-117.000000
0.120000	48.770000	40.140000	897.000000	0.000000	137.000000	66.000000	-54.000000	-91.000000
0.130000	48.170000	39.540000	944.000000	0.000000	133.000000	66.000000	-60.000000	-60.000000
0.140000	47.520000	39.220000	941.000000	0.000000	130.000000	67.000000	-65.000000	-32.000000
0.150000	46.920000	39.080000	927.000000	0.000000	128.000000	68.000000	-60.000000	-14.000000
0.160000	46.370000	39.200000	878.000000	0.000000	124.000000	67.000000	-55.000000	12.000000
0.170000	46.020000	39.600000	763.000000	0.000000	124.000000	67.000000	-35.000000	40.000000
0.180000	45.790000	40.180000	517.000000	0.000000	124.000000	67.000000	-23.000000	58.000000
0.190000	45.650000	41.050000	149.000000	0.000000	124.000000	67.000000	-14.000000	87.000000
0.200000	45.650000	41.050000	0.000000	1.000000	124.000000	67.000000	0.000000	0.000000
0.210000	45.890000	42.510000	0.000000	0.000000	124.000000	67.000000	24.000000	146.000000
0.220000	46.040000	42.970000	0.000000	0.000000	124.000000	67.000000	15.000000	46.000000
0.230000	46.250000	43.260000	0.000000	0.000000	124.000000	67.000000	21.000000	29.000000
0.240000	46.600000	43.510000	0.000000	0.000000	126.000000	67.000000	35.000000	25.000000
0.250000	47.030000	43.670000	0.000000	0.000000	126.000000	67.000000	43.000000	16.000000
0.260000	47.530000	43.810000	0.000000	0.000000	128.000000	66.000000	50.000000	14.000000
0.270000	48.010000	43.960000	0.000000	0.000000	128.000000	66.000000	48.000000	15.000000
0.280000	48.480000	44.130000	0.000000	0.000000	128.000000	65.000000	47.000000	17.000000
0.290000	48.890000	44.280000	0.000000	0.000000	127.000000	64.000000	41.000000	15.000000
0.300000	49.240000	44.410000	0.000000	0.000000	127.000000	63.000000	35.000000	13.000000
0.310000	49.540000	44.480000	0.000000	0.000000	129.000000	63.000000	30.000000	7.000000
0.320000	49.660000	44.480000	0.000000	0.000000	127.000000	62.000000	12.000000	0.000000
0.330000	49.780000	44.480000	0.000000	0.000000	128.000000	61.000000	12.000000	0.000000
0.340000	49.890000	44.480000	0.000000	0.000000	126.000000	60.000000	11.000000	0.000000
0.350000	50.030000	44.390000	0.000000	0.000000	126.000000	60.000000	14.000000	-9.000000
0.360000	50.110000	44.300000	0.000000	0.000000	128.000000	59.000000	8.000000	-9.000000
0.370000	50.110000	44.190000	0.000000	0.000000	128.000000	59.000000	0.000000	-11.000000
0.380000	50.250000	44.040000	0.000000	0.000000	128.000000	61.000000	14.000000	-15.000000
0.390000	50.350000	43.880000	0.000000	0.000000	128.000000	61.000000	10.000000	-16.000000
0.400000	50.440000	43.700000	0.000000	0.000000	128.000000	61.000000	9.000000	-18.000000
0.410000	50.510000	43.500000	0.000000	0.000000	127.000000	62.000000	7.000000	-20.000000
0.420000	50.560000	43.310000	0.000000	0.000000	127.000000	62.000000	5.000000	-19.000000
0.430000	50.560000	43.150000	0.000000	0.000000	127.000000	63.000000	0.000000	-16.000000
0.440000	50.620000	43.000000	0.000000	0.000000	127.000000	63.000000	6.000000	-15.000000
0.450000	50.620000	42.890000	0.000000	0.000000	125.000000	64.000000	0.000000	-11.000000
0.460000	50.620000	42.780000	0.000000	0.000000	127.000000	64.000000	0.000000	-11.000000
0.470000	50.620000	42.660000	0.000000	0.000000	127.000000	64.000000	0.000000	-12.000000
0.480000	50.560000	42.540000	0.000000	0.000000	125.000000	65.000000	-6.000000	-12.000000
0.490000	50.510000	42.430000	0.000000	0.000000	125.000000	65.000000	-5.000000	-11.000000
0.500000	50.510000	42.340000	0.000000	0.000000	125.000000	65.000000	0.000000	-9.000000
0.510000	50.430000	42.250000	0.000000	0.000000	126.000000	66.000000	-8.000000	-9.000000
0.520000	50.430000	42.250000	0.000000	0.000000	126.000000	66.000000	0.000000	0.000000
0.530000	50.430000	42.250000	0.000000	0.000000	126.000000	66.000000	0.000000	0.000000
0.540000	50.380000	42.250000	0.000000	0.000000	124.000000	66.000000	-5.000000	0.000000
0.550000	50.380000	42.250000	0.000000	0.000000	124.000000	66.000000	0.000000	0.000000
0.560000	50.380000	42.250000	0.000000	0.000000	124.000000	66.000000	0.000000	0.000000
0.570000	50.380000	42.160000	0.000000	0.000000	124.000000	66.000000	0.000000	-9.000000
0.580000	50.320000	42.160000	0.000000	0.000000	124.000000	66.000000	-6.000000	0.000000
0.590000	50.270000	42.060000	0.000000	0.000000	124.000000	66.000000	-5.000000	-10.000000
0.600000	50.270000	42.060000	0.000000	0.000000	124.000000	66.000000	0.000000	0.000000
0.610000	50.220000	42.060000	0.000000	0.000000	124.000000	66.000000	-5.000000	0.000000
0.620000	50.220000	42.000000	0.000000	0.000000	124.000000	66.000000	0.000000	-6.000000
0.630000	50.220000	42.000000	0.000000	0.000000	124.000000	66.000000	0.000000	0.000000
0.640000	50.220000	41.950000	0.000000	0.000000	124.000000	66.000000	0.000000	-5.000000
0.650000	50.300000	41.950000	0.000000	0.000000	124.000000	66.000000	8.000000	0.000000
0.660000	50.300000	41.950000	0.000000	0.000000	124.000000	66.000000	0.000000	0.000000
0.670000	50.300000	41.950000	0.000000	0.000000	124.000000	66.000000	0.000000	0.000000
0.680000	50.300000	41.890000	0.000000	0.000000	124.000000	66.000000	0.000000	-6.000000
0.690000	50.300000	41.890000	0.000000	0.000000	124.000000	66.000000	0.000000	0.000000
0.700000	50.220000	41.890000	0.000000	0.000000	124.000000	66.000000	-8.000000	0.000000
0.710000	50.170000	41.840000	0.000000	0.000000	124.000000	66.000000	-5.000000	-5.000000
0.720000	50.170000	41.840000	0.000000	0.000000	124.000000	66.000000	0.000000	0.000000
0.730000	50.170000	41.840000	0.000000	0.000000	124.000000	66.000000	0.000000	0.000000
0.740000	50.170000	41.840000	0.000000	0.000000	124.000000	66.000000	0.000000	0.000000
0.750000	50.170000	41.840000	0.000000	0.000000	124.000000	66.000000	0.000000	0.000000
0.760000	50.170000	41.840000	0.000000	0.000000	124.000000	66.000000	0.000000	0.000000
0.770000	50.170000	41.760000	0.000000	0.000000	124.000000	66.000000	0.000000	-8.000000
0.780000	50.170000	41.710000	0.000000	0.000000	124.000000	66.000000	0.000000	-5.000000
0.790000	50.110000	41.710000	0.000000	0.000000	124.000000	66.000000	-6.000000	0.000000
0.800000	50.110000	41.650000	0.000000	0.000000	124.000000	66.000000	0.000000	-6.000000
0.810000	50.060000	41.650000	0.000000	0.000000	124.000000	66.000000	-5.000000	0.000000
0.820000	50.060000	41.590000	0.000000	0.000000	124.000000	66.000000	0.000000	-6.000000
0.830000	50.060000	41.520000	0.000000	0.000000	124.000000	66.000000	0.000000	-7.000000
0.840000	50.060000	41.450000	0.000000	0.000000	124.000000	66.000000	0.000000	-7.000000
0.850000	50.000000	41.400000	0.000000	0.000000	124.000000	66.000000	-6.000000	-5.000000
0.860000	50.000000	41.310000	0.000000	0.000000	124.000000	66.000000	0.000000	-9.000000
0.870000	50.000000	41.210000	0.000000	0.000000	122.000000	67.000000	0.000000	-10.000000
0.880000	49.920000	41.100000	0.000000	0.000000	122.000000	67.000000	-8.000000	-11.000000
0.890000	49.920000	40.980000	0.000000	0.000000	122.000000	67.000000	0.000000	-12.000000
0.900000	49.920000	40.980000	160.000000	1.000000	124.000000	67.000000	0.000000	0.000000
0.910000	49.790000	40.730000	200.000000	0.000000	124.000000	67.000000	-13.000000	-25.000000
0.920000	49.710000	40.670000	233.000000	0.000000	122.000000	68.000000	-8.000000	-6.000000
0.930000	49.710000	40.670000	299.000000	0.000000	123.000000	69.000000	0.000000	0.000000
0.940000	49.710000	40.670000	337.000000	0.000000	123.000000	69.000000	0.000000	0.000000
0.950000	49.820000	40.670000	353.000000	0.000000	123.000000	69.000000	11.000000	0.000000
0.960000	49.930000	40.720000	396.000000	0.000000	123.000000	69.000000	11.000000	5.000000
0.970000	50.070000	40.840000	422.000000	0.000000	123.000000	69.000000	14.000000	12.000000
0.980000	50.250000	41.020000	440.000000	0.000000	123.000000	69.000000	18.000000	18.000000
0.990000	50.500000	41.380000	468.000000	0.000000	123.000000	69.000000	25.000000	36.000000
1.000000	50.800000	41.830000	475.000000	0.000000	123.000000	69.000000	30.000000	45.000000
1.010000	51.130000	42.330000	478.000000	0.000000	123.000000	69.000000	33.000000	50.000000
1.020000	51.490000	43.020000	470.000000	0.000000	123.000000	69.000000	36.000000	69.000000
1.030000	51.800000	43.710000	464.000000	0.000000	123.000000	69.000000	31.000000	69.000000
1.040000	52.060000	44.200000	474.000000	0.000000	125.000000	68.000000	26.000000	49.000000
1.050000	52.150000	44.560000	472.000000	0.000000	125.000000	68.000000	9.000000	36.000000
1.060000	52.150000	44.680000	481.000000	0.000000	125.000000	68.000000	0.000000	12.000000
1.070000	52.150000	44.600000	483.000000	0.000000	125.000000	68.000000	0.000000	-8.000000
1.080000	52.050000	44.400000	499.000000	0.000000	128.000000	68.000000	-10.000000	-20.000000
1.090000	51.860000	43.790000	515.000000	0.000000	129.000000	68.000000	-19.000000	-61.000000
1.100000	51.610000	43.010000	542.000000	0.000000	129.000000	68.000000	-25.000000	-78.000000
1.110000	51.450000	42.120000	565.000000	0.000000	129.000000	68.000000	-16.000000	-89.000000
1.120000	51.450000	41.500000	570.000000	0.000000	129.000000	68.000000	0.000000	-62.000000
1.130000	51.510000	41.020000	588.000000	0.000000	128.000000	68.000000	6.000000	-48.000000
1.140000	51.680000	40.630000	595.000000	0.000000	125.000000	68.000000	17.000000	-39.000000
1.150000	51.810000	40.410000	597.000000	0.000000	125.000000	68.000000	13.000000	-22.000000
1.160000	51.920000	40.310000	603.000000	0.000000	125.000000	68.000000	11.000000	-10.000000
1.170000	52.120000	40.310000	611.000000	0.000000	123.000000	69.000000	20.000000	0.000000
1.180000	52.320000	40.390000	613.000000	0.000000	122.000000	68.000000	20.000000	8.000000
1.190000	52.560000	40.720000	606.000000	0.000000	122.000000	68.000000	24.000000	33.000000
1.200000	52.890000	41.190000	606.000000	0.000000	123.000000	69.000000	33.000000	47.000000
1.210000	53.280000	41.650000	592.000000	0.000000	123.000000	69.000000	39.000000	46.000000
1.220000	53.480000	42.100000	594.000000	0.000000	123.000000	69.000000	20.000000	45.000000
1.230000	53.680000	42.520000	584.000000	0.000000	125.000000	70.000000	20.000000	42.000000
1.240000	53.870000	42.930000	572.000000	0.000000	125.000000	70.000000	19.000000	41.000000
1.250000	54.060000	43.320000	567.000000	0.000000	127.000000	69.000000	19.000000	39.000000
1.260000	54.210000	43.680000	580.000000	0.000000	129.000000	70.000000	15.000000	36.000000
1.270000	54.210000	43.840000	583.000000	0.000000	129.000000	70.000000	0.000000	16.000000
1.280000	54.130000	43.840000	586.000000	0.000000	131.000000	69.000000	-8.000000	0.000000
1.290000	54.060000	43.910000	589.000000	0.000000	131.000000	69.000000	-7.000000	7.000000
1.300000	54.060000	43.910000	586.000000	0.000000	131.000000	69.000000	0.000000	0.000000
1.310000	54.060000	43.830000	591.000000	0.000000	131.000000	69.000000	0.000000	-8.000000
1.320000	54.060000	43.670000	591.000000	0.000000	131.000000	69.000000	0.000000	-16.000000
1.330000	54.060000	43.370000	586.000000	0.000000	131.000000	69.000000	0.000000	-30.000000
1.340000	54.060000	42.980000	599.000000	0.000000	131.000000	69.000000	0.000000	-39.000000
1.350000	54.060000	42.590000	613.000000	0.000000	131.000000	69.000000	0.000000	-39.000000
1.360000	54.060000	42.270000	611.000000	0.000000	131.000000	69.000000	0.000000	-32.000000
1.370000	54.240000	42.000000	619.000000	0.000000	131.000000	69.000000	18.000000	-27.000000
1.380000	54.370000	41.830000	613.000000	0.000000	131.000000	69.000000	13.000000	-17.000000
1.390000	54.520000	41.710000	611.000000	0.000000	131.000000	69.000000	15.000000	-12.000000
1.400000	54.690000	41.620000	602.000000	0.000000	131.000000	69.000000	17.000000	-9.000000
1.410000	54.870000	41.620000	538.000000	0.000000	131.000000	69.000000	18.000000	0.000000
1.420000	55.080000	41.620000	405.000000	0.000000	131.000000	69.000000	21.000000	0.000000
1.430000	55.280000	41.770000	119.000000	0.000000	131.000000	69.000000	20.000000	15.000000
1.440000	55.280000	41.770000	0.000000	1.000000	131.000000	69.000000	0.000000	0.000000
1.450000	55.680000	42.350000	0.000000	0.000000	131.000000	69.000000	40.000000	58.000000
1.460000	55.680000	42.680000	0.000000	0.000000	131.000000	69.000000	0.000000	33.000000
1.470000	55.770000	43.030000	0.000000	0.000000	131.000000	69.000000	9.000000	35.000000
1.480000	55.850000	43.390000	0.000000	0.000000	133.000000	70.000000	8.000000	36.000000
1.490000	55.960000	43.720000	0.000000	0.000000	133.000000	70.000000	11.000000	33.000000
1.500000	56.130000	44.050000	0.000000	0.000000	133.000000	70.000000	17.000000	33.000000
1.510000	56.290000	44.390000	0.000000	0.000000	137.000000	70.000000	16.000000	34.000000
1.520000	56.470000	44.750000	0.000000	0.000000	137.000000	70.000000	18.000000	36.000000
1.530000	56.610000	45.070000	0.000000	0.000000	137.000000	70.000000	14.000000	32.000000
1.540000	56.720000	45.370000	0.000000	0.000000	141.000000	70.000000	11.000000	30.000000
1.550000	56.820000	45.660000	0.000000	0.000000	141.000000	70.000000	10.000000	29.000000
1.560000	56.910000	46.040000	0.000000	0.000000	141.000000	70.000000	9.000000	38.000000
1.570000	56.980000	46.470000	0.000000	0.000000	143.000000	69.000000	7.000000	43.000000
1.580000	57.060000	46.980000	0.000000	0.000000	145.000000	70.000000	8.000000	51.000000
1.590000	57.160000	47.460000	0.000000	0.000000	145.000000	70.000000	10.000000	48.000000
1.600000	57.280000	47.870000	0.000000	0.000000	145.000000	70.000000	12.000000	41.000000
1.610000	57.390000	48.140000	0.000000	0.000000	147.000000	69.000000	11.000000	27.000000
1.620000	57.390000	48.320000	0.000000	0.000000	147.000000	69.000000	0.000000	18.000000
1.630000	57.440000	48.480000	0.000000	0.000000	147.000000	69.000000	5.000000	16.000000
1.640000	57.440000	48.630000	0.000000	0.000000	147.000000	69.000000	0.000000	15.000000
1.650000	57.380000	48.730000	0.000000	0.000000	147.000000	69.000000	-6.000000	10.000000
1.660000	57.380000	48.730000	0.000000	0.000000	147.000000	69.000000	0.000000	0.000000
1.670000	57.320000	48.780000	0.000000	0.000000	148.000000	68.000000	-6.000000	5.000000
1.680000	57.320000	48.780000	0.000000	0.000000	148.000000	68.000000	0.000000	0.000000
1.690000	57.320000	48.780000	104.000000	1.000000	146.000000	67.000000	0.000000	0.000000
1.700000	57.320000	48.780000	171.000000	0.000000	146.000000	67.000000	0.000000	0.000000
1.710000	57.320000	48.780000	282.000000	0.000000	146.000000	67.000000	0.000000	0.000000
1.720000	57.320000	48.780000	369.000000	0.000000	146.000000	67.000000	0.000000	0.000000
1.730000	57.570000	49.040000	438.000000	0.000000	146.000000	67.000000	25.000000	26.000000
1.740000	57.730000	49.100000	496.000000	0.000000	146.000000	67.000000	16.000000	6.000000
1.750000	57.960000	49.180000	543.000000	0.000000	148.000000	67.000000	23.000000	8.000000
1.760000	58.180000	49.260000	578.000000	0.000000	148.000000	67.000000	22.000000	8.000000
1.770000	58.390000	49.430000	588.000000	0.000000	148.000000	67.000000	21.000000	17.000000
1.780000	58.650000	49.700000	617.000000	0.000000	146.000000	66.000000	26.000000	27.000000
1.790000	58.900000	50.040000	639.000000	0.000000	146.000000	66.000000	25.000000	34.000000
1.800000	59.130000	50.420000	641.000000	0.000000	146.000000	66.000000	23.000000	38.000000
1.810000	59.320000	50.960000	646.000000	0.000000	145.000000	65.000000	19.000000	54.000000
1.820000	59.490000	51.600000	641.000000	0.000000	145.000000	65.000000	17.000000	64.000000
1.830000	59.590000	52.460000	622.000000	0.000000	146.000000	64.000000	10.000000	86.000000
1.840000	59.590000	53.320000	631.000000	0.000000	146.000000	64.000000	0.000000	86.000000
1.850000	59.450000	54.190000	630.000000	0.000000	148.000000	63.000000	-14.000000	87.000000
1.860000	59.370000	54.620000	627.000000	0.000000	150.000000	64.000000	-8.000000	43.000000
1.870000	59.190000	54.760000	631.000000	0.000000	151.000000	63.000000	-18.000000	14.000000
1.880000	58.940000	54.710000	633.000000	0.000000	151.000000	63.000000	-25.000000	-5.000000
1.890000	58.590000	54.210000	647.000000	0.000000	151.000000	63.000000	-35.000000	-50.000000
1.900000	58.120000	53.040000	665.000000	0.000000	154.000000	63.000000	-47.000000	-117.000000
1.910000	57.560000	51.430000	693.000000	0.000000	153.000000	63.000000	-56.000000	-161.000000
1.920000	56.860000	49.400000	714.000000	0.000000	153.000000	63.000000	-70.000000	-203.000000
1.930000	56.520000	47.650000	728.000000	0.000000	151.000000	64.000000	-34.000000	-175.000000
1.940000	56.430000	46.100000	755.000000	0.000000	148.000000	65.000000	-9.000000	-155.000000
1.950000	56.370000	45.030000	776.000000	0.000000	147.000000	65.000000	-6.000000	-107.000000
1.960000	56.370000	44.130000	785.000000	0.000000	146.000000	66.000000	0.000000	-90.000000
1.970000	56.300000	43.340000	803.000000	0.000000	144.000000	67.000000	-7.000000	-79.000000
1.980000	56.300000	42.740000	814.000000	0.000000	141.000000	68.000000	0.000000	-60.000000
1.990000	56.400000	42.360000	814.000000	0.000000	139.000000	69.000000	10.000000	-38.000000
2.000000	56.610000	42.130000	803.000000	0.000000	137.000000	70.000000	21.000000	-23.000000
2.010000	56.820000	42.030000	796.000000	0.000000	135.000000	71.000000	21.000000	-10.000000
2.020000	57.110000	42.120000	785.000000	0.000000	133.000000	70.000000	29.000000	9.000000
2.030000	57.540000	42.340000	733.000000	0.000000	133.000000	70.000000	43.000000	22.000000
2.040000	58.000000	42.730000	645.000000	0.000000	133.000000	70.000000	46.000000	39.000000
2.050000	58.450000	43.180000	463.000000	0.000000	133.000000	70.000000	45.000000	45.000000
2.060000	58.780000	43.660000	122.000000	0.000000	133.000000	70.000000	33.000000	48.000000
2.070000	58.780000	43.660000	0.000000	1.000000	133.000000	70.000000	0.000000	0.000000
2.080000	59.140000	44.520000	0.000000	0.000000	135.000000	71.000000	36.000000	86.000000
2.090000	59.090000	44.830000	0.000000	0.000000	135.000000	71.000000	-5.000000	31.000000
2.100000	58.930000	45.060000	0.000000	0.000000	135.000000	71.000000	-16.000000	23.000000
2.110000	58.930000	45.280000	0.000000	0.000000	135.000000	71.000000	0.000000	22.000000
2.120000	58.930000	45.460000	0.000000	0.000000	137.000000	70.000000	0.000000	18.000000
2.130000	59.060000	45.580000	0.000000	0.000000	137.000000	70.000000	13.000000	12.000000
2.140000	59.160000	45.670000	0.000000	0.000000	139.000000	69.000000	10.000000	9.000000
2.150000	59.250000	45.750000	0.000000	0.000000	139.000000	69.000000	9.000000	8.000000
2.160000	59.350000	45.830000	0.000000	0.000000	137.000000	69.000000	10.000000	8.000000
2.170000	59.410000	45.890000	0.000000	0.000000	139.000000	68.000000	6.000000	6.000000
2.180000	59.410000	45.960000	0.000000	0.000000	139.000000	68.000000	0.000000	7.000000
2.190000	59.460000	46.040000	0.000000	0.000000	139.000000	68.000000	5.000000	8.000000
2.200000	59.460000	46.100000	0.000000	0.000000	140.000000	67.000000	0.000000	6.000000
2.210000	59.460000	46.160000	0.000000	0.000000	140.000000	67.000000	0.000000	6.000000
2.220000	59.460000	46.220000	0.000000	0.000000	141.000000	68.000000	0.000000	6.000000
2.230000	59.460000	46.280000	0.000000	0.000000	141.000000	68.000000	0.000000	6.000000
