t	x	y	pressure	penup	azimuth	inclination	v_x	v_y
0.000000	13.610000	12.990000	63.000000	1.000000	133.000000	63.000000	0.000000	0.000000
0.010000	13.470000	12.270000	106.000000	0.000000	133.000000	63.000000	-14.000000	-72.000000
0.020000	13.310000	11.920000	141.000000	0.000000	132.000000	64.000000	-16.000000	-35.000000
0.030000	13.200000	11.580000	193.000000	0.000000	130.000000	65.000000	-11.000000	-34.000000
0.040000	13.080000	11.430000	262.000000	0.000000	130.000000	65.000000	-12.000000	-15.000000
0.050000	12.950000	11.430000	317.000000	0.000000	128.000000	65.000000	-13.000000	0.000000
0.060000	12.820000	11.500000	342.000000	0.000000	128.000000	65.000000	-13.000000	7.000000
0.070000	12.690000	11.850000	339.000000	0.000000	128.000000	65.000000	-13.000000	35.000000
0.080000	12.580000	12.630000	359.000000	0.000000	127.000000	64.000000	-11.000000	78.000000
0.090000	12.580000	13.710000	379.000000	0.000000	127.000000	64.000000	0.000000	108.000000
0.100000	12.580000	14.890000	404.000000	0.000000	127.000000	63.000000	0.000000	118.000000
0.110000	12.780000	16.050000	473.000000	0.000000	126.000000	62.000000	20.000000	116.000000
0.120000	13.060000	16.910000	522.000000	0.000000	126.000000	62.000000	28.000000	86.000000
0.130000	13.390000	17.590000	538.000000	0.000000	124.000000	62.000000	33.000000	68.000000
0.140000	13.740000	18.070000	540.000000	0.000000	124.000000	62.000000	35.000000	48.000000
0.150000	14.120000	18.170000	570.000000	0.000000	124.000000	62.000000	38.000000	10.000000
0.160000	14.550000	18.020000	594.000000	0.000000	123.000000	62.000000	43.000000	-15.000000
0.170000	15.140000	17.570000	594.000000	0.000000	121.000000	63.000000	59.000000	-45.000000
0.180000	15.840000	16.480000	619.000000	0.000000	121.000000	63.000000	70.000000	-109.000000
0.190000	16.720000	14.970000	620.000000	0.000000	118.000000	62.000000	88.000000	-151.000000
0.200000	17.440000	13.280000	630.000000	0.000000	118.000000	62.000000	72.000000	-169.000000
0.210000	18.050000	11.560000	641.000000	0.000000	118.000000	62.000000	61.000000	-172.000000
0.220000	18.460000	9.820000	639.000000	0.000000	117.000000	61.000000	41.000000	-174.000000
0.230000	18.600000	8.520000	644.000000	0.000000	117.000000	61.000000	14.000000	-130.000000
0.240000	18.600000	7.400000	641.000000	0.000000	117.000000	61.000000	0.000000	-112.000000
0.250000	18.490000	6.390000	613.000000	0.000000	118.000000	62.000000	-11.000000	-101.000000
0.260000	18.260000	5.450000	613.000000	0.000000	118.000000	62.000000	-23.000000	-94.000000
0.270000	17.920000	4.900000	597.000000	0.000000	117.000000	63.000000	-34.000000	-55.000000
0.280000	17.400000	4.600000	548.000000	0.000000	117.000000	63.000000	-52.000000	-30.000000
0.290000	16.700000	4.550000	561.000000	0.000000	119.000000	64.000000	-70.000000	-5.000000
0.300000	15.890000	4.770000	561.000000	0.000000	120.000000	65.000000	-81.000000	22.000000
0.310000	15.290000	5.180000	544.000000	0.000000	121.000000	66.000000	-60.000000	41.000000
0.320000	14.730000	5.760000	516.000000	0.000000	124.000000	67.000000	-56.000000	58.000000
0.330000	14.320000	6.470000	526.000000	0.000000	125.000000	68.000000	-41.000000	71.000000
0.340000	14.000000	7.280000	537.000000	0.000000	128.000000	68.000000	-32.000000	81.000000
0.350000	13.870000	8.060000	537.000000	0.000000	131.000000	68.000000	-13.000000	78.000000
0.360000	13.920000	8.810000	546.000000	0.000000	135.000000	68.000000	5.000000	75.000000
0.370000	14.100000	9.500000	559.000000	0.000000	137.000000	67.000000	18.000000	69.000000
0.380000	14.500000	10.160000	561.000000	0.000000	137.000000	67.000000	40.000000	66.000000
0.390000	14.940000	10.510000	562.000000	0.000000	137.000000	67.000000	44.000000	35.000000
0.400000	15.650000	10.660000	565.000000	0.000000	135.000000	67.000000	71.000000	15.000000
0.410000	16.510000	10.400000	565.000000	0.000000	133.000000	66.000000	86.000000	-26.000000
0.420000	17.440000	9.880000	563.000000	0.000000	130.000000	66.000000	93.000000	-52.000000
0.430000	18.150000	9.190000	563.000000	0.000000	126.000000	66.000000	71.000000	-69.000000
0.440000	18.700000	8.600000	567.000000	0.000000	125.000000	65.000000	55.000000	-59.000000
0.450000	19.120000	8.230000	560.000000	0.000000	122.000000	65.000000	42.000000	-37.000000
0.460000	19.440000	8.010000	556.000000	0.000000	120.000000	64.000000	32.000000	-22.000000
0.470000	19.690000	7.960000	536.000000	0.000000	122.000000	63.000000	25.000000	-5.000000
0.480000	19.790000	8.100000	536.000000	0.000000	121.000000	63.000000	10.000000	14.000000
0.490000	19.880000	8.370000	539.000000	0.000000	121.000000	63.000000	9.000000	27.000000
0.500000	19.950000	8.660000	539.000000	0.000000	121.000000	63.000000	7.000000	29.000000
0.510000	19.950000	8.660000	539.000000	0.000000	121.000000	63.000000	0.000000	0.000000
0.520000	19.950000	8.660000	546.000000	0.000000	119.000000	63.000000	0.000000	0.000000
0.530000	19.950000	8.660000	556.000000	0.000000	119.000000	63.000000	0.000000	0.000000
0.540000	20.240000	8.560000	567.000000	0.000000	119.000000	63.000000	29.000000	-10.000000
0.550000	20.340000	8.310000	567.000000	0.000000	119.000000	63.000000	10.000000	-25.000000
0.560000	20.470000	8.190000	589.000000	0.000000	119.000000	63.000000	13.000000	-12.000000
0.570000	20.660000	8.190000	613.000000	0.000000	119.000000	63.000000	19.000000	0.000000
0.580000	21.150000	8.330000	622.000000	0.000000	119.000000	63.000000	49.000000	14.000000
0.590000	21.830000	8.690000	639.000000	0.000000	119.000000	63.000000	68.000000	36.000000
0.600000	22.660000	9.190000	643.000000	0.000000	119.000000	63.000000	83.000000	50.000000
0.610000	23.810000	9.630000	668.000000	0.000000	116.000000	63.000000	115.000000	44.000000
0.620000	25.170000	10.090000	667.000000	0.000000	115.000000	63.000000	136.000000	46.000000
0.630000	26.760000	10.710000	687.000000	0.000000	113.000000	63.000000	159.000000	62.000000
0.640000	28.370000	11.440000	694.000000	0.000000	111.000000	64.000000	161.000000	73.000000
0.650000	30.020000	12.330000	697.000000	0.000000	109.000000	64.000000	165.000000	89.000000
0.660000	31.830000	13.180000	702.000000	0.000000	104.000000	63.000000	181.000000	85.000000
0.670000	33.740000	14.010000	691.000000	0.000000	103.000000	64.000000	191.000000	83.000000
0.680000	35.440000	14.770000	673.000000	0.000000	101.000000	65.000000	170.000000	76.000000
0.690000	36.950000	15.370000	641.000000	0.000000	100.000000	64.000000	151.000000	60.000000
0.700000	38.320000	15.860000	619.000000	0.000000	100.000000	64.000000	137.000000	49.000000
0.710000	39.120000	16.180000	599.000000	0.000000	100.000000	63.000000	80.000000	32.000000
0.720000	39.560000	16.330000	560.000000	0.000000	100.000000	63.000000	44.000000	15.000000
0.730000	39.770000	16.380000	510.000000	0.000000	99.000000	62.000000	21.000000	5.000000
0.740000	39.770000	16.320000	418.000000	0.000000	99.000000	62.000000	0.000000	-6.000000
0.750000	39.660000	16.260000	269.000000	0.000000	101.000000	61.000000	-11.000000	-6.000000
0.760000	39.660000	16.260000	0.000000	1.000000	100.000000	60.000000	0.000000	0.000000
0.770000	39.370000	16.210000	0.000000	0.000000	100.000000	60.000000	-29.000000	-5.000000
0.780000	39.190000	16.210000	0.000000	0.000000	102.000000	59.000000	-18.000000	0.000000
0.790000	38.990000	16.150000	0.000000	0.000000	102.000000	59.000000	-20.000000	-6.000000
0.800000	38.800000	16.150000	0.000000	0.000000	102.000000	59.000000	-19.000000	0.000000
0.810000	38.660000	16.150000	0.000000	0.000000	104.000000	59.000000	-14.000000	0.000000
0.820000	38.610000	16.150000	0.000000	0.000000	104.000000	59.000000	-5.000000	0.000000
0.830000	38.610000	16.220000	0.000000	0.000000	104.000000	59.000000	0.000000	7.000000
0.840000	38.710000	16.410000	0.000000	0.000000	105.000000	58.000000	10.000000	19.000000
0.850000	38.860000	16.660000	0.000000	0.000000	103.000000	57.000000	15.000000	25.000000
0.860000	39.010000	16.860000	0.000000	0.000000	102.000000	56.000000	15.000000	20.000000
0.870000	39.140000	17.100000	0.000000	0.000000	100.000000	56.000000	13.000000	24.000000
0.880000	39.300000	17.440000	0.000000	0.000000	98.000000	54.000000	16.000000	34.000000
0.890000	39.480000	17.840000	0.000000	0.000000	95.000000	53.000000	18.000000	40.000000
0.900000	39.220000	18.250000	0.000000	0.000000	94.000000	52.000000	-26.000000	41.000000
0.910000	39.040000	18.720000	0.000000	0.000000	92.000000	51.000000	-18.000000	47.000000
0.920000	38.910000	19.220000	0.000000	0.000000	91.000000	50.000000	-13.000000	50.000000
0.930000	38.530000	19.870000	0.000000	0.000000	90.000000	49.000000	-38.000000	65.000000
0.940000	37.980000	20.590000	0.000000	0.000000	90.000000	48.000000	-55.000000	72.000000
0.950000	37.320000	21.350000	0.000000	0.000000	91.000000	46.000000	-66.000000	76.000000
0.960000	36.420000	22.330000	0.000000	0.000000	93.000000	44.000000	-90.000000	98.000000
0.970000	35.330000	23.340000	0.000000	0.000000	95.000000	43.000000	-109.000000	101.000000
0.980000	34.120000	24.380000	0.000000	0.000000	97.000000	42.000000	-121.000000	104.000000
0.990000	33.050000	25.240000	0.000000	0.000000	99.000000	42.000000	-107.000000	86.000000
1.000000	31.800000	25.790000	0.000000	0.000000	103.000000	43.000000	-125.000000	55.000000
1.010000	30.440000	26.130000	0.000000	0.000000	107.000000	43.000000	-136.000000	34.000000
1.020000	28.960000	26.720000	0.000000	0.000000	111.000000	42.000000	-148.000000	59.000000
1.030000	27.450000	26.870000	0.000000	0.000000	117.000000	42.000000	-151.000000	15.000000
1.040000	25.920000	26.740000	0.000000	0.000000	122.000000	41.000000	-153.000000	-13.000000
1.050000	24.730000	26.270000	0.000000	0.000000	126.000000	41.000000	-119.000000	-47.000000
1.060000	23.750000	25.520000	0.000000	0.000000	130.000000	41.000000	-98.000000	-75.000000
1.070000	22.920000	24.590000	0.000000	0.000000	132.000000	42.000000	-83.000000	-93.000000
1.080000	22.070000	23.310000	0.000000	0.000000	132.000000	42.000000	-85.000000	-128.000000
1.090000	21.070000	21.910000	0.000000	0.000000	133.000000	42.000000	-100.000000	-140.000000
1.100000	19.980000	20.440000	0.000000	0.000000	133.000000	44.000000	-109.000000	-147.000000
1.110000	19.170000	18.910000	0.000000	0.000000	132.000000	47.000000	-81.000000	-153.000000
1.120000	18.540000	17.320000	0.000000	0.000000	129.000000	49.000000	-63.000000	-159.000000
1.130000	18.030000	15.820000	0.000000	0.000000	127.000000	51.000000	-51.000000	-150.000000
1.140000	17.690000	14.400000	0.000000	0.000000	123.000000	51.000000	-34.000000	-142.000000
1.150000	17.690000	13.220000	0.000000	0.000000	122.000000	51.000000	0.000000	-118.000000
1.160000	17.990000	12.480000	0.000000	0.000000	122.000000	51.000000	30.000000	-74.000000
1.170000	18.340000	12.040000	0.000000	0.000000	122.000000	53.000000	35.000000	-44.000000
1.180000	18.480000	11.620000	0.000000	0.000000	123.000000	53.000000	14.000000	-42.000000
1.190000	18.480000	11.090000	0.000000	0.000000	124.000000	54.000000	0.000000	-53.000000
1.200000	18.580000	10.410000	0.000000	0.000000	126.000000	54.000000	10.000000	-68.000000
1.210000	18.710000	9.690000	0.000000	0.000000	127.000000	55.000000	13.000000	-72.000000
1.220000	19.090000	8.950000	0.000000	0.000000	129.000000	55.000000	38.000000	-74.000000
1.230000	19.610000	8.130000	0.000000	0.000000	129.000000	56.000000	52.000000	-82.000000
1.240000	20.130000	7.450000	0.000000	0.000000	127.000000	56.000000	52.000000	-68.000000
1.250000	20.760000	6.860000	0.000000	0.000000	127.000000	56.000000	63.000000	-59.000000
1.260000	20.940000	6.390000	0.000000	0.000000	128.000000	57.000000	18.000000	-47.000000
1.270000	20.790000	6.160000	0.000000	0.000000	127.000000	57.000000	-15.000000	-23.000000
1.280000	20.790000	6.080000	0.000000	0.000000	128.000000	58.000000	0.000000	-8.000000
1.290000	20.690000	6.280000	0.000000	0.000000	129.000000	59.000000	-10.000000	20.000000
1.300000	20.570000	6.540000	0.000000	0.000000	129.000000	59.000000	-12.000000	26.000000
1.310000	20.480000	6.840000	0.000000	0.000000	129.000000	59.000000	-9.000000	30.000000
1.320000	20.390000	7.060000	0.000000	0.000000	129.000000	59.000000	-9.000000	22.000000
1.330000	20.320000	7.240000	0.000000	0.000000	129.000000	59.000000	-7.000000	18.000000
1.340000	20.130000	7.620000	0.000000	0.000000	129.000000	59.000000	-19.000000	38.000000
1.350000	19.850000	8.140000	0.000000	0.000000	129.000000	59.000000	-28.000000	52.000000
1.360000	19.510000	8.820000	0.000000	0.000000	128.000000	59.000000	-34.000000	68.000000
1.370000	19.170000	9.520000	0.000000	0.000000	128.000000	59.000000	-34.000000	70.000000
1.380000	18.830000	10.230000	0.000000	0.000000	128.000000	59.000000	-34.000000	71.000000
1.390000	18.680000	10.710000	0.000000	0.000000	127.000000	59.000000	-15.000000	48.000000
1.400000	18.630000	10.950000	0.000000	0.000000	127.000000	59.000000	-5.000000	24.000000
1.410000	18.630000	11.030000	0.000000	0.000000	125.000000	59.000000	0.000000	8.000000
1.420000	18.630000	10.750000	0.000000	0.000000	125.000000	59.000000	0.000000	-28.000000
1.430000	18.570000	10.330000	0.000000	0.000000	125.000000	59.000000	-6.000000	-42.000000
1.440000	18.500000	9.810000	0.000000	0.000000	125.000000	59.000000	-7.000000	-52.000000
1.450000	18.440000	9.310000	0.000000	0.000000	125.000000	59.000000	-6.000000	-50.000000
1.460000	18.510000	8.840000	0.000000	0.000000	125.000000	59.000000	7.000000	-47.000000
1.470000	18.580000	8.380000	0.000000	0.000000	126.000000	60.000000	7.000000	-46.000000
1.480000	18.660000	8.060000	0.000000	0.000000	126.000000	60.000000	8.000000	-32.000000
1.490000	18.710000	7.860000	0.000000	0.000000	126.000000	60.000000	5.000000	-20.000000
1.500000	18.710000	7.730000	0.000000	0.000000	128.000000	59.000000	0.000000	-13.000000
1.510000	18.640000	7.790000	0.000000	0.000000	128.000000	59.000000	-7.000000	6.000000
1.520000	18.560000	7.970000	0.000000	0.000000	129.000000	60.000000	-8.000000	18.000000
1.530000	18.440000	8.240000	0.000000	0.000000	131.000000	60.000000	-12.000000	27.000000
1.540000	18.280000	8.830000	0.000000	0.000000	131.000000	60.000000	-16.000000	59.000000
1.550000	18.050000	9.820000	0.000000	0.000000	131.000000	60.000000	-23.000000	99.000000
1.560000	17.760000	11.080000	0.000000	0.000000	129.000000	60.000000	-29.000000	126.000000
1.570000	17.420000	12.910000	0.000000	0.000000	129.000000	60.000000	-34.000000	183.000000
1.580000	17.170000	14.690000	0.000000	0.000000	129.000000	60.000000	-25.000000	178.000000
1.590000	16.970000	16.140000	0.000000	0.000000	129.000000	60.000000	-20.000000	145.000000
1.600000	16.970000	16.140000	98.000000	1.000000	128.000000	59.000000	0.000000	0.000000
1.610000	16.790000	18.050000	202.000000	0.000000	125.000000	59.000000	-18.000000	191.000000
1.620000	16.680000	18.310000	252.000000	0.000000	125.000000	59.000000	-11.000000	26.000000
1.630000	16.540000	18.310000	274.000000	0.000000	123.000000	59.000000	-14.000000	0.000000
1.640000	16.640000	18.050000	337.000000	0.000000	121.000000	58.000000	10.000000	-26.000000
1.650000	16.760000	16.830000	423.000000	0.000000	119.000000	58.000000	12.000000	-122.000000
1.660000	17.330000	14.960000	494.000000	0.000000	119.000000	58.000000	57.000000	-187.000000
1.670000	18.200000	12.420000	543.000000	0.000000	119.000000	58.000000	87.000000	-254.000000
1.680000	19.070000	9.990000	563.000000	0.000000	117.000000	58.000000	87.000000	-243.000000
1.690000	19.730000	7.640000	570.000000	0.000000	118.000000	59.000000	66.000000	-235.000000
1.700000	20.260000	5.900000	556.000000	0.000000	121.000000	59.000000	53.000000	-174.000000
1.710000	20.620000	4.890000	543.000000	0.000000	122.000000	60.000000	36.000000	-101.000000
1.720000	20.840000	4.380000	504.000000	0.000000	122.000000	61.000000	22.000000	-51.000000
1.730000	20.970000	4.210000	460.000000	0.000000	121.000000	63.000000	13.000000	-17.000000
1.740000	20.920000	4.390000	351.000000	0.000000	122.000000	63.000000	-5.000000	18.000000
1.750000	20.640000	4.810000	273.000000	0.000000	120.000000	64.000000	-28.000000	42.000000
1.760000	20.200000	5.840000	247.000000	0.000000	120.000000	64.000000	-44.000000	103.000000
1.770000	19.650000	6.870000	247.000000	0.000000	120.000000	64.000000	-55.000000	103.000000
1.780000	19.100000	7.890000	256.000000	0.000000	120.000000	64.000000	-55.000000	102.000000
1.790000	18.570000	8.790000	306.000000	0.000000	122.000000	63.000000	-53.000000	90.000000
1.800000	18.310000	9.390000	315.000000	0.000000	124.000000	63.000000	-26.000000	60.000000
1.810000	18.220000	9.800000	349.000000	0.000000	126.000000	62.000000	-9.000000	41.000000
1.820000	18.420000	10.100000	410.000000	0.000000	126.000000	62.000000	20.000000	30.000000
1.830000	18.640000	10.210000	468.000000	0.000000	126.000000	62.000000	22.000000	11.000000
1.840000	18.910000	10.210000	532.000000	0.000000	126.000000	62.000000	27.000000	0.000000
1.850000	19.360000	10.010000	577.000000	0.000000	124.000000	62.000000	45.000000	-20.000000
1.860000	19.930000	9.720000	586.000000	0.000000	123.000000	62.000000	57.000000	-29.000000
1.870000	20.520000	9.350000	599.000000	0.000000	123.000000	62.000000	59.000000	-37.000000
1.880000	21.050000	9.180000	602.000000	0.000000	121.000000	63.000000	53.000000	-17.000000
1.890000	21.470000	9.110000	611.000000	0.000000	120.000000	62.000000	42.000000	-7.000000
1.900000	21.830000	9.110000	591.000000	0.000000	120.000000	62.000000	36.000000	0.000000
1.910000	22.110000	9.220000	578.000000	0.000000	118.000000	62.000000	28.000000	11.000000
1.920000	22.300000	9.290000	545.000000	0.000000	117.000000	61.000000	19.000000	7.000000
1.930000	22.420000	9.290000	502.000000	0.000000	117.000000	61.000000	12.000000	0.000000
1.940000	22.420000	9.230000	440.000000	0.000000	117.000000	61.000000	0.000000	-6.000000
1.950000	22.330000	9.000000	371.000000	0.000000	117.000000	61.000000	-9.000000	-23.000000
1.960000	22.170000	8.670000	223.000000	0.000000	116.000000	60.000000	-16.000000	-33.000000
1.970000	22.170000	8.670000	0.000000	1.000000	116.000000	60.000000	0.000000	0.000000
1.980000	21.730000	8.390000	0.000000	0.000000	116.000000	60.000000	-44.000000	-28.000000
1.990000	21.460000	8.550000	0.000000	0.000000	118.000000	60.000000	-27.000000	16.000000
2.000000	21.160000	9.160000	0.000000	0.000000	118.000000	60.000000	-30.000000	61.000000
2.010000	20.910000	9.880000	0.000000	0.000000	118.000000	60.000000	-25.000000	72.000000
2.020000	20.680000	10.680000	0.000000	0.000000	118.000000	60.000000	-23.000000	80.000000
2.030000	20.460000	11.180000	0.000000	0.000000	119.000000	60.000000	-22.000000	50.000000
2.040000	20.290000	11.640000	0.000000	0.000000	119.000000	60.000000	-17.000000	46.000000
2.050000	20.180000	11.940000	0.000000	0.000000	119.000000	60.000000	-11.000000	30.000000
2.060000	20.130000	12.160000	0.000000	0.000000	119.000000	60.000000	-5.000000	22.000000
2.070000	20.130000	12.160000	305.000000	1.000000	117.000000	59.000000	0.000000	0.000000
2.080000	20.190000	12.610000	400.000000	0.000000	117.000000	59.000000	6.000000	45.000000
2.090000	20.190000	12.690000	465.000000	0.000000	117.000000	59.000000	0.000000	8.000000
2.100000	20.240000	12.690000	496.000000	0.000000	115.000000	60.000000	5.000000	0.000000
2.110000	20.290000	12.690000	493.000000	0.000000	115.000000	60.000000	5.000000	0.000000
2.120000	20.360000	12.690000	470.000000	0.000000	115.000000	60.000000	7.000000	0.000000
2.130000	20.460000	12.690000	369.000000	0.000000	113.000000	60.000000	10.000000	0.000000
2.140000	20.580000	12.690000	129.000000	0.000000	113.000000	60.000000	12.000000	0.000000
2.150000	20.580000	12.690000	0.000000	1.000000	113.000000	60.000000	0.000000	0.000000
2.160000	20.770000	12.940000	0.000000	0.000000	113.000000	60.000000	19.000000	25.000000
2.170000	20.770000	13.170000	0.000000	0.000000	113.000000	60.000000	0.000000	23.000000
2.180000	20.660000	13.390000	0.000000	0.000000	113.000000	60.000000	-11.000000	22.000000
2.190000	20.590000	13.460000	0.000000	0.000000	115.000000	60.000000	-7.000000	7.000000
2.200000	20.590000	13.460000	0.000000	0.000000	115.000000	60.000000	0.000000	0.000000
2.210000	20.590000	13.330000	0.000000	0.000000	116.000000	58.000000	0.000000	-13.000000
2.220000	20.720000	13.220000	0.000000	0.000000	117.000000	58.000000	13.000000	-11.000000
