t	x	y	pressure	penup	azimuth	inclination	v_x	v_y
0.000000	13.540000	51.650000	3.000000	1.000000	115.000000	60.000000	0.000000	0.000000
0.010000	13.540000	51.650000	37.000000	1.000000	115.000000	60.000000	0.000000	0.000000
0.020000	13.540000	51.650000	88.000000	0.000000	114.000000	59.000000	0.000000	0.000000
0.030000	13.540000	51.650000	143.000000	0.000000	113.000000	58.000000	0.000000	0.000000
0.040000	13.540000	51.650000	205.000000	0.000000	113.000000	57.000000	0.000000	0.000000
0.050000	13.230000	51.650000	233.000000	0.000000	113.000000	57.000000	-31.000000	0.000000
0.060000	13.130000	51.790000	284.000000	0.000000	112.000000	56.000000	-10.000000	14.000000
0.070000	13.020000	51.990000	304.000000	0.000000	111.000000	55.000000	-11.000000	20.000000
0.080000	12.920000	52.220000	339.000000	0.000000	111.000000	55.000000	-10.000000	23.000000
0.090000	12.860000	52.500000	369.000000	0.000000	111.000000	55.000000	-6.000000	28.000000
0.100000	12.860000	52.820000	366.000000	0.000000	110.000000	54.000000	0.000000	32.000000
0.110000	12.970000	53.270000	396.000000	0.000000	110.000000	54.000000	11.000000	45.000000
0.120000	13.150000	53.780000	402.000000	0.000000	109.000000	55.000000	18.000000	51.000000
0.130000	13.400000	54.330000	423.000000	0.000000	109.000000	55.000000	25.000000	55.000000
0.140000	13.800000	54.850000	428.000000	0.000000	109.000000	55.000000	40.000000	52.000000
0.150000	14.290000	55.380000	430.000000	0.000000	109.000000	55.000000	49.000000	53.000000
0.160000	14.890000	55.910000	423.000000	0.000000	109.000000	55.000000	60.000000	53.000000
0.170000	15.550000	56.230000	422.000000	0.000000	107.000000	55.000000	66.000000	32.000000
0.180000	16.360000	56.510000	405.000000	0.000000	107.000000	55.000000	81.000000	28.000000
0.190000	17.260000	56.510000	387.000000	0.000000	107.000000	55.000000	90.000000	0.000000
0.200000	18.070000	56.340000	368.000000	0.000000	107.000000	55.000000	81.000000	-17.000000
0.210000	18.790000	55.860000	346.000000	0.000000	107.000000	55.000000	72.000000	-48.000000
0.220000	19.460000	55.130000	333.000000	0.000000	107.000000	55.000000	67.000000	-73.000000
0.230000	19.920000	54.230000	319.000000	0.000000	107.000000	55.000000	46.000000	-90.000000
0.240000	20.140000	53.080000	304.000000	0.000000	107.000000	55.000000	22.000000	-115.000000
0.250000	20.190000	52.010000	306.000000	0.000000	107.000000	55.000000	5.000000	-107.000000
0.260000	20.080000	50.990000	315.000000	0.000000	107.000000	55.000000	-11.000000	-102.000000
0.270000	19.740000	50.280000	337.000000	0.000000	107.000000	55.000000	-34.000000	-71.000000
0.280000	19.240000	49.710000	336.000000	0.000000	107.000000	55.000000	-50.000000	-57.000000
0.290000	18.540000	49.240000	361.000000	0.000000	107.000000	55.000000	-70.000000	-47.000000
0.300000	17.590000	48.900000	374.000000	0.000000	107.000000	55.000000	-95.000000	-34.000000
0.310000	16.480000	48.660000	413.000000	0.000000	107.000000	55.000000	-111.000000	-24.000000
0.320000	15.270000	48.500000	455.000000	0.000000	106.000000	55.000000	-121.000000	-16.000000
0.330000	14.120000	48.500000	517.000000	0.000000	106.000000	55.000000	-115.000000	0.000000
0.340000	13.280000	48.500000	540.000000	0.000000	106.000000	55.000000	-84.000000	0.000000
0.350000	12.610000	48.690000	545.000000	0.000000	106.000000	55.000000	-67.000000	19.000000
0.360000	12.280000	48.920000	546.000000	0.000000	106.000000	55.000000	-33.000000	23.000000
0.370000	12.280000	49.290000	512.000000	0.000000	106.000000	55.000000	0.000000	37.000000
0.380000	12.510000	49.750000	420.000000	0.000000	106.000000	55.000000	23.000000	46.000000
0.390000	13.200000	50.550000	292.000000	0.000000	106.000000	55.000000	69.000000	80.000000
0.400000	13.200000	50.550000	0.000000	1.000000	107.000000	55.000000	0.000000	0.000000
0.410000	15.230000	51.980000	0.000000	0.000000	107.000000	55.000000	203.000000	143.000000
0.420000	16.010000	52.260000	0.000000	0.000000	107.000000	55.000000	78.000000	28.000000
0.430000	16.420000	52.260000	0.000000	0.000000	109.000000	55.000000	41.000000	0.000000
0.440000	16.580000	51.960000	0.000000	0.000000	109.000000	55.000000	16.000000	-30.000000
0.450000	16.710000	51.690000	0.000000	0.000000	109.000000	55.000000	13.000000	-27.000000
0.460000	16.860000	51.450000	0.000000	0.000000	109.000000	55.000000	15.000000	-24.000000
0.470000	17.010000	51.240000	0.000000	0.000000	107.000000	54.000000	15.000000	-21.000000
0.480000	17.170000	51.240000	0.000000	0.000000	106.000000	52.000000	16.000000	0.000000
0.490000	17.480000	51.190000	0.000000	0.000000	105.000000	51.000000	31.000000	-5.000000
0.500000	17.650000	51.130000	0.000000	0.000000	103.000000	49.000000	17.000000	-6.000000
0.510000	17.650000	51.130000	0.000000	0.000000	102.000000	47.000000	0.000000	0.000000
0.520000	17.750000	51.010000	0.000000	0.000000	101.000000	46.000000	10.000000	-12.000000
0.530000	17.750000	51.010000	0.000000	0.000000	100.000000	46.000000	0.000000	0.000000
0.540000	17.750000	51.010000	0.000000	0.000000	99.000000	45.000000	0.000000	0.000000
0.550000	17.850000	51.010000	0.000000	0.000000	99.000000	44.000000	10.000000	0.000000
0.560000	17.850000	51.010000	0.000000	0.000000	98.000000	43.000000	0.000000	0.000000
0.570000	17.850000	51.010000	0.000000	0.000000	98.000000	42.000000	0.000000	0.000000
0.580000	18.240000	51.210000	0.000000	0.000000	98.000000	41.000000	39.000000	20.000000
0.590000	18.370000	51.350000	0.000000	0.000000	98.000000	41.000000	13.000000	14.000000
0.600000	18.370000	51.470000	0.000000	0.000000	98.000000	40.000000	0.000000	12.000000
0.610000	18.660000	51.570000	0.000000	0.000000	98.000000	40.000000	29.000000	10.000000
0.620000	19.050000	51.710000	0.000000	0.000000	98.000000	40.000000	39.000000	14.000000
0.630000	19.500000	51.870000	0.000000	0.000000	99.000000	41.000000	45.000000	16.000000
0.640000	19.960000	51.950000	0.000000	0.000000	99.000000	41.000000	46.000000	8.000000
0.650000	20.500000	52.170000	0.000000	0.000000	100.000000	42.000000	54.000000	22.000000
0.660000	21.070000	52.330000	0.000000	0.000000	100.000000	43.000000	57.000000	16.000000
0.670000	21.870000	52.410000	0.000000	0.000000	102.000000	43.000000	80.000000	8.000000
0.680000	22.810000	52.680000	0.000000	0.000000	102.000000	45.000000	94.000000	27.000000
0.690000	23.160000	52.800000	0.000000	0.000000	104.000000	47.000000	35.000000	12.000000
0.700000	23.380000	52.800000	0.000000	0.000000	106.000000	48.000000	22.000000	0.000000
0.710000	23.510000	52.700000	0.000000	0.000000	107.000000	50.000000	13.000000	-10.000000
0.720000	23.510000	52.520000	0.000000	0.000000	110.000000	51.000000	0.000000	-18.000000
0.730000	23.280000	52.210000	0.000000	0.000000	110.000000	52.000000	-23.000000	-31.000000
0.740000	23.000000	51.810000	0.000000	0.000000	111.000000	53.000000	-28.000000	-40.000000
0.750000	22.530000	51.330000	0.000000	0.000000	111.000000	53.000000	-47.000000	-48.000000
0.760000	22.060000	50.810000	0.000000	0.000000	108.000000	54.000000	-47.000000	-52.000000
0.770000	21.530000	50.310000	0.000000	0.000000	107.000000	54.000000	-53.000000	-50.000000
0.780000	20.800000	49.830000	0.000000	0.000000	105.000000	53.000000	-73.000000	-48.000000
0.790000	19.960000	49.310000	0.000000	0.000000	102.000000	52.000000	-84.000000	-52.000000
0.800000	19.250000	48.810000	0.000000	0.000000	100.000000	51.000000	-71.000000	-50.000000
0.810000	18.470000	48.650000	0.000000	0.000000	97.000000	50.000000	-78.000000	-16.000000
0.820000	18.120000	48.700000	0.000000	0.000000	96.000000	49.000000	-35.000000	5.000000
0.830000	18.120000	48.920000	0.000000	0.000000	94.000000	48.000000	0.000000	22.000000
0.840000	17.840000	49.160000	0.000000	0.000000	95.000000	49.000000	-28.000000	24.000000
0.850000	17.630000	49.410000	0.000000	0.000000	95.000000	49.000000	-21.000000	25.000000
0.860000	17.630000	49.610000	0.000000	0.000000	95.000000	49.000000	0.000000	20.000000
0.870000	17.740000	49.810000	0.000000	0.000000	96.000000	50.000000	11.000000	20.000000
0.880000	18.090000	49.970000	0.000000	0.000000	96.000000	50.000000	35.000000	16.000000
0.890000	18.470000	50.130000	0.000000	0.000000	97.000000	50.000000	38.000000	16.000000
0.900000	18.880000	50.240000	0.000000	0.000000	97.000000	50.000000	41.000000	11.000000
0.910000	19.270000	50.300000	0.000000	0.000000	98.000000	50.000000	39.000000	6.000000
0.920000	19.500000	50.350000	0.000000	0.000000	98.000000	50.000000	23.000000	5.000000
0.930000	19.640000	50.350000	0.000000	0.000000	100.000000	50.000000	14.000000	0.000000
0.940000	19.640000	50.300000	0.000000	0.000000	100.000000	50.000000	0.000000	-5.000000
0.950000	19.690000	50.180000	0.000000	0.000000	100.000000	51.000000	5.000000	-12.000000
0.960000	19.690000	50.030000	0.000000	0.000000	101.000000	50.000000	0.000000	-15.000000
0.970000	19.690000	49.830000	0.000000	0.000000	101.000000	50.000000	0.000000	-20.000000
0.980000	19.690000	49.630000	0.000000	0.000000	101.000000	51.000000	0.000000	-20.000000
0.990000	19.640000	49.460000	0.000000	0.000000	101.000000	51.000000	-5.000000	-17.000000
1.000000	19.880000	49.370000	0.000000	0.000000	101.000000	51.000000	24.000000	-9.000000
1.010000	19.700000	49.300000	0.000000	0.000000	102.000000	52.000000	-18.000000	-7.000000
1.020000	19.620000	49.300000	0.000000	0.000000	102.000000	52.000000	-8.000000	0.000000
1.030000	19.750000	49.300000	0.000000	0.000000	102.000000	52.000000	13.000000	0.000000
1.040000	19.800000	49.370000	0.000000	0.000000	102.000000	52.000000	5.000000	7.000000
1.050000	19.850000	49.490000	0.000000	0.000000	102.000000	53.000000	5.000000	12.000000
1.060000	19.920000	49.620000	0.000000	0.000000	102.000000	53.000000	7.000000	13.000000
1.070000	19.920000	49.760000	0.000000	0.000000	102.000000	53.000000	0.000000	14.000000
1.080000	19.920000	49.910000	0.000000	0.000000	104.000000	53.000000	0.000000	15.000000
1.090000	19.920000	50.030000	0.000000	0.000000	103.000000	52.000000	0.000000	12.000000
1.100000	19.920000	50.030000	0.000000	0.000000	103.000000	52.000000	0.000000	0.000000
1.110000	19.920000	50.030000	0.000000	0.000000	103.000000	52.000000	0.000000	0.000000
1.120000	19.920000	50.030000	0.000000	0.000000	103.000000	52.000000	0.000000	0.000000
1.130000	19.920000	50.030000	0.000000	0.000000	103.000000	52.000000	0.000000	0.000000
1.140000	19.920000	50.030000	0.000000	0.000000	103.000000	52.000000	0.000000	0.000000
1.150000	19.920000	50.030000	0.000000	0.000000	103.000000	51.000000	0.000000	0.000000
1.160000	19.920000	50.030000	0.000000	0.000000	103.000000	51.000000	0.000000	0.000000
1.170000	19.590000	49.690000	0.000000	0.000000	101.000000	51.000000	-33.000000	-34.000000
1.180000	19.400000	49.400000	0.000000	0.000000	102.000000	52.000000	-19.000000	-29.000000
1.190000	19.270000	49.110000	0.000000	0.000000	102.000000	52.000000	-13.000000	-29.000000
1.200000	19.270000	48.890000	0.000000	0.000000	102.000000	52.000000	0.000000	-22.000000
1.210000	19.350000	48.730000	0.000000	0.000000	101.000000	53.000000	8.000000	-16.000000
1.220000	19.500000	48.650000	0.000000	0.000000	101.000000	53.000000	15.000000	-8.000000
1.230000	19.660000	48.600000	0.000000	0.000000	101.000000	53.000000	16.000000	-5.000000
1.240000	19.760000	48.600000	0.000000	0.000000	101.000000	53.000000	10.000000	0.000000
1.250000	19.830000	48.600000	0.000000	0.000000	101.000000	53.000000	7.000000	0.000000
1.260000	19.830000	48.600000	0.000000	0.000000	101.000000	53.000000	0.000000	0.000000
1.270000	19.720000	48.600000	0.000000	0.000000	101.000000	53.000000	-11.000000	0.000000
1.280000	19.580000	48.600000	0.000000	0.000000	101.000000	53.000000	-14.000000	0.000000
1.290000	19.350000	48.600000	0.000000	0.000000	101.000000	53.000000	-23.000000	0.000000
1.300000	19.130000	48.600000	0.000000	0.000000	99.000000	53.000000	-22.000000	0.000000
1.310000	18.800000	48.600000	0.000000	0.000000	99.000000	53.000000	-33.000000	0.000000
1.320000	18.400000	48.650000	0.000000	0.000000	99.000000	53.000000	-40.000000	5.000000
1.330000	17.970000	48.650000	0.000000	0.000000	99.000000	53.000000	-43.000000	0.000000
1.340000	17.480000	48.650000	0.000000	0.000000	99.000000	52.000000	-49.000000	0.000000
1.350000	16.960000	48.650000	0.000000	0.000000	98.000000	52.000000	-52.000000	0.000000
1.360000	16.460000	48.730000	0.000000	0.000000	98.000000	53.000000	-50.000000	8.000000
1.370000	15.990000	48.730000	0.000000	0.000000	98.000000	53.000000	-47.000000	0.000000
1.380000	15.530000	48.780000	0.000000	0.000000	98.000000	54.000000	-46.000000	5.000000
1.390000	15.130000	48.780000	0.000000	0.000000	99.000000	55.000000	-40.000000	0.000000
1.400000	14.770000	48.720000	0.000000	0.000000	99.000000	56.000000	-36.000000	-6.000000
1.410000	14.520000	48.660000	0.000000	0.000000	100.000000	58.000000	-25.000000	-6.000000
1.420000	14.350000	48.660000	0.000000	0.000000	100.000000	59.000000	-17.000000	0.000000
1.430000	14.240000	48.610000	0.000000	0.000000	102.000000	59.000000	-11.000000	-5.000000
1.440000	14.180000	48.610000	0.000000	0.000000	102.000000	60.000000	-6.000000	0.000000
1.450000	14.110000	48.610000	0.000000	0.000000	105.000000	61.000000	-7.000000	0.000000
1.460000	14.030000	48.610000	0.000000	0.000000	105.000000	61.000000	-8.000000	0.000000
1.470000	14.030000	48.610000	89.000000	1.000000	107.000000	61.000000	0.000000	0.000000
1.480000	14.030000	48.610000	148.000000	0.000000	106.000000	60.000000	0.000000	0.000000
1.490000	13.730000	48.560000	163.000000	0.000000	105.000000	59.000000	-30.000000	-5.000000
1.500000	13.600000	48.660000	237.000000	0.000000	106.000000	58.000000	-13.000000	10.000000
1.510000	13.550000	48.660000	304.000000	0.000000	106.000000	57.000000	-5.000000	0.000000
1.520000	13.550000	48.790000	334.000000	0.000000	106.000000	57.000000	0.000000	13.000000
1.530000	13.550000	48.980000	371.000000	0.000000	107.000000	56.000000	0.000000	19.000000
1.540000	13.550000	49.220000	396.000000	0.000000	107.000000	56.000000	0.000000	24.000000
1.550000	13.720000	49.450000	420.000000	0.000000	107.000000	56.000000	17.000000	23.000000
1.560000	14.090000	49.780000	425.000000	0.000000	106.000000	55.000000	37.000000	33.000000
1.570000	14.610000	50.170000	418.000000	0.000000	107.000000	55.000000	52.000000	39.000000
1.580000	15.380000	50.340000	415.000000	0.000000	107.000000	55.000000	77.000000	17.000000
1.590000	16.210000	50.340000	422.000000	0.000000	107.000000	55.000000	83.000000	0.000000
1.600000	17.130000	50.340000	422.000000	0.000000	109.000000	55.000000	92.000000	0.000000
1.610000	17.860000	50.150000	400.000000	0.000000	109.000000	55.000000	73.000000	-19.000000
1.620000	18.460000	49.850000	373.000000	0.000000	108.000000	54.000000	60.000000	-30.000000
1.630000	18.790000	49.460000	291.000000	0.000000	108.000000	54.000000	33.000000	-39.000000
1.640000	18.790000	48.960000	168.000000	0.000000	107.000000	54.000000	0.000000	-50.000000
1.650000	18.790000	48.960000	0.000000	1.000000	107.000000	54.000000	0.000000	0.000000
1.660000	18.460000	48.190000	0.000000	0.000000	107.000000	55.000000	-33.000000	-77.000000
1.670000	18.230000	48.100000	0.000000	0.000000	106.000000	55.000000	-23.000000	-9.000000
1.680000	17.990000	48.480000	0.000000	0.000000	106.000000	55.000000	-24.000000	38.000000
1.690000	17.870000	49.010000	0.000000	0.000000	105.000000	55.000000	-12.000000	53.000000
1.700000	18.010000	49.640000	0.000000	0.000000	103.000000	54.000000	14.000000	63.000000
1.710000	18.310000	50.230000	0.000000	0.000000	102.000000	53.000000	30.000000	59.000000
1.720000	19.170000	50.700000	0.000000	0.000000	102.000000	52.000000	86.000000	47.000000
1.730000	19.630000	51.100000	0.000000	0.000000	101.000000	50.000000	46.000000	40.000000
1.740000	19.820000	51.400000	0.000000	0.000000	101.000000	50.000000	19.000000	30.000000
1.750000	20.210000	51.560000	0.000000	0.000000	100.000000	48.000000	39.000000	16.000000
1.760000	20.490000	51.620000	0.000000	0.000000	100.000000	47.000000	28.000000	6.000000
1.770000	20.690000	51.620000	0.000000	0.000000	100.000000	47.000000	20.000000	0.000000
1.780000	20.690000	51.520000	0.000000	0.000000	99.000000	46.000000	0.000000	-10.000000
1.790000	20.690000	51.440000	0.000000	0.000000	100.000000	46.000000	0.000000	-8.000000
1.800000	20.610000	51.330000	0.000000	0.000000	100.000000	46.000000	-8.000000	-11.000000
1.810000	20.480000	51.150000	0.000000	0.000000	101.000000	46.000000	-13.000000	-18.000000
1.820000	20.340000	50.980000	0.000000	0.000000	101.000000	46.000000	-14.000000	-17.000000
1.830000	20.230000	50.840000	0.000000	0.000000	101.000000	46.000000	-11.000000	-14.000000
1.840000	20.170000	50.700000	0.000000	0.000000	101.000000	47.000000	-6.000000	-14.000000
1.850000	20.170000	50.610000	0.000000	0.000000	101.000000	47.000000	0.000000	-9.000000
1.860000	20.100000	50.550000	0.000000	0.000000	100.000000	49.000000	-7.000000	-6.000000
1.870000	20.040000	50.550000	0.000000	0.000000	100.000000	49.000000	-6.000000	0.000000
1.880000	20.040000	50.550000	0.000000	0.000000	100.000000	49.000000	0.000000	0.000000
1.890000	19.990000	50.620000	0.000000	0.000000	101.000000	50.000000	-5.000000	7.000000
1.900000	19.990000	50.720000	0.000000	0.000000	101.000000	50.000000	0.000000	10.000000
1.910000	19.990000	50.870000	0.000000	0.000000	101.000000	50.000000	0.000000	15.000000
1.920000	19.990000	51.060000	0.000000	0.000000	101.000000	50.000000	0.000000	19.000000
1.930000	19.990000	51.170000	0.000000	0.000000	102.000000	50.000000	0.000000	11.000000
1.940000	19.990000	51.270000	0.000000	0.000000	102.000000	50.000000	0.000000	10.000000
1.950000	19.990000	51.350000	0.000000	0.000000	102.000000	50.000000	0.000000	8.000000
1.960000	19.990000	51.430000	0.000000	0.000000	102.000000	50.000000	0.000000	8.000000
1.970000	19.990000	51.480000	0.000000	0.000000	102.000000	50.000000	0.000000	5.000000
1.980000	19.990000	51.530000	0.000000	0.000000	103.000000	50.000000	0.000000	5.000000
1.990000	19.990000	51.530000	0.000000	0.000000	104.000000	51.000000	0.000000	0.000000
2.000000	19.990000	51.580000	0.000000	0.000000	104.000000	51.000000	0.000000	5.000000
2.010000	19.990000	51.580000	0.000000	0.000000	104.000000	51.000000	0.000000	0.000000
2.020000	19.990000	51.580000	107.000000	1.000000	104.000000	52.000000	0.000000	0.000000
2.030000	19.990000	51.580000	137.000000	0.000000	104.000000	52.000000	0.000000	0.000000
2.040000	19.990000	51.580000	144.000000	0.000000	104.000000	52.000000	0.000000	0.000000
2.050000	20.090000	51.070000	151.000000	0.000000	106.000000	53.000000	10.000000	-51.000000
2.060000	20.140000	50.670000	195.000000	0.000000	106.000000	53.000000	5.000000	-40.000000
2.070000	20.210000	50.250000	215.000000	0.000000	106.000000	53.000000	7.000000	-42.000000
2.080000	20.400000	49.910000	214.000000	0.000000	107.000000	54.000000	19.000000	-34.000000
2.090000	20.660000	49.620000	232.000000	0.000000	107.000000	54.000000	26.000000	-29.000000
2.100000	20.980000	49.530000	244.000000	0.000000	107.000000	54.000000	32.000000	-9.000000
2.110000	21.250000	49.530000	241.000000	0.000000	107.000000	54.000000	27.000000	0.000000
2.120000	21.480000	49.710000	252.000000	0.000000	107.000000	54.000000	23.000000	18.000000
2.130000	21.640000	50.050000	262.000000	0.000000	107.000000	54.000000	16.000000	34.000000
2.140000	21.740000	50.450000	267.000000	0.000000	107.000000	54.000000	10.000000	40.000000
2.150000	21.790000	50.880000	282.000000	0.000000	107.000000	54.000000	5.000000	43.000000
2.160000	21.740000	51.300000	314.000000	0.000000	107.000000	54.000000	-5.000000	42.000000
2.170000	21.690000	51.550000	345.000000	0.000000	107.000000	54.000000	-5.000000	25.000000
2.180000	21.630000	51.680000	389.000000	0.000000	107.000000	54.000000	-6.000000	13.000000
2.190000	21.630000	51.680000	422.000000	0.000000	107.000000	55.000000	0.000000	0.000000
2.200000	21.630000	51.600000	414.000000	0.000000	109.000000	55.000000	0.000000	-8.000000
2.210000	21.630000	51.410000	420.000000	0.000000	109.000000	55.000000	0.000000	-19.000000
2.220000	21.770000	51.110000	418.000000	0.000000	109.000000	55.000000	14.000000	-30.000000
2.230000	21.930000	50.730000	420.000000	0.000000	109.000000	55.000000	16.000000	-38.000000
2.240000	22.140000	50.500000	423.000000	0.000000	109.000000	55.000000	21.000000	-23.000000
