t	x	y	pressure	penup	azimuth	inclination	v_x	v_y
0.000000	12.570000	84.990000	12.000000	1.000000	121.000000	63.000000	0.000000	0.000000
0.010000	12.500000	85.260000	51.000000	1.000000	121.000000	63.000000	0.000000	0.000000
0.020000	12.500000	85.510000	89.000000	0.000000	121.000000	63.000000	0.000000	25.000000
0.030000	12.500000	85.820000	139.000000	0.000000	120.000000	62.000000	0.000000	31.000000
0.040000	12.580000	86.280000	170.000000	0.000000	118.000000	62.000000	8.000000	46.000000
0.050000	12.700000	86.830000	215.000000	0.000000	118.000000	62.000000	12.000000	55.000000
0.060000	12.870000	87.450000	241.000000	0.000000	118.000000	62.000000	17.000000	62.000000
0.070000	13.110000	88.170000	277.000000	0.000000	118.000000	62.000000	24.000000	72.000000
0.080000	13.480000	88.760000	274.000000	0.000000	118.000000	62.000000	37.000000	59.000000
0.090000	13.930000	89.260000	279.000000	0.000000	118.000000	62.000000	45.000000	50.000000
0.100000	14.420000	89.570000	270.000000	0.000000	121.000000	63.000000	49.000000	31.000000
0.110000	14.940000	89.570000	250.000000	0.000000	121.000000	63.000000	52.000000	0.000000
0.120000	15.520000	89.380000	254.000000	0.000000	121.000000	63.000000	58.000000	-19.000000
0.130000	16.120000	88.830000	251.000000	0.000000	121.000000	63.000000	60.000000	-55.000000
0.140000	16.710000	87.940000	246.000000	0.000000	121.000000	63.000000	59.000000	-89.000000
0.150000	17.080000	86.830000	247.000000	0.000000	120.000000	62.000000	37.000000	-111.000000
0.160000	17.300000	85.510000	244.000000	0.000000	120.000000	62.000000	22.000000	-132.000000
0.170000	17.220000	84.130000	240.000000	0.000000	120.000000	62.000000	-8.000000	-138.000000
0.180000	16.980000	82.720000	247.000000	0.000000	119.000000	61.000000	-24.000000	-141.000000
0.190000	16.640000	81.700000	242.000000	0.000000	119.000000	61.000000	-34.000000	-102.000000
0.200000	16.150000	80.960000	282.000000	0.000000	118.000000	60.000000	-49.000000	-74.000000
0.210000	15.710000	80.410000	305.000000	0.000000	118.000000	60.000000	-44.000000	-55.000000
0.220000	15.220000	80.190000	361.000000	0.000000	117.000000	59.000000	-49.000000	-22.000000
0.230000	14.680000	80.240000	418.000000	0.000000	117.000000	59.000000	-54.000000	5.000000
0.240000	14.230000	80.460000	442.000000	0.000000	117.000000	59.000000	-45.000000	22.000000
0.250000	13.810000	80.900000	463.000000	0.000000	117.000000	59.000000	-42.000000	44.000000
0.260000	13.610000	81.500000	464.000000	0.000000	117.000000	59.000000	-20.000000	60.000000
0.270000	13.540000	82.200000	481.000000	0.000000	118.000000	60.000000	-7.000000	70.000000
0.280000	13.750000	82.940000	483.000000	0.000000	118.000000	60.000000	21.000000	74.000000
0.290000	14.190000	83.640000	472.000000	0.000000	118.000000	60.000000	44.000000	70.000000
0.300000	14.790000	84.110000	391.000000	0.000000	118.000000	60.000000	60.000000	47.000000
0.310000	15.430000	84.450000	146.000000	0.000000	118.000000	60.000000	64.000000	34.000000
0.320000	15.430000	84.450000	0.000000	1.000000	118.000000	60.000000	0.000000	0.000000
0.330000	16.270000	84.230000	0.000000	0.000000	118.000000	60.000000	84.000000	-22.000000
0.340000	16.270000	83.920000	0.000000	0.000000	118.000000	60.000000	0.000000	-31.000000
0.350000	16.100000	83.660000	0.000000	0.000000	118.000000	60.000000	-17.000000	-26.000000
0.360000	15.930000	83.470000	0.000000	0.000000	117.000000	59.000000	-17.000000	-19.000000
0.370000	15.930000	83.320000	0.000000	0.000000	117.000000	59.000000	0.000000	-15.000000
0.380000	15.980000	83.270000	0.000000	0.000000	116.000000	58.000000	5.000000	-5.000000
0.390000	16.270000	83.270000	0.000000	0.000000	115.000000	58.000000	29.000000	0.000000
0.400000	16.630000	83.220000	0.000000	0.000000	114.000000	57.000000	36.000000	-5.000000
0.410000	17.030000	83.220000	0.000000	0.000000	113.000000	56.000000	40.000000	0.000000
0.420000	17.280000	83.140000	0.000000	0.000000	113.000000	56.000000	25.000000	-8.000000
0.430000	17.430000	83.090000	0.000000	0.000000	112.000000	55.000000	15.000000	-5.000000
0.440000	17.510000	83.090000	0.000000	0.000000	112.000000	55.000000	8.000000	0.000000
0.450000	17.560000	83.090000	0.000000	0.000000	112.000000	55.000000	5.000000	0.000000
0.460000	17.560000	83.020000	0.000000	0.000000	112.000000	55.000000	0.000000	-7.000000
0.470000	17.560000	82.960000	0.000000	0.000000	113.000000	56.000000	0.000000	-6.000000
0.480000	17.560000	82.890000	0.000000	0.000000	113.000000	56.000000	0.000000	-7.000000
0.490000	17.450000	82.890000	0.000000	0.000000	113.000000	56.000000	-11.000000	0.000000
0.500000	17.340000	82.830000	0.000000	0.000000	114.000000	57.000000	-11.000000	-6.000000
0.510000	17.240000	82.830000	0.000000	0.000000	114.000000	57.000000	-10.000000	0.000000
0.520000	17.140000	82.830000	0.000000	0.000000	115.000000	58.000000	-10.000000	0.000000
0.530000	17.060000	82.950000	0.000000	0.000000	115.000000	58.000000	-8.000000	12.000000
0.540000	16.990000	83.070000	0.000000	0.000000	116.000000	58.000000	-7.000000	12.000000
0.550000	17.080000	83.270000	0.000000	0.000000	117.000000	59.000000	9.000000	20.000000
0.560000	17.200000	83.530000	0.000000	0.000000	117.000000	59.000000	12.000000	26.000000
0.570000	17.380000	83.820000	0.000000	0.000000	118.000000	60.000000	18.000000	29.000000
0.580000	17.590000	84.020000	0.000000	0.000000	118.000000	60.000000	21.000000	20.000000
0.590000	17.720000	84.160000	0.000000	0.000000	118.000000	60.000000	13.000000	14.000000
0.600000	17.720000	84.160000	22.000000	1.000000	119.000000	61.000000	0.000000	0.000000
0.610000	17.790000	84.420000	58.000000	0.000000	119.000000	61.000000	7.000000	26.000000
0.620000	17.720000	84.190000	130.000000	0.000000	119.000000	61.000000	-7.000000	-23.000000
0.630000	17.640000	83.880000	180.000000	0.000000	119.000000	61.000000	-8.000000	-31.000000
0.640000	17.580000	83.480000	219.000000	0.000000	119.000000	61.000000	-6.000000	-40.000000
0.650000	17.580000	83.030000	255.000000	0.000000	119.000000	61.000000	0.000000	-45.000000
0.660000	17.580000	82.640000	273.000000	0.000000	119.000000	61.000000	0.000000	-39.000000
0.670000	17.660000	82.320000	297.000000	0.000000	120.000000	60.000000	8.000000	-32.000000
0.680000	17.740000	82.040000	311.000000	0.000000	120.000000	60.000000	8.000000	-28.000000
0.690000	17.880000	81.930000	311.000000	0.000000	120.000000	60.000000	14.000000	-11.000000
0.700000	18.020000	81.930000	314.000000	0.000000	120.000000	60.000000	14.000000	0.000000
0.710000	18.150000	82.030000	304.000000	0.000000	120.000000	60.000000	13.000000	10.000000
0.720000	18.280000	82.290000	312.000000	0.000000	120.000000	60.000000	13.000000	26.000000
0.730000	18.420000	82.620000	304.000000	0.000000	119.000000	60.000000	14.000000	33.000000
0.740000	18.520000	83.010000	306.000000	0.000000	119.000000	60.000000	10.000000	39.000000
0.750000	18.580000	83.320000	304.000000	0.000000	119.000000	60.000000	6.000000	31.000000
0.760000	18.580000	83.600000	309.000000	0.000000	119.000000	60.000000	0.000000	28.000000
0.770000	18.580000	83.730000	304.000000	0.000000	119.000000	60.000000	0.000000	13.000000
0.780000	18.580000	83.730000	324.000000	0.000000	119.000000	60.000000	0.000000	0.000000
0.790000	18.650000	83.730000	344.000000	0.000000	118.000000	59.000000	7.000000	0.000000
0.800000	18.650000	83.510000	361.000000	0.000000	118.000000	59.000000	0.000000	-22.000000
0.810000	18.790000	83.230000	364.000000	0.000000	118.000000	59.000000	14.000000	-28.000000
0.820000	18.900000	83.000000	371.000000	0.000000	118.000000	59.000000	11.000000	-23.000000
0.830000	19.050000	82.820000	371.000000	0.000000	118.000000	59.000000	15.000000	-18.000000
0.840000	19.220000	82.680000	361.000000	0.000000	120.000000	58.000000	17.000000	-14.000000
0.850000	19.420000	82.680000	371.000000	0.000000	120.000000	58.000000	20.000000	0.000000
0.860000	19.650000	82.760000	363.000000	0.000000	120.000000	58.000000	23.000000	8.000000
0.870000	19.880000	82.930000	354.000000	0.000000	120.000000	58.000000	23.000000	17.000000
0.880000	20.120000	83.180000	354.000000	0.000000	120.000000	58.000000	24.000000	25.000000
0.890000	20.350000	83.470000	361.000000	0.000000	120.000000	58.000000	23.000000	29.000000
0.900000	20.520000	83.780000	359.000000	0.000000	119.000000	58.000000	17.000000	31.000000
0.910000	20.640000	83.920000	364.000000	0.000000	119.000000	58.000000	12.000000	14.000000
0.920000	20.640000	84.000000	363.000000	0.000000	119.000000	58.000000	0.000000	8.000000
0.930000	20.710000	84.000000	368.000000	0.000000	119.000000	58.000000	7.000000	0.000000
0.940000	20.710000	83.920000	361.000000	0.000000	119.000000	58.000000	0.000000	-8.000000
0.950000	20.810000	83.700000	367.000000	0.000000	119.000000	58.000000	10.000000	-22.000000
0.960000	20.910000	83.400000	369.000000	0.000000	119.000000	58.000000	10.000000	-30.000000
0.970000	21.060000	83.200000	369.000000	0.000000	118.000000	57.000000	15.000000	-20.000000
0.980000	21.230000	83.000000	371.000000	0.000000	118.000000	57.000000	17.000000	-20.000000
0.990000	21.470000	82.900000	366.000000	0.000000	118.000000	57.000000	24.000000	-10.000000
1.000000	21.770000	82.900000	362.000000	0.000000	118.000000	57.000000	30.000000	0.000000
1.010000	22.100000	83.000000	363.000000	0.000000	118.000000	57.000000	33.000000	10.000000
1.020000	22.370000	83.160000	336.000000	0.000000	118.000000	57.000000	27.000000	16.000000
1.030000	22.610000	83.340000	337.000000	0.000000	118.000000	57.000000	24.000000	18.000000
1.040000	22.800000	83.530000	327.000000	0.000000	117.000000	56.000000	19.000000	19.000000
1.050000	22.960000	83.710000	325.000000	0.000000	117.000000	56.000000	16.000000	18.000000
1.060000	23.100000	83.890000	322.000000	0.000000	117.000000	56.000000	14.000000	18.000000
1.070000	23.100000	83.890000	324.000000	0.000000	117.000000	56.000000	0.000000	0.000000
1.080000	23.150000	83.940000	324.000000	0.000000	118.000000	57.000000	5.000000	5.000000
1.090000	23.150000	83.880000	329.000000	0.000000	118.000000	57.000000	0.000000	-6.000000
1.100000	23.150000	83.800000	335.000000	0.000000	118.000000	57.000000	0.000000	-8.000000
1.110000	23.150000	83.690000	334.000000	0.000000	118.000000	57.000000	0.000000	-11.000000
1.120000	23.280000	83.560000	334.000000	0.000000	118.000000	57.000000	13.000000	-13.000000
1.130000	23.410000	83.440000	330.000000	0.000000	118.000000	57.000000	13.000000	-12.000000
1.140000	23.600000	83.390000	330.000000	0.000000	118.000000	57.000000	19.000000	-5.000000
1.150000	23.840000	83.390000	334.000000	0.000000	118.000000	57.000000	24.000000	0.000000
1.160000	24.150000	83.500000	325.000000	0.000000	118.000000	57.000000	31.000000	11.000000
1.170000	24.460000	83.630000	327.000000	0.000000	118.000000	57.000000	31.000000	13.000000
1.180000	24.770000	83.770000	315.000000	0.000000	118.000000	57.000000	31.000000	14.000000
1.190000	25.010000	83.890000	304.000000	0.000000	118.000000	57.000000	24.000000	12.000000
1.200000	25.210000	84.050000	311.000000	0.000000	118.000000	57.000000	20.000000	16.000000
1.210000	25.400000	84.240000	309.000000	0.000000	119.000000	58.000000	19.000000	19.000000
1.220000	25.520000	84.440000	311.000000	0.000000	119.000000	58.000000	12.000000	20.000000
1.230000	25.600000	84.680000	311.000000	0.000000	117.000000	58.000000	8.000000	24.000000
1.240000	25.540000	84.910000	304.000000	0.000000	118.000000	59.000000	-6.000000	23.000000
1.250000	25.490000	85.110000	324.000000	0.000000	118.000000	59.000000	-5.000000	20.000000
1.260000	25.370000	85.250000	330.000000	0.000000	119.000000	60.000000	-12.000000	14.000000
1.270000	25.190000	85.310000	322.000000	0.000000	119.000000	60.000000	-18.000000	6.000000
1.280000	24.920000	85.220000	337.000000	0.000000	119.000000	60.000000	-27.000000	-9.000000
1.290000	24.650000	85.020000	344.000000	0.000000	119.000000	60.000000	-27.000000	-20.000000
1.300000	24.370000	84.750000	344.000000	0.000000	119.000000	60.000000	-28.000000	-27.000000
1.310000	24.210000	84.430000	351.000000	0.000000	119.000000	60.000000	-16.000000	-32.000000
1.320000	24.210000	84.150000	349.000000	0.000000	119.000000	60.000000	0.000000	-28.000000
1.330000	24.270000	83.920000	351.000000	0.000000	119.000000	60.000000	6.000000	-23.000000
1.340000	24.460000	83.780000	354.000000	0.000000	118.000000	59.000000	19.000000	-14.000000
1.350000	24.790000	83.780000	349.000000	0.000000	118.000000	59.000000	33.000000	0.000000
1.360000	25.200000	83.880000	343.000000	0.000000	118.000000	59.000000	41.000000	10.000000
1.370000	25.660000	84.080000	344.000000	0.000000	118.000000	59.000000	46.000000	20.000000
1.380000	26.070000	84.280000	341.000000	0.000000	120.000000	58.000000	41.000000	20.000000
1.390000	26.320000	84.480000	343.000000	0.000000	120.000000	58.000000	25.000000	20.000000
1.400000	26.470000	84.680000	343.000000	0.000000	121.000000	59.000000	15.000000	20.000000
1.410000	26.470000	84.680000	348.000000	0.000000	121.000000	59.000000	0.000000	0.000000
1.420000	26.470000	84.730000	353.000000	0.000000	119.000000	60.000000	0.000000	5.000000
1.430000	26.470000	84.730000	354.000000	0.000000	120.000000	60.000000	0.000000	0.000000
1.440000	26.470000	84.730000	349.000000	0.000000	120.000000	60.000000	0.000000	0.000000
1.450000	26.470000	84.730000	343.000000	0.000000	120.000000	60.000000	0.000000	0.000000
1.460000	26.460000	84.450000	348.000000	0.000000	120.000000	60.000000	-1.000000	-28.000000
1.470000	26.620000	84.370000	351.000000	0.000000	120.000000	60.000000	16.000000	-8.000000
1.480000	26.800000	84.430000	353.000000	0.000000	119.000000	60.000000	18.000000	6.000000
1.490000	27.070000	84.570000	344.000000	0.000000	119.000000	60.000000	27.000000	14.000000
1.500000	27.400000	84.790000	334.000000	0.000000	119.000000	60.000000	33.000000	22.000000
1.510000	27.710000	85.030000	329.000000	0.000000	118.000000	59.000000	31.000000	24.000000
1.520000	27.960000	85.290000	317.000000	0.000000	118.000000	59.000000	25.000000	26.000000
1.530000	28.160000	85.480000	315.000000	0.000000	118.000000	59.000000	20.000000	19.000000
1.540000	28.280000	85.620000	324.000000	0.000000	118.000000	59.000000	12.000000	14.000000
1.550000	28.280000	85.620000	344.000000	0.000000	118.000000	59.000000	0.000000	0.000000
1.560000	28.280000	85.570000	387.000000	0.000000	118.000000	59.000000	0.000000	-5.000000
1.570000	28.280000	85.350000	397.000000	0.000000	119.000000	60.000000	0.000000	-22.000000
1.580000	28.280000	85.040000	412.000000	0.000000	119.000000	60.000000	0.000000	-31.000000
1.590000	28.360000	84.720000	423.000000	0.000000	119.000000	60.000000	8.000000	-32.000000
1.600000	28.470000	84.510000	440.000000	0.000000	119.000000	60.000000	11.000000	-21.000000
1.610000	28.620000	84.370000	440.000000	0.000000	119.000000	60.000000	15.000000	-14.000000
1.620000	28.840000	84.370000	422.000000	0.000000	119.000000	60.000000	22.000000	0.000000
1.630000	28.840000	84.370000	371.000000	0.000000	119.000000	60.000000	0.000000	0.000000
1.640000	29.360000	84.470000	241.000000	0.000000	119.000000	60.000000	52.000000	10.000000
1.650000	29.620000	84.620000	94.000000	0.000000	119.000000	60.000000	26.000000	15.000000
1.660000	29.620000	84.620000	0.000000	1.000000	121.000000	59.000000	0.000000	0.000000
1.670000	29.990000	84.860000	0.000000	0.000000	120.000000	58.000000	37.000000	24.000000
1.680000	29.990000	84.970000	0.000000	0.000000	120.000000	58.000000	0.000000	11.000000
1.690000	30.070000	85.130000	0.000000	0.000000	119.000000	58.000000	8.000000	16.000000
1.700000	30.120000	85.320000	0.000000	0.000000	119.000000	58.000000	5.000000	19.000000
1.710000	30.190000	85.590000	0.000000	0.000000	118.000000	57.000000	7.000000	27.000000
1.720000	30.260000	85.830000	0.000000	0.000000	118.000000	57.000000	7.000000	24.000000
1.730000	30.330000	86.040000	0.000000	0.000000	118.000000	57.000000	7.000000	21.000000
1.740000	30.330000	86.040000	0.000000	0.000000	117.000000	56.000000	0.000000	0.000000
1.750000	30.230000	86.040000	0.000000	0.000000	116.000000	56.000000	-10.000000	0.000000
1.760000	30.230000	86.040000	256.000000	1.000000	116.000000	56.000000	0.000000	0.000000
1.770000	29.930000	85.770000	334.000000	0.000000	116.000000	56.000000	-30.000000	-27.000000
1.780000	29.760000	85.770000	386.000000	0.000000	116.000000	57.000000	-17.000000	0.000000
1.790000	29.760000	85.770000	417.000000	0.000000	115.000000	58.000000	0.000000	0.000000
1.800000	29.830000	85.770000	418.000000	0.000000	115.000000	58.000000	7.000000	0.000000
1.810000	29.950000	85.770000	431.000000	0.000000	116.000000	58.000000	12.000000	0.000000
1.820000	30.140000	85.670000	433.000000	0.000000	116.000000	58.000000	19.000000	-10.000000
1.830000	30.390000	85.550000	423.000000	0.000000	116.000000	58.000000	25.000000	-12.000000
1.840000	30.500000	85.340000	422.000000	0.000000	116.000000	58.000000	11.000000	-21.000000
1.850000	30.500000	85.120000	430.000000	0.000000	116.000000	58.000000	0.000000	-22.000000
1.860000	30.500000	84.890000	448.000000	0.000000	116.000000	58.000000	0.000000	-23.000000
1.870000	30.370000	84.590000	471.000000	0.000000	116.000000	58.000000	-13.000000	-30.000000
1.880000	30.210000	84.350000	468.000000	0.000000	116.000000	58.000000	-16.000000	-24.000000
1.890000	30.120000	84.240000	472.000000	0.000000	116.000000	58.000000	-9.000000	-11.000000
1.900000	30.120000	84.240000	468.000000	0.000000	118.000000	59.000000	0.000000	0.000000
1.910000	30.200000	84.150000	473.000000	0.000000	118.000000	59.000000	8.000000	-9.000000
1.920000	30.330000	84.150000	474.000000	0.000000	118.000000	59.000000	13.000000	0.000000
1.930000	30.590000	84.150000	446.000000	0.000000	118.000000	59.000000	26.000000	0.000000
1.940000	30.940000	84.270000	289.000000	0.000000	118.000000	59.000000	35.000000	12.000000
1.950000	31.320000	84.410000	1.000000	1.000000	118.000000	59.000000	0.000000	0.000000
1.960000	31.320000	84.410000	0.000000	0.000000	118.000000	59.000000	0.000000	0.000000
1.970000	31.610000	84.730000	0.000000	0.000000	118.000000	59.000000	29.000000	32.000000
1.980000	31.610000	84.730000	0.000000	0.000000	118.000000	59.000000	0.000000	0.000000
1.990000	31.610000	84.730000	0.000000	0.000000	117.000000	58.000000	0.000000	0.000000
2.000000	31.140000	84.960000	0.000000	0.000000	116.000000	57.000000	-47.000000	23.000000
2.010000	31.050000	85.010000	0.000000	0.000000	116.000000	57.000000	-9.000000	5.000000
2.020000	31.100000	85.070000	0.000000	0.000000	116.000000	56.000000	5.000000	6.000000
2.030000	31.250000	85.160000	0.000000	0.000000	116.000000	56.000000	15.000000	9.000000
2.040000	31.460000	85.300000	0.000000	0.000000	117.000000	56.000000	21.000000	14.000000
2.050000	31.570000	85.430000	0.000000	0.000000	116.000000	55.000000	11.000000	13.000000
2.060000	31.620000	85.620000	0.000000	0.000000	117.000000	55.000000	5.000000	19.000000
2.070000	31.620000	85.840000	0.000000	0.000000	117.000000	55.000000	0.000000	22.000000
2.080000	31.920000	86.220000	0.000000	0.000000	118.000000	54.000000	30.000000	38.000000
2.090000	32.470000	86.620000	0.000000	0.000000	118.000000	54.000000	55.000000	40.000000
2.100000	32.230000	87.090000	0.000000	0.000000	119.000000	53.000000	-24.000000	47.000000
2.110000	32.480000	87.620000	0.000000	0.000000	121.000000	53.000000	25.000000	53.000000
2.120000	33.060000	88.260000	0.000000	0.000000	122.000000	53.000000	58.000000	64.000000
2.130000	33.200000	88.690000	0.000000	0.000000	123.000000	52.000000	14.000000	43.000000
2.140000	33.200000	88.990000	0.000000	0.000000	123.000000	52.000000	0.000000	30.000000
2.150000	33.200000	89.140000	0.000000	0.000000	124.000000	52.000000	0.000000	15.000000
2.160000	33.200000	89.210000	0.000000	0.000000	125.000000	53.000000	0.000000	7.000000
2.170000	33.200000	89.210000	0.000000	0.000000	125.000000	53.000000	0.000000	0.000000
2.180000	33.080000	89.160000	0.000000	0.000000	125.000000	53.000000	-12.000000	-5.000000
2.190000	33.230000	89.160000	0.000000	0.000000	125.000000	53.000000	15.000000	0.000000
2.200000	33.400000	89.070000	0.000000	0.000000	130.000000	52.000000	17.000000	-9.000000
2.210000	33.590000	89.000000	0.000000	0.000000	134.000000	50.000000	19.000000	-7.000000
2.220000	33.740000	88.880000	0.000000	0.000000	139.000000	48.000000	15.000000	-12.000000
