t	x	y	pressure	penup	azimuth	inclination	v_x	v_y
0.000000	48.110000	83.020000	637.000000	1.000000	152.000000	62.000000	0.000000	0.000000
0.010000	47.250000	82.670000	666.000000	0.000000	154.000000	63.000000	-86.000000	-35.000000
0.020000	46.870000	82.860000	669.000000	0.000000	154.000000	63.000000	-38.000000	19.000000
0.030000	46.510000	83.220000	696.000000	0.000000	155.000000	63.000000	-36.000000	36.000000
0.040000	46.380000	83.690000	783.000000	0.000000	155.000000	63.000000	-13.000000	47.000000
0.050000	46.300000	84.420000	827.000000	0.000000	155.000000	63.000000	-8.000000	73.000000
0.060000	46.420000	85.350000	831.000000	0.000000	155.000000	63.000000	12.000000	93.000000
0.070000	46.660000	86.420000	864.000000	0.000000	155.000000	63.000000	24.000000	107.000000
0.080000	47.240000	87.610000	863.000000	0.000000	155.000000	63.000000	58.000000	119.000000
0.090000	47.970000	88.890000	885.000000	0.000000	157.000000	63.000000	73.000000	128.000000
0.100000	48.800000	90.230000	896.000000	0.000000	157.000000	63.000000	83.000000	134.000000
0.110000	49.680000	91.220000	890.000000	0.000000	157.000000	63.000000	88.000000	99.000000
0.120000	50.560000	91.950000	882.000000	0.000000	160.000000	63.000000	88.000000	73.000000
0.130000	51.390000	92.520000	876.000000	0.000000	161.000000	62.000000	83.000000	57.000000
0.140000	51.990000	92.720000	870.000000	0.000000	163.000000	62.000000	60.000000	20.000000
0.150000	52.470000	92.860000	872.000000	0.000000	163.000000	61.000000	48.000000	14.000000
0.160000	52.820000	92.630000	879.000000	0.000000	164.000000	60.000000	35.000000	-23.000000
0.170000	53.180000	92.170000	890.000000	0.000000	164.000000	60.000000	36.000000	-46.000000
0.180000	53.560000	91.410000	909.000000	0.000000	165.000000	59.000000	38.000000	-76.000000
0.190000	53.820000	90.210000	924.000000	0.000000	164.000000	60.000000	26.000000	-120.000000
0.200000	54.010000	88.710000	941.000000	0.000000	164.000000	60.000000	19.000000	-150.000000
0.210000	54.150000	86.880000	949.000000	0.000000	163.000000	61.000000	14.000000	-183.000000
0.220000	54.050000	84.670000	959.000000	0.000000	163.000000	62.000000	-10.000000	-221.000000
0.230000	53.790000	82.200000	964.000000	0.000000	163.000000	62.000000	-26.000000	-247.000000
0.240000	53.290000	79.780000	977.000000	0.000000	162.000000	63.000000	-50.000000	-242.000000
0.250000	52.850000	77.720000	981.000000	0.000000	161.000000	64.000000	-44.000000	-206.000000
0.260000	52.190000	75.910000	994.000000	0.000000	160.000000	65.000000	-66.000000	-181.000000
0.270000	51.360000	74.660000	1018.000000	0.000000	162.000000	65.000000	-83.000000	-125.000000
0.280000	50.640000	73.840000	1023.000000	0.000000	162.000000	65.000000	-72.000000	-82.000000
0.290000	49.770000	73.310000	1023.000000	0.000000	162.000000	65.000000	-87.000000	-53.000000
0.300000	48.800000	73.230000	1023.000000	0.000000	162.000000	65.000000	-97.000000	-8.000000
0.310000	47.710000	73.480000	1023.000000	0.000000	162.000000	65.000000	-109.000000	25.000000
0.320000	46.700000	73.940000	1023.000000	0.000000	162.000000	65.000000	-101.000000	46.000000
0.330000	45.740000	74.640000	1023.000000	0.000000	162.000000	65.000000	-96.000000	70.000000
0.340000	45.080000	75.510000	1023.000000	0.000000	161.000000	64.000000	-66.000000	87.000000
0.350000	44.690000	76.500000	1023.000000	0.000000	159.000000	64.000000	-39.000000	99.000000
0.360000	44.470000	77.580000	1023.000000	0.000000	157.000000	63.000000	-22.000000	108.000000
0.370000	44.650000	78.740000	1023.000000	0.000000	157.000000	63.000000	18.000000	116.000000
0.380000	45.280000	79.950000	1023.000000	0.000000	155.000000	63.000000	63.000000	121.000000
0.390000	46.200000	81.170000	1023.000000	0.000000	155.000000	63.000000	92.000000	122.000000
0.400000	47.770000	82.320000	1023.000000	0.000000	155.000000	63.000000	157.000000	115.000000
0.410000	49.670000	83.380000	1023.000000	0.000000	157.000000	63.000000	190.000000	106.000000
0.420000	51.780000	84.350000	1023.000000	0.000000	157.000000	63.000000	211.000000	97.000000
0.430000	54.330000	85.250000	1023.000000	0.000000	159.000000	64.000000	255.000000	90.000000
0.440000	56.930000	86.050000	1023.000000	0.000000	160.000000	65.000000	260.000000	80.000000
0.450000	59.970000	86.590000	1023.000000	0.000000	162.000000	65.000000	304.000000	54.000000
0.460000	63.270000	86.950000	1023.000000	0.000000	167.000000	65.000000	330.000000	36.000000
0.470000	66.580000	87.250000	1023.000000	0.000000	168.000000	67.000000	331.000000	30.000000
0.480000	69.990000	87.510000	1023.000000	0.000000	171.000000	67.000000	341.000000	26.000000
0.490000	73.470000	87.510000	1023.000000	0.000000	173.000000	68.000000	348.000000	0.000000
0.500000	76.550000	87.360000	1023.000000	0.000000	175.000000	69.000000	308.000000	-15.000000
0.510000	79.170000	87.360000	1023.000000	0.000000	177.000000	69.000000	262.000000	0.000000
0.520000	81.480000	87.360000	1023.000000	0.000000	177.000000	70.000000	231.000000	0.000000
0.530000	83.140000	87.360000	1023.000000	0.000000	180.000000	71.000000	166.000000	0.000000
0.540000	84.110000	87.360000	1023.000000	0.000000	180.000000	72.000000	97.000000	0.000000
0.550000	84.610000	87.360000	1023.000000	0.000000	180.000000	72.000000	50.000000	0.000000
0.560000	84.830000	87.360000	1023.000000	0.000000	180.000000	73.000000	22.000000	0.000000
0.570000	84.960000	87.360000	1023.000000	0.000000	180.000000	73.000000	13.000000	0.000000
0.580000	85.030000	87.360000	1023.000000	0.000000	180.000000	74.000000	7.000000	0.000000
0.590000	85.030000	87.360000	1023.000000	0.000000	180.000000	74.000000	0.000000	0.000000
0.600000	85.030000	87.360000	1023.000000	0.000000	180.000000	74.000000	0.000000	0.000000
0.610000	84.860000	87.360000	719.000000	0.000000	180.000000	74.000000	-17.000000	0.000000
0.620000	84.860000	87.360000	0.000000	1.000000	180.000000	74.000000	0.000000	0.000000
0.630000	83.480000	87.220000	0.000000	0.000000	180.000000	74.000000	-138.000000	-14.000000
0.640000	81.860000	87.370000	0.000000	0.000000	180.000000	74.000000	-162.000000	15.000000
0.650000	79.890000	87.690000	0.000000	0.000000	180.000000	74.000000	-197.000000	32.000000
0.660000	77.570000	87.900000	0.000000	0.000000	180.000000	73.000000	-232.000000	21.000000
0.670000	75.670000	88.100000	0.000000	0.000000	177.000000	73.000000	-190.000000	20.000000
0.680000	74.040000	88.380000	0.000000	0.000000	177.000000	73.000000	-163.000000	28.000000
0.690000	72.610000	88.720000	0.000000	0.000000	177.000000	73.000000	-143.000000	34.000000
0.700000	71.170000	88.960000	0.000000	0.000000	177.000000	73.000000	-144.000000	24.000000
0.710000	69.700000	88.960000	0.000000	0.000000	177.000000	73.000000	-147.000000	0.000000
0.720000	67.260000	88.730000	0.000000	0.000000	177.000000	73.000000	-244.000000	-23.000000
0.730000	64.200000	87.760000	0.000000	0.000000	177.000000	73.000000	-306.000000	-97.000000
0.740000	61.970000	86.830000	0.000000	0.000000	171.000000	71.000000	-223.000000	-93.000000
0.750000	60.580000	85.930000	0.000000	0.000000	165.000000	68.000000	-139.000000	-90.000000
0.760000	59.750000	85.500000	0.000000	0.000000	157.000000	65.000000	-83.000000	-43.000000
0.770000	59.050000	85.190000	0.000000	0.000000	152.000000	62.000000	-70.000000	-31.000000
0.780000	58.700000	84.970000	0.000000	0.000000	148.000000	60.000000	-35.000000	-22.000000
0.790000	58.580000	85.140000	0.000000	0.000000	146.000000	60.000000	-12.000000	17.000000
0.800000	58.580000	85.290000	0.000000	0.000000	145.000000	59.000000	0.000000	15.000000
0.810000	58.500000	85.400000	0.000000	0.000000	140.000000	58.000000	-8.000000	11.000000
0.820000	58.290000	85.400000	0.000000	0.000000	136.000000	55.000000	-21.000000	0.000000
0.830000	58.080000	85.400000	0.000000	0.000000	130.000000	52.000000	-21.000000	0.000000
0.840000	57.890000	85.400000	0.000000	0.000000	127.000000	50.000000	-19.000000	0.000000
0.850000	57.720000	85.400000	0.000000	0.000000	127.000000	50.000000	-17.000000	0.000000
0.860000	57.560000	85.650000	0.000000	0.000000	130.000000	52.000000	-16.000000	25.000000
0.870000	57.420000	86.020000	0.000000	0.000000	136.000000	55.000000	-14.000000	37.000000
0.880000	57.290000	86.240000	0.000000	0.000000	142.000000	57.000000	-13.000000	22.000000
0.890000	57.170000	86.410000	0.000000	0.000000	149.000000	59.000000	-12.000000	17.000000
0.900000	57.090000	86.540000	0.000000	0.000000	157.000000	61.000000	-8.000000	13.000000
0.910000	57.030000	86.590000	0.000000	0.000000	165.000000	62.000000	-6.000000	5.000000
0.920000	57.030000	86.680000	0.000000	0.000000	172.000000	63.000000	0.000000	9.000000
0.930000	57.030000	86.810000	0.000000	0.000000	176.000000	64.000000	0.000000	13.000000
0.940000	57.100000	86.930000	0.000000	0.000000	180.000000	64.000000	7.000000	12.000000
0.950000	57.190000	87.060000	0.000000	0.000000	180.000000	64.000000	9.000000	13.000000
0.960000	57.290000	87.190000	0.000000	0.000000	180.000000	64.000000	10.000000	13.000000
0.970000	57.290000	87.300000	0.000000	0.000000	180.000000	64.000000	0.000000	11.000000
0.980000	57.290000	87.410000	0.000000	0.000000	180.000000	64.000000	0.000000	11.000000
0.990000	57.240000	87.500000	0.000000	0.000000	178.000000	64.000000	-5.000000	9.000000
1.000000	57.080000	87.560000	0.000000	0.000000	178.000000	64.000000	-16.000000	6.000000
1.010000	56.860000	87.560000	0.000000	0.000000	178.000000	64.000000	-22.000000	0.000000
1.020000	56.600000	87.640000	0.000000	0.000000	178.000000	64.000000	-26.000000	8.000000
1.030000	56.360000	87.640000	0.000000	0.000000	176.000000	64.000000	-24.000000	0.000000
1.040000	56.160000	87.640000	0.000000	0.000000	176.000000	64.000000	-20.000000	0.000000
1.050000	56.010000	87.640000	0.000000	0.000000	174.000000	64.000000	-15.000000	0.000000
1.060000	55.870000	87.640000	0.000000	0.000000	174.000000	64.000000	-14.000000	0.000000
1.070000	55.780000	87.700000	0.000000	0.000000	171.000000	65.000000	-9.000000	6.000000
1.080000	55.780000	87.700000	0.000000	0.000000	171.000000	65.000000	0.000000	0.000000
1.090000	55.780000	87.830000	0.000000	0.000000	169.000000	65.000000	0.000000	13.000000
1.100000	55.840000	87.950000	0.000000	0.000000	169.000000	65.000000	6.000000	12.000000
1.110000	55.840000	88.010000	0.000000	0.000000	169.000000	65.000000	0.000000	6.000000
1.120000	55.840000	88.120000	0.000000	0.000000	167.000000	64.000000	0.000000	11.000000
1.130000	55.890000	88.270000	0.000000	0.000000	167.000000	64.000000	5.000000	15.000000
1.140000	55.890000	88.390000	0.000000	0.000000	167.000000	64.000000	0.000000	12.000000
1.150000	55.890000	88.500000	0.000000	0.000000	167.000000	65.000000	0.000000	11.000000
1.160000	55.890000	88.590000	0.000000	0.000000	167.000000	65.000000	0.000000	9.000000
1.170000	55.890000	88.670000	0.000000	0.000000	167.000000	65.000000	0.000000	8.000000
1.180000	55.840000	88.720000	0.000000	0.000000	167.000000	65.000000	-5.000000	5.000000
1.190000	55.840000	88.720000	0.000000	0.000000	167.000000	65.000000	0.000000	0.000000
1.200000	55.770000	88.720000	0.000000	0.000000	167.000000	65.000000	-7.000000	0.000000
1.210000	55.770000	88.720000	0.000000	0.000000	167.000000	65.000000	0.000000	0.000000
1.220000	55.770000	88.720000	0.000000	0.000000	167.000000	65.000000	0.000000	0.000000
1.230000	55.770000	88.720000	0.000000	0.000000	167.000000	65.000000	0.000000	0.000000
1.240000	55.770000	88.720000	0.000000	0.000000	167.000000	65.000000	0.000000	0.000000
1.250000	55.840000	88.720000	0.000000	0.000000	167.000000	65.000000	7.000000	0.000000
1.260000	55.840000	88.720000	0.000000	0.000000	167.000000	65.000000	0.000000	0.000000
1.270000	55.840000	88.720000	0.000000	0.000000	167.000000	65.000000	0.000000	0.000000
1.280000	55.840000	88.620000	0.000000	0.000000	167.000000	65.000000	0.000000	-10.000000
1.290000	55.840000	88.620000	0.000000	0.000000	167.000000	65.000000	0.000000	0.000000
1.300000	55.840000	88.620000	0.000000	0.000000	167.000000	65.000000	0.000000	0.000000
1.310000	55.900000	88.620000	0.000000	0.000000	167.000000	65.000000	6.000000	0.000000
1.320000	55.900000	88.620000	0.000000	0.000000	164.000000	66.000000	0.000000	0.000000
1.330000	55.900000	88.620000	0.000000	0.000000	164.000000	66.000000	0.000000	0.000000
1.340000	55.900000	88.620000	0.000000	0.000000	164.000000	66.000000	0.000000	0.000000
1.350000	55.900000	88.620000	0.000000	0.000000	164.000000	66.000000	0.000000	0.000000
1.360000	55.900000	88.620000	0.000000	0.000000	164.000000	66.000000	0.000000	0.000000
1.370000	55.900000	88.620000	0.000000	0.000000	163.000000	67.000000	0.000000	0.000000
1.380000	55.960000	88.620000	0.000000	0.000000	163.000000	67.000000	6.000000	0.000000
1.390000	55.960000	88.540000	0.000000	0.000000	163.000000	67.000000	0.000000	-8.000000
1.400000	55.960000	88.540000	0.000000	0.000000	163.000000	67.000000	0.000000	0.000000
1.410000	55.960000	88.490000	0.000000	0.000000	163.000000	67.000000	0.000000	-5.000000
1.420000	55.910000	88.490000	0.000000	0.000000	163.000000	67.000000	-5.000000	0.000000
1.430000	55.910000	88.490000	0.000000	0.000000	163.000000	67.000000	0.000000	0.000000
1.440000	55.910000	88.490000	0.000000	0.000000	163.000000	67.000000	0.000000	0.000000
1.450000	55.860000	88.490000	0.000000	0.000000	163.000000	67.000000	-5.000000	0.000000
1.460000	55.790000	88.490000	0.000000	0.000000	163.000000	67.000000	-7.000000	0.000000
1.470000	55.660000	88.560000	0.000000	0.000000	163.000000	67.000000	-13.000000	7.000000
1.480000	55.660000	88.560000	0.000000	0.000000	163.000000	67.000000	0.000000	0.000000
1.490000	55.660000	88.610000	0.000000	0.000000	163.000000	67.000000	0.000000	5.000000
1.500000	55.660000	88.610000	0.000000	0.000000	163.000000	67.000000	0.000000	0.000000
1.510000	55.710000	88.610000	0.000000	0.000000	163.000000	67.000000	5.000000	0.000000
1.520000	55.760000	88.610000	0.000000	0.000000	163.000000	67.000000	5.000000	0.000000
1.530000	55.760000	88.610000	0.000000	0.000000	163.000000	67.000000	0.000000	0.000000
1.540000	55.760000	88.610000	0.000000	0.000000	163.000000	67.000000	0.000000	0.000000
1.550000	55.760000	88.560000	0.000000	0.000000	163.000000	67.000000	0.000000	-5.000000
1.560000	55.690000	88.510000	0.000000	0.000000	163.000000	67.000000	-7.000000	-5.000000
1.570000	55.690000	88.450000	0.000000	0.000000	163.000000	67.000000	0.000000	-6.000000
1.580000	55.690000	88.450000	90.000000	1.000000	163.000000	67.000000	0.000000	0.000000
1.590000	55.690000	88.450000	180.000000	0.000000	163.000000	67.000000	0.000000	0.000000
1.600000	55.690000	88.450000	305.000000	0.000000	163.000000	67.000000	0.000000	0.000000
1.610000	55.690000	88.450000	458.000000	0.000000	163.000000	67.000000	0.000000	0.000000
1.620000	55.690000	88.450000	560.000000	0.000000	163.000000	67.000000	0.000000	0.000000
1.630000	55.690000	88.450000	645.000000	0.000000	161.000000	67.000000	0.000000	0.000000
1.640000	55.690000	88.450000	694.000000	0.000000	161.000000	67.000000	0.000000	0.000000
1.650000	55.690000	88.450000	748.000000	0.000000	161.000000	67.000000	0.000000	0.000000
1.660000	55.690000	88.450000	777.000000	0.000000	161.000000	67.000000	0.000000	0.000000
1.670000	55.690000	88.450000	814.000000	0.000000	161.000000	67.000000	0.000000	0.000000
1.680000	55.690000	88.450000	839.000000	0.000000	161.000000	67.000000	0.000000	0.000000
1.690000	55.690000	88.450000	867.000000	0.000000	161.000000	67.000000	0.000000	0.000000
1.700000	55.690000	88.450000	892.000000	0.000000	162.000000	66.000000	0.000000	0.000000
1.710000	55.690000	88.450000	930.000000	0.000000	162.000000	66.000000	0.000000	0.000000
1.720000	55.690000	88.450000	938.000000	0.000000	162.000000	66.000000	0.000000	0.000000
1.730000	55.690000	88.450000	964.000000	0.000000	162.000000	66.000000	0.000000	0.000000
1.740000	55.690000	88.450000	976.000000	0.000000	162.000000	66.000000	0.000000	0.000000
1.750000	55.690000	88.450000	985.000000	0.000000	162.000000	66.000000	0.000000	0.000000
1.760000	55.690000	88.450000	989.000000	0.000000	162.000000	66.000000	0.000000	0.000000
1.770000	55.690000	88.450000	994.000000	0.000000	162.000000	66.000000	0.000000	0.000000
1.780000	55.690000	88.450000	995.000000	0.000000	162.000000	66.000000	0.000000	0.000000
1.790000	55.690000	88.450000	977.000000	0.000000	162.000000	66.000000	0.000000	0.000000
1.800000	55.690000	88.450000	979.000000	0.000000	162.000000	66.000000	0.000000	0.000000
1.810000	55.690000	88.450000	979.000000	0.000000	162.000000	66.000000	0.000000	0.000000
1.820000	55.690000	88.450000	984.000000	0.000000	162.000000	66.000000	0.000000	0.000000
1.830000	55.690000	88.450000	990.000000	0.000000	162.000000	66.000000	0.000000	0.000000
1.840000	55.690000	88.450000	996.000000	0.000000	162.000000	66.000000	0.000000	0.000000
1.850000	55.690000	88.450000	996.000000	0.000000	162.000000	66.000000	0.000000	0.000000
1.860000	55.690000	88.450000	996.000000	0.000000	162.000000	66.000000	0.000000	0.000000
1.870000	55.690000	88.450000	993.000000	0.000000	162.000000	66.000000	0.000000	0.000000
1.880000	55.690000	88.450000	988.000000	0.000000	162.000000	66.000000	0.000000	0.000000
1.890000	55.690000	88.450000	981.000000	0.000000	162.000000	66.000000	0.000000	0.000000
1.900000	55.690000	88.450000	978.000000	0.000000	162.000000	66.000000	0.000000	0.000000
1.910000	55.690000	88.450000	978.000000	0.000000	162.000000	66.000000	0.000000	0.000000
1.920000	55.690000	88.450000	977.000000	0.000000	162.000000	66.000000	0.000000	0.000000
1.930000	55.690000	88.450000	997.000000	0.000000	162.000000	66.000000	0.000000	0.000000
1.940000	55.690000	88.450000	977.000000	0.000000	162.000000	66.000000	0.000000	0.000000
1.950000	55.690000	88.450000	997.000000	0.000000	162.000000	66.000000	0.000000	0.000000
1.960000	55.690000	88.450000	995.000000	0.000000	162.000000	66.000000	0.000000	0.000000
1.970000	55.690000	88.450000	995.000000	0.000000	162.000000	66.000000	0.000000	0.000000
1.980000	55.690000	88.450000	997.000000	0.000000	162.000000	66.000000	0.000000	0.000000
1.990000	55.690000	88.450000	977.000000	0.000000	162.000000	66.000000	0.000000	0.000000
2.000000	55.690000	88.450000	979.000000	0.000000	162.000000	66.000000	0.000000	0.000000
2.010000	55.690000	88.450000	979.000000	0.000000	162.000000	66.000000	0.000000	0.000000
2.020000	55.690000	88.450000	981.000000	0.000000	162.000000	66.000000	0.000000	0.000000
2.030000	55.690000	88.590000	978.000000	0.000000	162.000000	66.000000	0.000000	14.000000
2.040000	55.690000	88.590000	997.000000	0.000000	162.000000	66.000000	0.000000	0.000000
2.050000	55.690000	88.590000	986.000000	0.000000	162.000000	66.000000	0.000000	0.000000
2.060000	55.690000	88.590000	977.000000	0.000000	162.000000	66.000000	0.000000	0.000000
2.070000	55.690000	88.590000	968.000000	0.000000	162.000000	66.000000	0.000000	0.000000
2.080000	55.690000	88.590000	965.000000	0.000000	162.000000	66.000000	0.000000	0.000000
2.090000	55.690000	88.590000	959.000000	0.000000	162.000000	66.000000	0.000000	0.000000
2.100000	55.690000	88.590000	949.000000	0.000000	162.000000	66.000000	0.000000	0.000000
2.110000	55.690000	88.590000	935.000000	0.000000	162.000000	66.000000	0.000000	0.000000
2.120000	55.690000	88.590000	933.000000	0.000000	162.000000	66.000000	0.000000	0.000000
2.130000	55.690000	88.590000	917.000000	0.000000	162.000000	66.000000	0.000000	0.000000
2.140000	55.690000	88.590000	906.000000	0.000000	162.000000	66.000000	0.000000	0.000000
2.150000	55.690000	88.540000	851.000000	0.000000	162.000000	66.000000	0.000000	-5.000000
2.160000	55.690000	88.540000	754.000000	0.000000	162.000000	66.000000	0.000000	0.000000
2.170000	55.690000	88.540000	599.000000	0.000000	162.000000	66.000000	0.000000	0.000000
2.180000	55.690000	88.540000	397.000000	0.000000	162.000000	66.000000	0.000000	0.000000
2.190000	55.690000	88.540000	212.000000	0.000000	162.000000	66.000000	0.000000	0.000000
2.200000	55.770000	88.540000	42.000000	0.000000	162.000000	66.000000	8.000000	0.000000
2.210000	55.770000	88.540000	0.000000	1.000000	162.000000	66.000000	0.000000	0.000000
2.220000	55.880000	88.620000	0.000000	0.000000	162.000000	66.000000	11.000000	8.000000
2.230000	55.880000	88.620000	0.000000	0.000000	162.000000	66.000000	0.000000	0.000000
