t	x	y	pressure	penup	azimuth	inclination	v_x	v_y
0.000000	46.850000	28.670000	53.000000	1.000000	125.000000	59.000000	0.000000	0.000000
0.010000	46.850000	28.670000	109.000000	0.000000	125.000000	59.000000	0.000000	0.000000
0.020000	46.850000	28.670000	137.000000	0.000000	125.000000	59.000000	0.000000	0.000000
0.030000	46.600000	28.980000	186.000000	0.000000	125.000000	59.000000	-25.000000	31.000000
0.040000	46.600000	29.120000	214.000000	0.000000	126.000000	58.000000	0.000000	14.000000
0.050000	46.600000	29.270000	219.000000	0.000000	126.000000	58.000000	0.000000	15.000000
0.060000	46.600000	29.460000	244.000000	0.000000	126.000000	58.000000	0.000000	19.000000
0.070000	46.770000	29.670000	244.000000	0.000000	126.000000	58.000000	17.000000	21.000000
0.080000	46.990000	29.900000	242.000000	0.000000	126.000000	58.000000	22.000000	23.000000
0.090000	47.250000	29.840000	257.000000	0.000000	127.000000	57.000000	26.000000	-6.000000
0.100000	47.530000	30.010000	280.000000	0.000000	127.000000	57.000000	28.000000	17.000000
0.110000	47.830000	30.330000	291.000000	0.000000	127.000000	57.000000	30.000000	32.000000
0.120000	48.140000	30.400000	309.000000	0.000000	127.000000	57.000000	31.000000	7.000000
0.130000	48.400000	30.460000	304.000000	0.000000	127.000000	57.000000	26.000000	6.000000
0.140000	48.710000	30.530000	304.000000	0.000000	127.000000	56.000000	31.000000	7.000000
0.150000	49.030000	30.450000	314.000000	0.000000	127.000000	56.000000	32.000000	-8.000000
0.160000	49.340000	30.260000	329.000000	0.000000	127.000000	56.000000	31.000000	-19.000000
0.170000	49.640000	29.980000	333.000000	0.000000	127.000000	56.000000	30.000000	-28.000000
0.180000	49.920000	29.690000	349.000000	0.000000	126.000000	56.000000	28.000000	-29.000000
0.190000	50.190000	29.290000	354.000000	0.000000	126.000000	56.000000	27.000000	-40.000000
0.200000	50.450000	28.830000	366.000000	0.000000	127.000000	56.000000	26.000000	-46.000000
0.210000	50.730000	28.330000	389.000000	0.000000	127.000000	56.000000	28.000000	-50.000000
0.220000	50.980000	27.800000	417.000000	0.000000	126.000000	57.000000	25.000000	-53.000000
0.230000	51.160000	27.210000	430.000000	0.000000	126.000000	57.000000	18.000000	-59.000000
0.240000	51.300000	26.620000	458.000000	0.000000	124.000000	57.000000	14.000000	-59.000000
0.250000	51.400000	26.060000	470.000000	0.000000	123.000000	58.000000	10.000000	-56.000000
0.260000	51.400000	25.510000	519.000000	0.000000	123.000000	59.000000	0.000000	-55.000000
0.270000	51.340000	25.040000	545.000000	0.000000	121.000000	59.000000	-6.000000	-47.000000
0.280000	51.340000	24.540000	561.000000	0.000000	119.000000	60.000000	0.000000	-50.000000
0.290000	51.170000	24.010000	591.000000	0.000000	119.000000	60.000000	-17.000000	-53.000000
0.300000	50.980000	23.410000	585.000000	0.000000	118.000000	60.000000	-19.000000	-60.000000
0.310000	50.830000	22.880000	594.000000	0.000000	118.000000	60.000000	-15.000000	-53.000000
0.320000	50.690000	22.410000	606.000000	0.000000	118.000000	60.000000	-14.000000	-47.000000
0.330000	50.530000	21.980000	613.000000	0.000000	118.000000	60.000000	-16.000000	-43.000000
0.340000	50.360000	21.650000	643.000000	0.000000	118.000000	60.000000	-17.000000	-33.000000
0.350000	50.150000	21.390000	672.000000	0.000000	119.000000	60.000000	-21.000000	-26.000000
0.360000	49.900000	21.160000	697.000000	0.000000	119.000000	60.000000	-25.000000	-23.000000
0.370000	49.610000	20.970000	725.000000	0.000000	119.000000	60.000000	-29.000000	-19.000000
0.380000	49.260000	20.810000	746.000000	0.000000	121.000000	59.000000	-35.000000	-16.000000
0.390000	49.030000	20.750000	756.000000	0.000000	121.000000	59.000000	-23.000000	-6.000000
0.400000	48.870000	20.750000	760.000000	0.000000	121.000000	59.000000	-16.000000	0.000000
0.410000	48.560000	20.750000	765.000000	0.000000	123.000000	59.000000	-31.000000	0.000000
0.420000	48.290000	20.750000	771.000000	0.000000	123.000000	59.000000	-27.000000	0.000000
0.430000	48.070000	20.850000	771.000000	0.000000	123.000000	59.000000	-22.000000	10.000000
0.440000	47.930000	20.960000	771.000000	0.000000	123.000000	59.000000	-14.000000	11.000000
0.450000	47.690000	21.200000	770.000000	0.000000	123.000000	59.000000	-24.000000	24.000000
0.460000	47.400000	21.530000	767.000000	0.000000	121.000000	59.000000	-29.000000	33.000000
0.470000	47.080000	21.910000	765.000000	0.000000	121.000000	59.000000	-32.000000	38.000000
0.480000	46.810000	22.290000	754.000000	0.000000	121.000000	59.000000	-27.000000	38.000000
0.490000	46.630000	22.670000	752.000000	0.000000	121.000000	59.000000	-18.000000	38.000000
0.500000	46.530000	23.040000	736.000000	0.000000	119.000000	60.000000	-10.000000	37.000000
0.510000	46.470000	23.420000	722.000000	0.000000	119.000000	60.000000	-6.000000	38.000000
0.520000	46.600000	23.830000	728.000000	0.000000	120.000000	60.000000	13.000000	41.000000
0.530000	46.850000	24.270000	719.000000	0.000000	119.000000	61.000000	25.000000	44.000000
0.540000	47.180000	24.720000	714.000000	0.000000	119.000000	61.000000	33.000000	45.000000
0.550000	47.530000	24.980000	710.000000	0.000000	119.000000	61.000000	35.000000	26.000000
0.560000	47.920000	25.210000	708.000000	0.000000	117.000000	61.000000	39.000000	23.000000
0.570000	48.240000	25.350000	710.000000	0.000000	116.000000	60.000000	32.000000	14.000000
0.580000	48.510000	25.410000	711.000000	0.000000	116.000000	60.000000	27.000000	6.000000
0.590000	48.730000	25.410000	710.000000	0.000000	116.000000	60.000000	22.000000	0.000000
0.600000	48.910000	25.320000	716.000000	0.000000	115.000000	60.000000	18.000000	-9.000000
0.610000	49.050000	25.200000	716.000000	0.000000	115.000000	60.000000	14.000000	-12.000000
0.620000	49.250000	25.040000	719.000000	0.000000	115.000000	60.000000	20.000000	-16.000000
0.630000	49.480000	24.840000	721.000000	0.000000	115.000000	60.000000	23.000000	-20.000000
0.640000	49.760000	24.590000	722.000000	0.000000	115.000000	60.000000	28.000000	-25.000000
0.650000	50.040000	24.320000	725.000000	0.000000	115.000000	60.000000	28.000000	-27.000000
0.660000	50.320000	24.090000	725.000000	0.000000	116.000000	60.000000	28.000000	-23.000000
0.670000	50.470000	23.900000	731.000000	0.000000	116.000000	60.000000	15.000000	-19.000000
0.680000	50.520000	23.740000	746.000000	0.000000	116.000000	60.000000	5.000000	-16.000000
0.690000	50.520000	23.500000	757.000000	0.000000	118.000000	60.000000	0.000000	-24.000000
0.700000	50.520000	23.210000	757.000000	0.000000	118.000000	60.000000	0.000000	-29.000000
0.710000	50.410000	22.820000	760.000000	0.000000	118.000000	60.000000	-11.000000	-39.000000
0.720000	50.410000	22.570000	768.000000	0.000000	119.000000	60.000000	0.000000	-25.000000
0.730000	50.410000	22.420000	777.000000	0.000000	119.000000	60.000000	0.000000	-15.000000
0.740000	50.510000	22.220000	773.000000	0.000000	119.000000	60.000000	10.000000	-20.000000
0.750000	50.620000	22.140000	777.000000	0.000000	121.000000	59.000000	11.000000	-8.000000
0.760000	50.690000	22.140000	776.000000	0.000000	122.000000	60.000000	7.000000	0.000000
0.770000	50.740000	22.140000	784.000000	0.000000	122.000000	60.000000	5.000000	0.000000
0.780000	50.790000	22.140000	794.000000	0.000000	122.000000	60.000000	5.000000	0.000000
0.790000	50.850000	22.140000	797.000000	0.000000	124.000000	60.000000	6.000000	0.000000
0.800000	50.920000	22.140000	783.000000	0.000000	124.000000	60.000000	7.000000	0.000000
0.810000	51.040000	22.260000	785.000000	0.000000	124.000000	60.000000	12.000000	12.000000
0.820000	51.270000	22.380000	790.000000	0.000000	124.000000	60.000000	23.000000	12.000000
0.830000	51.580000	22.530000	793.000000	0.000000	122.000000	60.000000	31.000000	15.000000
0.840000	52.080000	22.680000	794.000000	0.000000	122.000000	60.000000	50.000000	15.000000
0.850000	52.700000	22.860000	793.000000	0.000000	122.000000	60.000000	62.000000	18.000000
0.860000	53.490000	23.060000	797.000000	0.000000	123.000000	61.000000	79.000000	20.000000
0.870000	54.320000	23.250000	805.000000	0.000000	123.000000	61.000000	83.000000	19.000000
0.880000	55.230000	23.440000	817.000000	0.000000	123.000000	61.000000	91.000000	19.000000
0.890000	56.410000	23.620000	812.000000	0.000000	124.000000	62.000000	118.000000	18.000000
0.900000	57.770000	23.960000	817.000000	0.000000	124.000000	62.000000	136.000000	34.000000
0.910000	59.440000	24.420000	827.000000	0.000000	124.000000	62.000000	167.000000	46.000000
0.920000	61.420000	24.900000	818.000000	0.000000	124.000000	62.000000	198.000000	48.000000
0.930000	63.610000	25.360000	833.000000	0.000000	126.000000	62.000000	219.000000	46.000000
0.940000	65.890000	25.810000	854.000000	0.000000	126.000000	62.000000	228.000000	45.000000
0.950000	68.240000	26.240000	869.000000	0.000000	126.000000	62.000000	235.000000	43.000000
0.960000	70.630000	26.590000	897.000000	0.000000	126.000000	62.000000	239.000000	35.000000
0.970000	72.690000	26.980000	923.000000	0.000000	126.000000	62.000000	206.000000	39.000000
0.980000	74.480000	27.420000	948.000000	0.000000	127.000000	62.000000	179.000000	44.000000
0.990000	76.080000	27.870000	933.000000	0.000000	130.000000	62.000000	160.000000	45.000000
1.000000	77.210000	28.250000	933.000000	0.000000	130.000000	62.000000	113.000000	38.000000
1.010000	77.700000	28.410000	896.000000	0.000000	133.000000	62.000000	49.000000	16.000000
1.020000	77.770000	28.410000	717.000000	0.000000	135.000000	62.000000	7.000000	0.000000
1.030000	77.550000	28.360000	108.000000	0.000000	138.000000	61.000000	-22.000000	-5.000000
1.040000	77.550000	28.360000	0.000000	1.000000	138.000000	61.000000	0.000000	0.000000
1.050000	76.170000	27.170000	0.000000	0.000000	141.000000	61.000000	-138.000000	-119.000000
1.060000	75.350000	26.920000	0.000000	0.000000	141.000000	61.000000	-82.000000	-25.000000
1.070000	74.590000	26.810000	0.000000	0.000000	141.000000	61.000000	-76.000000	-11.000000
1.080000	73.880000	26.810000	0.000000	0.000000	141.000000	61.000000	-71.000000	0.000000
1.090000	72.930000	27.000000	0.000000	0.000000	139.000000	61.000000	-95.000000	19.000000
1.100000	71.950000	27.560000	0.000000	0.000000	139.000000	61.000000	-98.000000	56.000000
1.110000	70.960000	28.360000	0.000000	0.000000	139.000000	61.000000	-99.000000	80.000000
1.120000	69.800000	29.330000	0.000000	0.000000	139.000000	61.000000	-116.000000	97.000000
1.130000	68.390000	30.120000	0.000000	0.000000	139.000000	61.000000	-141.000000	79.000000
1.140000	66.820000	30.790000	0.000000	0.000000	139.000000	61.000000	-157.000000	67.000000
1.150000	65.470000	30.990000	0.000000	0.000000	139.000000	61.000000	-135.000000	20.000000
1.160000	64.180000	30.810000	0.000000	0.000000	139.000000	61.000000	-129.000000	-18.000000
1.170000	62.920000	30.370000	0.000000	0.000000	138.000000	60.000000	-126.000000	-44.000000
1.180000	61.320000	29.840000	0.000000	0.000000	132.000000	59.000000	-160.000000	-53.000000
1.190000	59.750000	29.560000	0.000000	0.000000	128.000000	57.000000	-157.000000	-28.000000
1.200000	58.460000	29.440000	0.000000	0.000000	123.000000	55.000000	-129.000000	-12.000000
1.210000	57.350000	29.640000	0.000000	0.000000	118.000000	53.000000	-111.000000	20.000000
1.220000	56.440000	29.880000	0.000000	0.000000	115.000000	50.000000	-91.000000	24.000000
1.230000	55.690000	30.150000	0.000000	0.000000	114.000000	50.000000	-75.000000	27.000000
1.240000	55.050000	30.230000	0.000000	0.000000	112.000000	49.000000	-64.000000	8.000000
1.250000	54.540000	30.070000	0.000000	0.000000	111.000000	49.000000	-51.000000	-16.000000
1.260000	53.990000	29.760000	0.000000	0.000000	111.000000	50.000000	-55.000000	-31.000000
1.270000	53.410000	29.190000	0.000000	0.000000	112.000000	52.000000	-58.000000	-57.000000
1.280000	52.740000	28.630000	0.000000	0.000000	112.000000	55.000000	-67.000000	-56.000000
1.290000	52.050000	28.090000	0.000000	0.000000	112.000000	56.000000	-69.000000	-54.000000
1.300000	51.350000	27.740000	0.000000	0.000000	111.000000	57.000000	-70.000000	-35.000000
1.310000	50.870000	27.490000	0.000000	0.000000	107.000000	57.000000	-48.000000	-25.000000
1.320000	50.420000	27.440000	0.000000	0.000000	103.000000	54.000000	-45.000000	-5.000000
1.330000	49.990000	27.440000	0.000000	0.000000	99.000000	53.000000	-43.000000	0.000000
1.340000	49.740000	27.550000	0.000000	0.000000	96.000000	51.000000	-25.000000	11.000000
1.350000	49.360000	27.470000	0.000000	0.000000	95.000000	50.000000	-38.000000	-8.000000
1.360000	48.900000	27.340000	0.000000	0.000000	96.000000	49.000000	-46.000000	-13.000000
1.370000	48.130000	27.150000	0.000000	0.000000	97.000000	48.000000	-77.000000	-19.000000
1.380000	47.440000	26.980000	0.000000	0.000000	100.000000	47.000000	-69.000000	-17.000000
1.390000	46.800000	27.050000	0.000000	0.000000	103.000000	47.000000	-64.000000	7.000000
1.400000	46.590000	27.270000	0.000000	0.000000	107.000000	48.000000	-21.000000	22.000000
1.410000	46.700000	27.510000	0.000000	0.000000	111.000000	49.000000	11.000000	24.000000
1.420000	47.030000	27.760000	0.000000	0.000000	113.000000	51.000000	33.000000	25.000000
1.430000	47.230000	28.020000	0.000000	0.000000	116.000000	52.000000	20.000000	26.000000
1.440000	47.480000	28.150000	0.000000	0.000000	117.000000	53.000000	25.000000	13.000000
1.450000	47.540000	28.280000	0.000000	0.000000	117.000000	54.000000	6.000000	13.000000
1.460000	47.450000	28.380000	0.000000	0.000000	115.000000	55.000000	-9.000000	10.000000
1.470000	47.240000	28.470000	0.000000	0.000000	113.000000	57.000000	-21.000000	9.000000
1.480000	47.050000	28.540000	0.000000	0.000000	111.000000	57.000000	-19.000000	7.000000
1.490000	46.900000	28.680000	0.000000	0.000000	109.000000	57.000000	-15.000000	14.000000
1.500000	46.810000	28.780000	0.000000	0.000000	109.000000	57.000000	-9.000000	10.000000
1.510000	46.810000	28.840000	0.000000	0.000000	110.000000	56.000000	0.000000	6.000000
1.520000	46.810000	28.840000	0.000000	0.000000	113.000000	57.000000	0.000000	0.000000
1.530000	46.810000	28.840000	0.000000	0.000000	114.000000	59.000000	0.000000	0.000000
1.540000	46.910000	28.840000	0.000000	0.000000	115.000000	60.000000	10.000000	0.000000
1.550000	46.960000	28.840000	0.000000	0.000000	118.000000	60.000000	5.000000	0.000000
1.560000	46.960000	28.840000	0.000000	0.000000	119.000000	61.000000	0.000000	0.000000
1.570000	47.020000	28.840000	0.000000	0.000000	120.000000	62.000000	6.000000	0.000000
1.580000	47.020000	28.770000	0.000000	0.000000	122.000000	61.000000	0.000000	-7.000000
1.590000	47.090000	28.860000	0.000000	0.000000	122.000000	61.000000	7.000000	9.000000
1.600000	47.090000	29.040000	0.000000	0.000000	122.000000	61.000000	0.000000	18.000000
1.610000	47.140000	29.100000	0.000000	0.000000	122.000000	61.000000	5.000000	6.000000
1.620000	47.140000	29.160000	0.000000	0.000000	123.000000	61.000000	0.000000	6.000000
1.630000	47.190000	29.210000	0.000000	0.000000	122.000000	60.000000	5.000000	5.000000
1.640000	47.190000	29.210000	0.000000	0.000000	122.000000	60.000000	0.000000	0.000000
1.650000	47.190000	29.270000	0.000000	0.000000	122.000000	60.000000	0.000000	6.000000
1.660000	47.260000	29.340000	0.000000	0.000000	124.000000	60.000000	7.000000	7.000000
1.670000	47.260000	29.450000	0.000000	0.000000	124.000000	60.000000	0.000000	11.000000
1.680000	47.260000	29.450000	0.000000	0.000000	123.000000	59.000000	0.000000	0.000000
1.690000	47.260000	29.520000	0.000000	0.000000	124.000000	58.000000	0.000000	7.000000
1.700000	47.130000	29.520000	0.000000	0.000000	123.000000	58.000000	-13.000000	0.000000
1.710000	47.060000	29.570000	0.000000	0.000000	123.000000	58.000000	-7.000000	5.000000
1.720000	47.060000	29.570000	0.000000	0.000000	123.000000	58.000000	0.000000	0.000000
1.730000	47.060000	29.620000	0.000000	0.000000	123.000000	58.000000	0.000000	5.000000
1.740000	47.060000	29.670000	0.000000	0.000000	123.000000	58.000000	0.000000	5.000000
1.750000	47.170000	29.760000	0.000000	0.000000	123.000000	58.000000	11.000000	9.000000
1.760000	47.270000	29.840000	0.000000	0.000000	123.000000	58.000000	10.000000	8.000000
1.770000	47.270000	29.840000	80.000000	1.000000	123.000000	58.000000	0.000000	0.000000
1.780000	47.270000	29.840000	173.000000	0.000000	124.000000	58.000000	0.000000	0.000000
1.790000	47.270000	29.840000	241.000000	0.000000	124.000000	58.000000	0.000000	0.000000
1.800000	47.270000	29.840000	309.000000	0.000000	124.000000	58.000000	0.000000	0.000000
1.810000	46.990000	29.840000	381.000000	0.000000	124.000000	58.000000	-28.000000	0.000000
1.820000	46.840000	29.660000	405.000000	0.000000	124.000000	58.000000	-15.000000	-18.000000
1.830000	46.840000	29.250000	433.000000	0.000000	124.000000	58.000000	0.000000	-41.000000
1.840000	46.840000	28.700000	466.000000	0.000000	124.000000	58.000000	0.000000	-55.000000
1.850000	46.900000	27.940000	473.000000	0.000000	124.000000	58.000000	6.000000	-76.000000
1.860000	46.970000	27.250000	494.000000	0.000000	123.000000	59.000000	7.000000	-69.000000
1.870000	46.970000	26.620000	512.000000	0.000000	123.000000	59.000000	0.000000	-63.000000
1.880000	47.190000	26.140000	519.000000	0.000000	120.000000	58.000000	22.000000	-48.000000
1.890000	47.380000	25.850000	473.000000	0.000000	118.000000	59.000000	19.000000	-29.000000
1.900000	47.610000	25.700000	223.000000	0.000000	117.000000	59.000000	23.000000	-15.000000
1.910000	47.610000	25.700000	0.000000	1.000000	115.000000	60.000000	0.000000	0.000000
1.920000	48.340000	25.930000	0.000000	0.000000	113.000000	60.000000	73.000000	23.000000
1.930000	48.390000	26.400000	0.000000	0.000000	111.000000	59.000000	5.000000	47.000000
1.940000	48.210000	27.310000	0.000000	0.000000	111.000000	59.000000	-18.000000	91.000000
1.950000	48.410000	28.140000	0.000000	0.000000	111.000000	59.000000	20.000000	83.000000
1.960000	49.000000	28.930000	0.000000	0.000000	111.000000	59.000000	59.000000	79.000000
1.970000	49.850000	29.500000	0.000000	0.000000	110.000000	58.000000	85.000000	57.000000
1.980000	50.830000	29.870000	0.000000	0.000000	110.000000	58.000000	98.000000	37.000000
1.990000	51.860000	30.110000	0.000000	0.000000	110.000000	58.000000	103.000000	24.000000
2.000000	52.940000	30.390000	0.000000	0.000000	110.000000	58.000000	108.000000	28.000000
2.010000	53.670000	30.650000	0.000000	0.000000	110.000000	58.000000	73.000000	26.000000
2.020000	54.170000	30.860000	0.000000	0.000000	110.000000	58.000000	50.000000	21.000000
2.030000	54.980000	30.980000	0.000000	0.000000	110.000000	58.000000	81.000000	12.000000
2.040000	55.280000	31.060000	0.000000	0.000000	110.000000	58.000000	30.000000	8.000000
2.050000	55.230000	30.770000	0.000000	0.000000	109.000000	57.000000	-5.000000	-29.000000
2.060000	55.230000	30.260000	0.000000	0.000000	107.000000	55.000000	0.000000	-51.000000
2.070000	55.180000	29.790000	0.000000	0.000000	106.000000	53.000000	-5.000000	-47.000000
2.080000	55.060000	29.450000	0.000000	0.000000	105.000000	51.000000	-12.000000	-34.000000
2.090000	54.970000	29.200000	0.000000	0.000000	107.000000	54.000000	-9.000000	-25.000000
2.100000	54.920000	28.910000	0.000000	0.000000	109.000000	57.000000	-5.000000	-29.000000
2.110000	54.920000	28.640000	0.000000	0.000000	112.000000	60.000000	0.000000	-27.000000
2.120000	55.060000	28.390000	0.000000	0.000000	116.000000	64.000000	14.000000	-25.000000
2.130000	55.310000	28.130000	0.000000	0.000000	116.000000	66.000000	25.000000	-26.000000
2.140000	55.640000	27.980000	0.000000	0.000000	117.000000	67.000000	33.000000	-15.000000
2.150000	56.020000	27.910000	0.000000	0.000000	115.000000	67.000000	38.000000	-7.000000
2.160000	56.380000	28.150000	0.000000	0.000000	115.000000	67.000000	36.000000	24.000000
2.170000	56.650000	28.380000	0.000000	0.000000	115.000000	67.000000	27.000000	23.000000
2.180000	56.870000	28.660000	0.000000	0.000000	109.000000	67.000000	22.000000	28.000000
2.190000	56.870000	28.970000	0.000000	0.000000	106.000000	66.000000	0.000000	31.000000
2.200000	56.800000	29.390000	0.000000	0.000000	103.000000	65.000000	-7.000000	42.000000
2.210000	56.640000	29.640000	0.000000	0.000000	103.000000	65.000000	-16.000000	25.000000
2.220000	56.560000	29.780000	0.000000	0.000000	108.000000	65.000000	-8.000000	14.000000
