t	x	y	pressure	penup	azimuth	inclination	v_x	v_y
0.000000	12.190000	16.250000	30.000000	1.000000	148.000000	51.000000	0.000000	0.000000
0.010000	12.190000	16.250000	80.000000	0.000000	147.000000	51.000000	0.000000	0.000000
0.020000	12.190000	16.250000	149.000000	0.000000	147.000000	51.000000	0.000000	0.000000
0.030000	11.900000	16.330000	171.000000	0.000000	147.000000	51.000000	-29.000000	8.000000
0.040000	11.780000	16.420000	247.000000	0.000000	144.000000	51.000000	-12.000000	9.000000
0.050000	11.650000	16.630000	297.000000	0.000000	144.000000	51.000000	-13.000000	21.000000
0.060000	11.520000	16.930000	345.000000	0.000000	141.000000	52.000000	-13.000000	30.000000
0.070000	11.380000	17.290000	359.000000	0.000000	139.000000	52.000000	-14.000000	36.000000
0.080000	11.270000	17.760000	381.000000	0.000000	135.000000	53.000000	-11.000000	47.000000
0.090000	11.190000	18.290000	402.000000	0.000000	133.000000	54.000000	-8.000000	53.000000
0.100000	11.280000	18.850000	422.000000	0.000000	129.000000	55.000000	9.000000	56.000000
0.110000	11.510000	19.340000	431.000000	0.000000	126.000000	56.000000	23.000000	49.000000
0.120000	11.830000	19.760000	431.000000	0.000000	123.000000	56.000000	32.000000	42.000000
0.130000	12.270000	20.050000	422.000000	0.000000	121.000000	56.000000	44.000000	29.000000
0.140000	12.750000	20.050000	414.000000	0.000000	121.000000	56.000000	48.000000	0.000000
0.150000	13.320000	19.920000	414.000000	0.000000	121.000000	56.000000	57.000000	-13.000000
0.160000	13.920000	19.440000	417.000000	0.000000	122.000000	57.000000	60.000000	-48.000000
0.170000	14.530000	18.500000	392.000000	0.000000	122.000000	57.000000	61.000000	-94.000000
0.180000	14.900000	17.250000	396.000000	0.000000	123.000000	58.000000	37.000000	-125.000000
0.190000	15.120000	15.710000	398.000000	0.000000	126.000000	58.000000	22.000000	-154.000000
0.200000	14.980000	14.460000	422.000000	0.000000	127.000000	59.000000	-14.000000	-125.000000
0.210000	14.590000	13.410000	465.000000	0.000000	128.000000	59.000000	-39.000000	-105.000000
0.220000	14.040000	12.540000	530.000000	0.000000	131.000000	60.000000	-55.000000	-87.000000
0.230000	13.300000	11.880000	569.000000	0.000000	131.000000	60.000000	-74.000000	-66.000000
0.240000	12.500000	11.350000	627.000000	0.000000	134.000000	60.000000	-80.000000	-53.000000
0.250000	11.670000	11.190000	647.000000	0.000000	134.000000	60.000000	-83.000000	-16.000000
0.260000	10.810000	11.280000	641.000000	0.000000	135.000000	59.000000	-86.000000	9.000000
0.270000	10.330000	11.540000	643.000000	0.000000	135.000000	59.000000	-48.000000	26.000000
0.280000	10.090000	11.930000	630.000000	0.000000	135.000000	58.000000	-24.000000	39.000000
0.290000	10.310000	12.550000	610.000000	0.000000	135.000000	58.000000	22.000000	62.000000
0.300000	10.970000	13.330000	554.000000	0.000000	134.000000	57.000000	66.000000	78.000000
0.310000	11.910000	13.990000	449.000000	0.000000	135.000000	57.000000	94.000000	66.000000
0.320000	12.770000	14.410000	186.000000	0.000000	135.000000	57.000000	86.000000	42.000000
0.330000	12.770000	14.410000	0.000000	1.000000	135.000000	57.000000	0.000000	0.000000
0.340000	14.280000	14.660000	0.000000	0.000000	135.000000	57.000000	151.000000	25.000000
0.350000	14.530000	14.660000	0.000000	0.000000	135.000000	57.000000	25.000000	0.000000
0.360000	14.530000	14.590000	0.000000	0.000000	136.000000	57.000000	0.000000	-7.000000
0.370000	14.410000	14.490000	0.000000	0.000000	139.000000	57.000000	-12.000000	-10.000000
0.380000	14.300000	14.320000	0.000000	0.000000	142.000000	57.000000	-11.000000	-17.000000
0.390000	14.210000	14.140000	0.000000	0.000000	143.000000	56.000000	-9.000000	-18.000000
0.400000	14.210000	13.940000	0.000000	0.000000	145.000000	56.000000	0.000000	-20.000000
0.410000	14.260000	13.770000	0.000000	0.000000	148.000000	56.000000	5.000000	-17.000000
0.420000	14.410000	13.700000	0.000000	0.000000	149.000000	55.000000	15.000000	-7.000000
0.430000	14.590000	13.700000	0.000000	0.000000	149.000000	55.000000	18.000000	0.000000
0.440000	14.750000	13.700000	0.000000	0.000000	149.000000	55.000000	16.000000	0.000000
0.450000	14.900000	13.900000	0.000000	0.000000	150.000000	55.000000	15.000000	20.000000
0.460000	15.040000	14.110000	0.000000	0.000000	150.000000	55.000000	14.000000	21.000000
0.470000	15.150000	14.290000	0.000000	0.000000	150.000000	55.000000	11.000000	18.000000
0.480000	15.240000	14.430000	0.000000	0.000000	152.000000	56.000000	9.000000	14.000000
0.490000	15.300000	14.430000	0.000000	0.000000	152.000000	56.000000	6.000000	0.000000
0.500000	15.300000	14.430000	0.000000	0.000000	153.000000	56.000000	0.000000	0.000000
0.510000	15.300000	14.340000	0.000000	0.000000	153.000000	56.000000	0.000000	-9.000000
0.520000	15.300000	14.280000	0.000000	0.000000	154.000000	56.000000	0.000000	-6.000000
0.530000	15.300000	14.280000	0.000000	0.000000	154.000000	56.000000	0.000000	0.000000
0.540000	15.300000	14.340000	0.000000	0.000000	154.000000	57.000000	0.000000	6.000000
0.550000	15.360000	14.440000	0.000000	0.000000	154.000000	57.000000	6.000000	10.000000
0.560000	15.460000	14.630000	0.000000	0.000000	153.000000	58.000000	10.000000	19.000000
0.570000	15.570000	14.890000	0.000000	0.000000	153.000000	58.000000	11.000000	26.000000
0.580000	15.680000	15.120000	0.000000	0.000000	152.000000	59.000000	11.000000	23.000000
0.590000	15.760000	15.360000	0.000000	0.000000	150.000000	58.000000	8.000000	24.000000
0.600000	15.820000	15.620000	0.000000	0.000000	150.000000	58.000000	6.000000	26.000000
0.610000	15.770000	15.750000	0.000000	0.000000	150.000000	58.000000	-5.000000	13.000000
0.620000	15.770000	15.880000	0.000000	0.000000	150.000000	58.000000	0.000000	13.000000
0.630000	15.770000	15.880000	15.000000	1.000000	149.000000	58.000000	0.000000	0.000000
0.640000	15.770000	15.880000	81.000000	0.000000	149.000000	58.000000	0.000000	0.000000
0.650000	15.770000	15.880000	141.000000	0.000000	147.000000	58.000000	0.000000	0.000000
0.660000	15.770000	15.880000	181.000000	0.000000	144.000000	58.000000	0.000000	0.000000
0.670000	15.770000	15.880000	254.000000	0.000000	143.000000	57.000000	0.000000	0.000000
0.680000	15.860000	15.340000	301.000000	0.000000	143.000000	57.000000	9.000000	-54.000000
0.690000	16.000000	14.960000	334.000000	0.000000	140.000000	58.000000	14.000000	-38.000000
0.700000	16.190000	14.440000	371.000000	0.000000	136.000000	57.000000	19.000000	-52.000000
0.710000	16.400000	13.970000	377.000000	0.000000	134.000000	57.000000	21.000000	-47.000000
0.720000	16.630000	13.540000	381.000000	0.000000	131.000000	57.000000	23.000000	-43.000000
0.730000	16.850000	13.150000	367.000000	0.000000	128.000000	57.000000	22.000000	-39.000000
0.740000	16.960000	12.870000	337.000000	0.000000	126.000000	57.000000	11.000000	-28.000000
0.750000	16.960000	12.670000	249.000000	0.000000	123.000000	56.000000	0.000000	-20.000000
0.760000	17.070000	12.570000	63.000000	0.000000	122.000000	57.000000	11.000000	-10.000000
0.770000	17.070000	12.570000	0.000000	1.000000	122.000000	57.000000	0.000000	0.000000
0.780000	16.950000	12.910000	0.000000	0.000000	120.000000	57.000000	-12.000000	34.000000
0.790000	16.780000	13.360000	0.000000	0.000000	120.000000	57.000000	-17.000000	45.000000
0.800000	16.480000	13.890000	0.000000	0.000000	120.000000	57.000000	-30.000000	53.000000
0.810000	16.100000	14.470000	0.000000	0.000000	123.000000	58.000000	-38.000000	58.000000
0.820000	15.830000	15.050000	0.000000	0.000000	126.000000	57.000000	-27.000000	58.000000
0.830000	15.590000	15.600000	0.000000	0.000000	128.000000	57.000000	-24.000000	55.000000
0.840000	15.390000	16.000000	0.000000	0.000000	132.000000	57.000000	-20.000000	40.000000
0.850000	15.250000	16.310000	0.000000	0.000000	136.000000	56.000000	-14.000000	31.000000
0.860000	15.150000	16.490000	0.000000	0.000000	138.000000	55.000000	-10.000000	18.000000
0.870000	15.150000	16.490000	170.000000	1.000000	140.000000	55.000000	0.000000	0.000000
0.880000	15.150000	16.490000	225.000000	0.000000	141.000000	56.000000	0.000000	0.000000
0.890000	14.890000	16.660000	202.000000	0.000000	140.000000	56.000000	-26.000000	17.000000
0.900000	14.890000	16.660000	158.000000	0.000000	140.000000	58.000000	0.000000	0.000000
0.910000	15.010000	16.560000	109.000000	0.000000	139.000000	58.000000	12.000000	-10.000000
0.920000	15.010000	16.560000	0.000000	1.000000	136.000000	58.000000	0.000000	0.000000
0.930000	15.460000	16.060000	0.000000	0.000000	136.000000	58.000000	45.000000	-50.000000
0.940000	15.790000	15.820000	0.000000	0.000000	135.000000	59.000000	33.000000	-24.000000
0.950000	16.110000	15.700000	0.000000	0.000000	135.000000	59.000000	32.000000	-12.000000
0.960000	16.390000	15.700000	0.000000	0.000000	135.000000	58.000000	28.000000	0.000000
0.970000	16.670000	15.700000	0.000000	0.000000	136.000000	56.000000	28.000000	0.000000
0.980000	16.830000	15.780000	0.000000	0.000000	136.000000	55.000000	16.000000	8.000000
0.990000	16.910000	15.860000	0.000000	0.000000	136.000000	54.000000	8.000000	8.000000
1.000000	16.910000	15.810000	0.000000	0.000000	136.000000	52.000000	0.000000	-5.000000
1.010000	16.910000	15.700000	0.000000	0.000000	136.000000	51.000000	0.000000	-11.000000
1.020000	16.860000	15.490000	0.000000	0.000000	135.000000	51.000000	-5.000000	-21.000000
1.030000	16.750000	15.170000	0.000000	0.000000	135.000000	51.000000	-11.000000	-32.000000
1.040000	16.750000	15.170000	41.000000	1.000000	134.000000	51.000000	0.000000	0.000000
1.050000	16.560000	14.400000	142.000000	0.000000	133.000000	52.000000	-19.000000	-77.000000
1.060000	16.500000	14.090000	191.000000	0.000000	131.000000	52.000000	-6.000000	-31.000000
1.070000	16.500000	13.830000	235.000000	0.000000	130.000000	53.000000	0.000000	-26.000000
1.080000	16.620000	13.530000	252.000000	0.000000	128.000000	54.000000	12.000000	-30.000000
1.090000	16.780000	13.350000	279.000000	0.000000	126.000000	54.000000	16.000000	-18.000000
1.100000	16.960000	13.260000	274.000000	0.000000	124.000000	55.000000	18.000000	-9.000000
1.110000	17.200000	13.320000	277.000000	0.000000	123.000000	56.000000	24.000000	6.000000
1.120000	17.500000	13.530000	281.000000	0.000000	122.000000	57.000000	30.000000	21.000000
1.130000	17.790000	13.840000	279.000000	0.000000	120.000000	57.000000	29.000000	31.000000
1.140000	17.990000	14.270000	274.000000	0.000000	121.000000	58.000000	20.000000	43.000000
1.150000	18.130000	14.660000	273.000000	0.000000	121.000000	58.000000	14.000000	39.000000
1.160000	18.200000	14.990000	273.000000	0.000000	121.000000	58.000000	7.000000	33.000000
1.170000	18.280000	15.210000	281.000000	0.000000	121.000000	58.000000	8.000000	22.000000
1.180000	18.280000	15.280000	292.000000	0.000000	121.000000	58.000000	0.000000	7.000000
1.190000	18.280000	15.280000	296.000000	0.000000	123.000000	58.000000	0.000000	0.000000
1.200000	18.230000	15.130000	299.000000	0.000000	123.000000	58.000000	-5.000000	-15.000000
1.210000	18.230000	14.970000	301.000000	0.000000	123.000000	58.000000	0.000000	-16.000000
1.220000	18.320000	14.690000	309.000000	0.000000	124.000000	57.000000	9.000000	-28.000000
1.230000	18.470000	14.430000	304.000000	0.000000	124.000000	57.000000	15.000000	-26.000000
1.240000	18.650000	14.190000	309.000000	0.000000	123.000000	58.000000	18.000000	-24.000000
1.250000	18.940000	14.100000	314.000000	0.000000	123.000000	58.000000	29.000000	-9.000000
1.260000	19.230000	14.100000	314.000000	0.000000	121.000000	58.000000	29.000000	0.000000
1.270000	19.540000	14.100000	305.000000	0.000000	121.000000	58.000000	31.000000	0.000000
1.280000	19.870000	14.400000	305.000000	0.000000	119.000000	58.000000	33.000000	30.000000
1.290000	20.210000	14.720000	304.000000	0.000000	119.000000	58.000000	34.000000	32.000000
1.300000	20.470000	15.070000	307.000000	0.000000	119.000000	58.000000	26.000000	35.000000
1.310000	20.610000	15.350000	309.000000	0.000000	119.000000	58.000000	14.000000	28.000000
1.320000	20.680000	15.600000	319.000000	0.000000	119.000000	58.000000	7.000000	25.000000
1.330000	20.680000	15.780000	337.000000	0.000000	118.000000	57.000000	0.000000	18.000000
1.340000	20.610000	15.880000	338.000000	0.000000	118.000000	57.000000	-7.000000	10.000000
1.350000	20.490000	15.880000	341.000000	0.000000	119.000000	56.000000	-12.000000	0.000000
1.360000	20.420000	15.880000	341.000000	0.000000	119.000000	56.000000	-7.000000	0.000000
1.370000	20.340000	15.830000	343.000000	0.000000	121.000000	56.000000	-8.000000	-5.000000
1.380000	20.260000	15.700000	343.000000	0.000000	121.000000	56.000000	-8.000000	-13.000000
1.390000	20.190000	15.530000	338.000000	0.000000	120.000000	55.000000	-7.000000	-17.000000
1.400000	20.250000	15.360000	345.000000	0.000000	121.000000	55.000000	6.000000	-17.000000
1.410000	20.330000	15.220000	337.000000	0.000000	120.000000	55.000000	8.000000	-14.000000
1.420000	20.460000	15.100000	319.000000	0.000000	120.000000	55.000000	13.000000	-12.000000
1.430000	20.660000	15.100000	319.000000	0.000000	120.000000	55.000000	20.000000	0.000000
1.440000	20.920000	15.180000	317.000000	0.000000	118.000000	56.000000	26.000000	8.000000
1.450000	21.200000	15.310000	305.000000	0.000000	118.000000	56.000000	28.000000	13.000000
1.460000	21.480000	15.530000	302.000000	0.000000	118.000000	56.000000	28.000000	22.000000
1.470000	21.680000	15.750000	273.000000	0.000000	118.000000	56.000000	20.000000	22.000000
1.480000	21.850000	15.940000	279.000000	0.000000	118.000000	56.000000	17.000000	19.000000
1.490000	21.930000	16.120000	270.000000	0.000000	118.000000	56.000000	8.000000	18.000000
1.500000	21.930000	16.280000	275.000000	0.000000	118.000000	56.000000	0.000000	16.000000
1.510000	21.930000	16.450000	267.000000	0.000000	118.000000	56.000000	0.000000	17.000000
1.520000	21.930000	16.620000	274.000000	0.000000	118.000000	56.000000	0.000000	17.000000
1.530000	21.850000	16.800000	281.000000	0.000000	117.000000	56.000000	-8.000000	18.000000
1.540000	21.720000	16.870000	282.000000	0.000000	116.000000	56.000000	-13.000000	7.000000
1.550000	21.560000	16.930000	307.000000	0.000000	115.000000	58.000000	-16.000000	6.000000
1.560000	21.380000	16.830000	315.000000	0.000000	113.000000	58.000000	-18.000000	-10.000000
1.570000	21.190000	16.630000	335.000000	0.000000	112.000000	58.000000	-19.000000	-20.000000
1.580000	21.010000	16.330000	363.000000	0.000000	112.000000	58.000000	-18.000000	-30.000000
1.590000	20.860000	16.030000	381.000000	0.000000	111.000000	57.000000	-15.000000	-30.000000
1.600000	20.750000	15.730000	405.000000	0.000000	111.000000	57.000000	-11.000000	-30.000000
1.610000	20.750000	15.540000	418.000000	0.000000	113.000000	57.000000	0.000000	-19.000000
1.620000	20.900000	15.410000	440.000000	0.000000	114.000000	57.000000	15.000000	-13.000000
1.630000	21.120000	15.210000	448.000000	0.000000	116.000000	56.000000	22.000000	-20.000000
1.640000	21.320000	15.210000	461.000000	0.000000	117.000000	56.000000	20.000000	0.000000
1.650000	21.580000	15.210000	460.000000	0.000000	117.000000	56.000000	26.000000	0.000000
1.660000	21.930000	15.430000	455.000000	0.000000	117.000000	56.000000	35.000000	22.000000
1.670000	22.280000	15.750000	440.000000	0.000000	117.000000	56.000000	35.000000	32.000000
1.680000	22.550000	16.150000	438.000000	0.000000	116.000000	56.000000	27.000000	40.000000
1.690000	22.770000	16.480000	413.000000	0.000000	116.000000	57.000000	22.000000	33.000000
1.700000	22.920000	16.810000	400.000000	0.000000	115.000000	58.000000	15.000000	33.000000
1.710000	22.970000	16.980000	413.000000	0.000000	115.000000	58.000000	5.000000	17.000000
1.720000	22.970000	17.040000	423.000000	0.000000	113.000000	58.000000	0.000000	6.000000
1.730000	22.870000	16.990000	420.000000	0.000000	112.000000	58.000000	-10.000000	-5.000000
1.740000	22.780000	16.880000	433.000000	0.000000	110.000000	58.000000	-9.000000	-11.000000
1.750000	22.680000	16.700000	441.000000	0.000000	110.000000	58.000000	-10.000000	-18.000000
1.760000	22.740000	16.500000	443.000000	0.000000	109.000000	59.000000	6.000000	-20.000000
1.770000	22.820000	16.300000	444.000000	0.000000	110.000000	58.000000	8.000000	-20.000000
1.780000	22.950000	16.120000	448.000000	0.000000	110.000000	58.000000	13.000000	-18.000000
1.790000	23.110000	16.050000	444.000000	0.000000	112.000000	58.000000	16.000000	-7.000000
1.800000	23.350000	16.050000	440.000000	0.000000	113.000000	58.000000	24.000000	0.000000
1.810000	23.650000	16.220000	435.000000	0.000000	115.000000	58.000000	30.000000	17.000000
1.820000	23.940000	16.460000	418.000000	0.000000	115.000000	58.000000	29.000000	24.000000
1.830000	24.170000	16.750000	415.000000	0.000000	115.000000	58.000000	23.000000	29.000000
1.840000	24.310000	17.020000	420.000000	0.000000	115.000000	58.000000	14.000000	27.000000
1.850000	24.410000	17.240000	428.000000	0.000000	113.000000	58.000000	10.000000	22.000000
1.860000	24.410000	17.370000	465.000000	0.000000	112.000000	58.000000	0.000000	13.000000
1.870000	24.410000	17.370000	481.000000	0.000000	110.000000	58.000000	0.000000	0.000000
1.880000	24.410000	17.370000	485.000000	0.000000	110.000000	58.000000	0.000000	0.000000
1.890000	24.460000	17.270000	491.000000	0.000000	109.000000	59.000000	5.000000	-10.000000
1.900000	24.460000	17.270000	491.000000	0.000000	109.000000	59.000000	0.000000	0.000000
1.910000	24.460000	17.270000	520.000000	0.000000	109.000000	59.000000	0.000000	0.000000
1.920000	24.900000	17.010000	527.000000	0.000000	109.000000	59.000000	44.000000	-26.000000
1.930000	25.210000	16.930000	526.000000	0.000000	107.000000	59.000000	31.000000	-8.000000
1.940000	25.570000	16.930000	516.000000	0.000000	107.000000	59.000000	36.000000	0.000000
1.950000	25.820000	17.050000	488.000000	0.000000	107.000000	59.000000	25.000000	12.000000
1.960000	26.000000	17.170000	445.000000	0.000000	107.000000	59.000000	18.000000	12.000000
1.970000	26.130000	17.270000	398.000000	0.000000	107.000000	59.000000	13.000000	10.000000
1.980000	26.200000	17.330000	273.000000	0.000000	108.000000	60.000000	7.000000	6.000000
1.990000	26.200000	17.330000	48.000000	0.000000	108.000000	60.000000	0.000000	0.000000
2.000000	26.200000	17.330000	0.000000	1.000000	108.000000	60.000000	0.000000	0.000000
2.010000	26.350000	17.450000	0.000000	0.000000	108.000000	60.000000	15.000000	12.000000
2.020000	26.430000	17.620000	0.000000	0.000000	108.000000	60.000000	8.000000	17.000000
2.030000	26.500000	17.830000	0.000000	0.000000	108.000000	60.000000	7.000000	21.000000
2.040000	26.550000	18.050000	0.000000	0.000000	108.000000	60.000000	5.000000	22.000000
2.050000	26.550000	18.290000	0.000000	0.000000	108.000000	60.000000	0.000000	24.000000
2.060000	26.550000	18.370000	0.000000	0.000000	108.000000	60.000000	0.000000	8.000000
2.070000	26.490000	18.370000	0.000000	0.000000	107.000000	59.000000	-6.000000	0.000000
2.080000	26.320000	18.370000	0.000000	0.000000	107.000000	59.000000	-17.000000	0.000000
2.090000	26.170000	18.270000	0.000000	0.000000	107.000000	59.000000	-15.000000	-10.000000
2.100000	26.170000	18.270000	356.000000	1.000000	106.000000	58.000000	0.000000	0.000000
2.110000	25.890000	18.180000	420.000000	0.000000	107.000000	59.000000	-28.000000	-9.000000
2.120000	25.730000	18.300000	453.000000	0.000000	107.000000	59.000000	-16.000000	12.000000
2.130000	25.790000	18.350000	477.000000	0.000000	107.000000	59.000000	6.000000	5.000000
2.140000	25.890000	18.480000	498.000000	0.000000	109.000000	60.000000	10.000000	13.000000
2.150000	26.250000	18.670000	494.000000	0.000000	109.000000	60.000000	36.000000	19.000000
2.160000	26.770000	18.810000	492.000000	0.000000	109.000000	60.000000	52.000000	14.000000
2.170000	27.250000	18.940000	485.000000	0.000000	111.000000	59.000000	48.000000	13.000000
2.180000	27.550000	18.890000	475.000000	0.000000	111.000000	59.000000	30.000000	-5.000000
2.190000	27.720000	18.740000	483.000000	0.000000	110.000000	58.000000	17.000000	-15.000000
2.200000	27.720000	18.400000	516.000000	0.000000	110.000000	58.000000	0.000000	-34.000000
2.210000	27.720000	18.050000	554.000000	0.000000	109.000000	57.000000	0.000000	-35.000000
2.220000	27.560000	17.650000	575.000000	0.000000	109.000000	57.000000	-16.000000	-40.000000
