t	x	y	pressure	penup	azimuth	inclination	v_x	v_y
0.000000	46.630000	79.300000	108.000000	1.000000	130.000000	62.000000	0.000000	0.000000
0.010000	46.630000	79.300000	184.000000	0.000000	130.000000	62.000000	0.000000	0.000000
0.020000	46.630000	79.300000	274.000000	0.000000	130.000000	62.000000	0.000000	0.000000
0.030000	46.630000	79.300000	344.000000	0.000000	130.000000	62.000000	0.000000	0.000000
0.040000	46.630000	79.300000	367.000000	0.000000	131.000000	61.000000	0.000000	0.000000
0.050000	46.290000	79.500000	423.000000	0.000000	131.000000	61.000000	-34.000000	20.000000
0.060000	46.190000	79.670000	450.000000	0.000000	131.000000	61.000000	-10.000000	17.000000
0.070000	46.120000	79.860000	481.000000	0.000000	131.000000	61.000000	-7.000000	19.000000
0.080000	46.060000	80.060000	489.000000	0.000000	131.000000	61.000000	-6.000000	20.000000
0.090000	46.060000	80.410000	497.000000	0.000000	132.000000	60.000000	0.000000	35.000000
0.100000	46.060000	80.820000	510.000000	0.000000	132.000000	60.000000	0.000000	41.000000
0.110000	46.060000	81.260000	512.000000	0.000000	131.000000	60.000000	0.000000	44.000000
0.120000	46.060000	81.720000	519.000000	0.000000	132.000000	59.000000	0.000000	46.000000
0.130000	46.160000	82.170000	512.000000	0.000000	134.000000	60.000000	10.000000	45.000000
0.140000	46.330000	82.590000	519.000000	0.000000	134.000000	60.000000	17.000000	42.000000
0.150000	46.580000	83.010000	526.000000	0.000000	135.000000	59.000000	25.000000	42.000000
0.160000	46.900000	83.450000	527.000000	0.000000	135.000000	59.000000	32.000000	44.000000
0.170000	47.270000	83.900000	530.000000	0.000000	136.000000	60.000000	37.000000	45.000000
0.180000	47.630000	84.130000	538.000000	0.000000	138.000000	59.000000	36.000000	23.000000
0.190000	47.970000	84.700000	537.000000	0.000000	138.000000	59.000000	34.000000	57.000000
0.200000	48.190000	84.990000	546.000000	0.000000	139.000000	60.000000	22.000000	29.000000
0.210000	48.430000	84.990000	557.000000	0.000000	139.000000	60.000000	24.000000	0.000000
0.220000	48.700000	85.080000	564.000000	0.000000	139.000000	60.000000	27.000000	9.000000
0.230000	49.010000	85.130000	560.000000	0.000000	141.000000	60.000000	31.000000	5.000000
0.240000	49.320000	85.130000	569.000000	0.000000	141.000000	60.000000	31.000000	0.000000
0.250000	49.630000	85.050000	578.000000	0.000000	142.000000	61.000000	31.000000	-8.000000
0.260000	49.960000	84.950000	589.000000	0.000000	142.000000	61.000000	33.000000	-10.000000
0.270000	50.290000	84.800000	595.000000	0.000000	142.000000	61.000000	33.000000	-15.000000
0.280000	50.600000	84.630000	603.000000	0.000000	142.000000	61.000000	31.000000	-17.000000
0.290000	50.890000	84.450000	617.000000	0.000000	142.000000	61.000000	29.000000	-18.000000
0.300000	51.100000	84.250000	617.000000	0.000000	144.000000	60.000000	21.000000	-20.000000
0.310000	51.260000	84.000000	627.000000	0.000000	144.000000	60.000000	16.000000	-25.000000
0.320000	51.380000	83.680000	637.000000	0.000000	144.000000	60.000000	12.000000	-32.000000
0.330000	51.430000	83.280000	644.000000	0.000000	144.000000	60.000000	5.000000	-40.000000
0.340000	51.430000	82.720000	655.000000	0.000000	142.000000	59.000000	0.000000	-56.000000
0.350000	51.430000	82.060000	662.000000	0.000000	142.000000	59.000000	0.000000	-66.000000
0.360000	51.500000	81.360000	673.000000	0.000000	141.000000	60.000000	7.000000	-70.000000
0.370000	51.620000	80.660000	682.000000	0.000000	141.000000	60.000000	12.000000	-70.000000
0.380000	51.750000	79.940000	696.000000	0.000000	141.000000	60.000000	13.000000	-72.000000
0.390000	51.870000	79.270000	725.000000	0.000000	139.000000	61.000000	12.000000	-67.000000
0.400000	51.960000	78.640000	728.000000	0.000000	139.000000	61.000000	9.000000	-63.000000
0.410000	51.960000	78.010000	758.000000	0.000000	139.000000	61.000000	0.000000	-63.000000
0.420000	51.960000	77.460000	770.000000	0.000000	138.000000	61.000000	0.000000	-55.000000
0.430000	51.840000	76.970000	787.000000	0.000000	138.000000	61.000000	-12.000000	-49.000000
0.440000	51.750000	76.440000	790.000000	0.000000	138.000000	61.000000	-9.000000	-53.000000
0.450000	51.660000	75.980000	806.000000	0.000000	138.000000	61.000000	-9.000000	-46.000000
0.460000	51.540000	75.630000	826.000000	0.000000	138.000000	61.000000	-12.000000	-35.000000
0.470000	51.420000	75.320000	836.000000	0.000000	138.000000	61.000000	-12.000000	-31.000000
0.480000	51.320000	75.170000	860.000000	0.000000	138.000000	61.000000	-10.000000	-15.000000
0.490000	51.320000	75.110000	861.000000	0.000000	138.000000	61.000000	0.000000	-6.000000
0.500000	51.190000	75.110000	869.000000	0.000000	138.000000	61.000000	-13.000000	0.000000
0.510000	51.050000	75.110000	866.000000	0.000000	138.000000	61.000000	-14.000000	0.000000
0.520000	50.890000	75.050000	869.000000	0.000000	138.000000	61.000000	-16.000000	-6.000000
0.530000	50.710000	74.960000	867.000000	0.000000	138.000000	61.000000	-18.000000	-9.000000
0.540000	50.500000	74.830000	869.000000	0.000000	138.000000	61.000000	-21.000000	-13.000000
0.550000	50.260000	74.700000	872.000000	0.000000	138.000000	61.000000	-24.000000	-13.000000
0.560000	50.020000	74.550000	870.000000	0.000000	138.000000	61.000000	-24.000000	-15.000000
0.570000	49.780000	74.550000	869.000000	0.000000	138.000000	61.000000	-24.000000	0.000000
0.580000	49.520000	74.550000	875.000000	0.000000	140.000000	62.000000	-26.000000	0.000000
0.590000	49.310000	74.660000	872.000000	0.000000	140.000000	62.000000	-21.000000	11.000000
0.600000	49.160000	74.790000	872.000000	0.000000	140.000000	62.000000	-15.000000	13.000000
0.610000	48.990000	74.960000	878.000000	0.000000	140.000000	62.000000	-17.000000	17.000000
0.620000	48.820000	75.140000	873.000000	0.000000	140.000000	62.000000	-17.000000	18.000000
0.630000	48.670000	75.340000	878.000000	0.000000	140.000000	62.000000	-15.000000	20.000000
0.640000	48.530000	75.530000	876.000000	0.000000	140.000000	62.000000	-14.000000	19.000000
0.650000	48.390000	75.720000	873.000000	0.000000	140.000000	62.000000	-14.000000	19.000000
0.660000	48.250000	75.910000	872.000000	0.000000	138.000000	63.000000	-14.000000	19.000000
0.670000	48.130000	76.130000	869.000000	0.000000	137.000000	62.000000	-12.000000	22.000000
0.680000	48.020000	76.360000	866.000000	0.000000	137.000000	62.000000	-11.000000	23.000000
0.690000	47.930000	76.610000	857.000000	0.000000	137.000000	62.000000	-9.000000	25.000000
0.700000	47.880000	76.890000	860.000000	0.000000	135.000000	62.000000	-5.000000	28.000000
0.710000	47.880000	77.180000	851.000000	0.000000	135.000000	62.000000	0.000000	29.000000
0.720000	47.880000	77.470000	840.000000	0.000000	135.000000	62.000000	0.000000	29.000000
0.730000	47.880000	77.670000	834.000000	0.000000	134.000000	61.000000	0.000000	20.000000
0.740000	47.880000	77.820000	834.000000	0.000000	134.000000	61.000000	0.000000	15.000000
0.750000	47.880000	77.910000	834.000000	0.000000	134.000000	61.000000	0.000000	9.000000
0.760000	47.880000	78.000000	834.000000	0.000000	134.000000	61.000000	0.000000	9.000000
0.770000	47.880000	78.110000	834.000000	0.000000	134.000000	61.000000	0.000000	11.000000
0.780000	47.950000	78.220000	830.000000	0.000000	134.000000	61.000000	7.000000	11.000000
0.790000	48.010000	78.420000	830.000000	0.000000	134.000000	61.000000	6.000000	20.000000
0.800000	48.110000	78.600000	827.000000	0.000000	134.000000	61.000000	10.000000	18.000000
0.810000	48.230000	78.780000	825.000000	0.000000	136.000000	61.000000	12.000000	18.000000
0.820000	48.380000	78.920000	824.000000	0.000000	136.000000	61.000000	15.000000	14.000000
0.830000	48.510000	78.980000	819.000000	0.000000	136.000000	61.000000	13.000000	6.000000
0.840000	48.560000	78.980000	822.000000	0.000000	139.000000	61.000000	5.000000	0.000000
0.850000	48.560000	78.980000	825.000000	0.000000	139.000000	61.000000	0.000000	0.000000
0.860000	48.560000	78.980000	830.000000	0.000000	139.000000	61.000000	0.000000	0.000000
0.870000	48.560000	78.980000	831.000000	0.000000	141.000000	60.000000	0.000000	0.000000
0.880000	48.560000	78.980000	833.000000	0.000000	142.000000	61.000000	0.000000	0.000000
0.890000	48.560000	78.980000	836.000000	0.000000	142.000000	61.000000	0.000000	0.000000
0.900000	48.560000	78.980000	836.000000	0.000000	142.000000	61.000000	0.000000	0.000000
0.910000	48.890000	78.790000	837.000000	0.000000	142.000000	61.000000	33.000000	-19.000000
0.920000	49.010000	78.710000	837.000000	0.000000	142.000000	61.000000	12.000000	-8.000000
0.930000	49.090000	78.630000	842.000000	0.000000	142.000000	61.000000	8.000000	-8.000000
0.940000	49.150000	78.540000	842.000000	0.000000	142.000000	61.000000	6.000000	-9.000000
0.950000	49.150000	78.540000	843.000000	0.000000	142.000000	61.000000	0.000000	0.000000
0.960000	49.200000	78.540000	843.000000	0.000000	142.000000	61.000000	5.000000	0.000000
0.970000	49.200000	78.540000	843.000000	0.000000	142.000000	61.000000	0.000000	0.000000
0.980000	49.200000	78.540000	845.000000	0.000000	142.000000	61.000000	0.000000	0.000000
0.990000	49.200000	78.480000	846.000000	0.000000	142.000000	61.000000	0.000000	-6.000000
1.000000	49.200000	78.480000	851.000000	0.000000	142.000000	61.000000	0.000000	0.000000
1.010000	49.200000	78.480000	855.000000	0.000000	142.000000	61.000000	0.000000	0.000000
1.020000	49.200000	78.480000	858.000000	0.000000	142.000000	61.000000	0.000000	0.000000
1.030000	49.250000	78.480000	861.000000	0.000000	142.000000	61.000000	5.000000	0.000000
1.040000	49.250000	78.430000	864.000000	0.000000	142.000000	61.000000	0.000000	-5.000000
1.050000	49.250000	78.430000	853.000000	0.000000	142.000000	61.000000	0.000000	0.000000
1.060000	49.250000	78.430000	860.000000	0.000000	142.000000	61.000000	0.000000	0.000000
1.070000	49.250000	78.430000	870.000000	0.000000	142.000000	61.000000	0.000000	0.000000
1.080000	49.250000	78.430000	882.000000	0.000000	142.000000	61.000000	0.000000	0.000000
1.090000	49.250000	78.430000	896.000000	0.000000	142.000000	61.000000	0.000000	0.000000
1.100000	49.250000	78.430000	894.000000	0.000000	142.000000	61.000000	0.000000	0.000000
1.110000	49.250000	78.430000	918.000000	0.000000	142.000000	61.000000	0.000000	0.000000
1.120000	49.250000	78.430000	938.000000	0.000000	142.000000	61.000000	0.000000	0.000000
1.130000	49.250000	78.430000	935.000000	0.000000	142.000000	61.000000	0.000000	0.000000
1.140000	49.250000	78.430000	950.000000	0.000000	142.000000	61.000000	0.000000	0.000000
1.150000	49.250000	78.430000	974.000000	0.000000	142.000000	61.000000	0.000000	0.000000
1.160000	49.250000	78.430000	983.000000	0.000000	142.000000	61.000000	0.000000	0.000000
1.170000	49.250000	78.430000	995.000000	0.000000	142.000000	61.000000	0.000000	0.000000
1.180000	49.250000	78.430000	981.000000	0.000000	142.000000	61.000000	0.000000	0.000000
1.190000	49.250000	78.430000	982.000000	0.000000	142.000000	61.000000	0.000000	0.000000
1.200000	49.250000	78.430000	982.000000	0.000000	142.000000	61.000000	0.000000	0.000000
1.210000	49.250000	78.430000	987.000000	0.000000	142.000000	61.000000	0.000000	0.000000
1.220000	49.250000	78.430000	991.000000	0.000000	142.000000	61.000000	0.000000	0.000000
1.230000	49.250000	78.430000	996.000000	0.000000	142.000000	61.000000	0.000000	0.000000
1.240000	49.250000	78.430000	1003.000000	0.000000	144.000000	61.000000	0.000000	0.000000
1.250000	49.250000	78.430000	1017.000000	0.000000	144.000000	61.000000	0.000000	0.000000
1.260000	49.250000	78.430000	1023.000000	0.000000	144.000000	61.000000	0.000000	0.000000
1.270000	49.250000	78.430000	1023.000000	0.000000	144.000000	61.000000	0.000000	0.000000
1.280000	49.250000	78.430000	1023.000000	0.000000	144.000000	61.000000	0.000000	0.000000
1.290000	49.250000	78.430000	1023.000000	0.000000	144.000000	61.000000	0.000000	0.000000
1.300000	49.250000	78.430000	1023.000000	0.000000	144.000000	61.000000	0.000000	0.000000
1.310000	49.250000	78.430000	1023.000000	0.000000	144.000000	61.000000	0.000000	0.000000
1.320000	49.250000	78.430000	1023.000000	0.000000	144.000000	61.000000	0.000000	0.000000
1.330000	49.250000	78.430000	1023.000000	0.000000	144.000000	61.000000	0.000000	0.000000
1.340000	49.250000	78.430000	1023.000000	0.000000	144.000000	61.000000	0.000000	0.000000
1.350000	49.250000	78.430000	1023.000000	0.000000	144.000000	61.000000	0.000000	0.000000
1.360000	49.250000	78.430000	1023.000000	0.000000	142.000000	61.000000	0.000000	0.000000
1.370000	49.250000	78.430000	1023.000000	0.000000	142.000000	61.000000	0.000000	0.000000
1.380000	49.250000	78.430000	1023.000000	0.000000	142.000000	61.000000	0.000000	0.000000
1.390000	49.250000	78.430000	1023.000000	0.000000	142.000000	61.000000	0.000000	0.000000
1.400000	49.250000	78.430000	1023.000000	0.000000	142.000000	61.000000	0.000000	0.000000
1.410000	49.250000	78.430000	1023.000000	0.000000	142.000000	61.000000	0.000000	0.000000
1.420000	49.250000	78.430000	1023.000000	0.000000	142.000000	61.000000	0.000000	0.000000
1.430000	49.250000	78.430000	1017.000000	0.000000	142.000000	61.000000	0.000000	0.000000
1.440000	49.250000	78.430000	1014.000000	0.000000	142.000000	61.000000	0.000000	0.000000
1.450000	49.250000	78.430000	1006.000000	0.000000	142.000000	61.000000	0.000000	0.000000
1.460000	49.250000	78.430000	1002.000000	0.000000	142.000000	61.000000	0.000000	0.000000
1.470000	49.250000	78.430000	999.000000	0.000000	142.000000	61.000000	0.000000	0.000000
1.480000	49.250000	78.430000	993.000000	0.000000	142.000000	61.000000	0.000000	0.000000
1.490000	49.250000	78.430000	990.000000	0.000000	142.000000	61.000000	0.000000	0.000000
1.500000	49.250000	78.430000	988.000000	0.000000	142.000000	61.000000	0.000000	0.000000
1.510000	49.250000	78.430000	984.000000	0.000000	142.000000	61.000000	0.000000	0.000000
1.520000	49.250000	78.430000	977.000000	0.000000	142.000000	61.000000	0.000000	0.000000
1.530000	49.250000	78.430000	985.000000	0.000000	142.000000	61.000000	0.000000	0.000000
1.540000	49.250000	78.430000	971.000000	0.000000	142.000000	61.000000	0.000000	0.000000
1.550000	49.300000	78.430000	964.000000	0.000000	142.000000	61.000000	5.000000	0.000000
1.560000	49.300000	78.430000	962.000000	0.000000	142.000000	61.000000	0.000000	0.000000
1.570000	49.360000	78.350000	964.000000	0.000000	142.000000	61.000000	6.000000	-8.000000
1.580000	49.360000	78.350000	962.000000	0.000000	142.000000	61.000000	0.000000	0.000000
1.590000	49.420000	78.300000	964.000000	0.000000	142.000000	61.000000	6.000000	-5.000000
1.600000	49.480000	78.230000	962.000000	0.000000	141.000000	61.000000	6.000000	-7.000000
1.610000	49.540000	78.080000	959.000000	0.000000	141.000000	61.000000	6.000000	-15.000000
1.620000	49.610000	77.880000	955.000000	0.000000	141.000000	61.000000	7.000000	-20.000000
1.630000	49.710000	77.720000	956.000000	0.000000	141.000000	61.000000	10.000000	-16.000000
1.640000	49.880000	77.560000	949.000000	0.000000	141.000000	61.000000	17.000000	-16.000000
1.650000	50.010000	77.470000	947.000000	0.000000	140.000000	62.000000	13.000000	-9.000000
1.660000	50.100000	77.470000	949.000000	0.000000	140.000000	62.000000	9.000000	0.000000
1.670000	50.180000	77.360000	952.000000	0.000000	140.000000	62.000000	8.000000	-11.000000
1.680000	50.180000	77.360000	956.000000	0.000000	138.000000	61.000000	0.000000	0.000000
1.690000	50.180000	77.310000	958.000000	0.000000	137.000000	62.000000	0.000000	-5.000000
1.700000	50.180000	77.310000	959.000000	0.000000	137.000000	62.000000	0.000000	0.000000
1.710000	50.180000	77.250000	959.000000	0.000000	137.000000	62.000000	0.000000	-6.000000
1.720000	50.180000	77.250000	962.000000	0.000000	137.000000	62.000000	0.000000	0.000000
1.730000	50.180000	77.250000	964.000000	0.000000	137.000000	62.000000	0.000000	0.000000
1.740000	50.180000	77.250000	965.000000	0.000000	137.000000	62.000000	0.000000	0.000000
1.750000	50.180000	77.250000	965.000000	0.000000	137.000000	62.000000	0.000000	0.000000
1.760000	50.180000	77.250000	962.000000	0.000000	137.000000	62.000000	0.000000	0.000000
1.770000	50.180000	77.250000	959.000000	0.000000	137.000000	62.000000	0.000000	0.000000
1.780000	50.230000	77.250000	961.000000	0.000000	137.000000	62.000000	5.000000	0.000000
1.790000	50.230000	77.250000	959.000000	0.000000	137.000000	62.000000	0.000000	0.000000
1.800000	50.230000	77.250000	958.000000	0.000000	137.000000	62.000000	0.000000	0.000000
1.810000	50.230000	77.250000	956.000000	0.000000	137.000000	62.000000	0.000000	0.000000
1.820000	50.230000	77.250000	952.000000	0.000000	137.000000	62.000000	0.000000	0.000000
1.830000	50.230000	77.250000	950.000000	0.000000	137.000000	62.000000	0.000000	0.000000
1.840000	50.290000	77.250000	949.000000	0.000000	137.000000	62.000000	6.000000	0.000000
1.850000	50.400000	77.250000	947.000000	0.000000	137.000000	62.000000	11.000000	0.000000
1.860000	50.600000	77.250000	947.000000	0.000000	137.000000	62.000000	20.000000	0.000000
1.870000	50.840000	77.250000	946.000000	0.000000	137.000000	62.000000	24.000000	0.000000
1.880000	51.100000	77.300000	941.000000	0.000000	137.000000	62.000000	26.000000	5.000000
1.890000	51.460000	77.370000	940.000000	0.000000	137.000000	62.000000	36.000000	7.000000
1.900000	51.930000	77.470000	940.000000	0.000000	137.000000	62.000000	47.000000	10.000000
1.910000	52.460000	77.600000	941.000000	0.000000	137.000000	62.000000	53.000000	13.000000
1.920000	53.060000	77.720000	941.000000	0.000000	135.000000	62.000000	60.000000	12.000000
1.930000	53.700000	77.850000	943.000000	0.000000	135.000000	62.000000	64.000000	13.000000
1.940000	54.420000	77.990000	944.000000	0.000000	136.000000	61.000000	72.000000	14.000000
1.950000	55.360000	78.190000	947.000000	0.000000	136.000000	61.000000	94.000000	20.000000
1.960000	56.440000	78.380000	950.000000	0.000000	136.000000	61.000000	108.000000	19.000000
1.970000	57.820000	78.550000	956.000000	0.000000	138.000000	61.000000	138.000000	17.000000
1.980000	59.460000	78.780000	958.000000	0.000000	138.000000	61.000000	164.000000	23.000000
1.990000	61.280000	79.050000	964.000000	0.000000	139.000000	61.000000	182.000000	27.000000
2.000000	63.540000	79.410000	967.000000	0.000000	141.000000	61.000000	226.000000	36.000000
2.010000	65.990000	79.840000	979.000000	0.000000	141.000000	61.000000	245.000000	43.000000
2.020000	68.560000	80.320000	986.000000	0.000000	144.000000	61.000000	257.000000	48.000000
2.030000	70.860000	80.700000	978.000000	0.000000	144.000000	61.000000	230.000000	38.000000
2.040000	72.920000	81.020000	987.000000	0.000000	143.000000	62.000000	206.000000	32.000000
2.050000	74.830000	81.280000	999.000000	0.000000	143.000000	62.000000	191.000000	26.000000
2.060000	76.080000	81.530000	1000.000000	0.000000	144.000000	62.000000	125.000000	25.000000
2.070000	76.780000	81.600000	981.000000	0.000000	144.000000	62.000000	70.000000	7.000000
2.080000	77.110000	81.650000	908.000000	0.000000	144.000000	62.000000	33.000000	5.000000
2.090000	77.270000	81.650000	530.000000	0.000000	144.000000	62.000000	16.000000	0.000000
2.100000	77.270000	81.650000	0.000000	1.000000	146.000000	63.000000	0.000000	0.000000
2.110000	77.470000	82.100000	0.000000	0.000000	146.000000	63.000000	20.000000	45.000000
2.120000	77.530000	82.810000	0.000000	0.000000	146.000000	63.000000	6.000000	71.000000
2.130000	77.830000	83.820000	0.000000	0.000000	146.000000	63.000000	30.000000	101.000000
2.140000	78.290000	85.340000	0.000000	0.000000	146.000000	63.000000	46.000000	152.000000
2.150000	79.180000	87.200000	0.000000	0.000000	146.000000	63.000000	89.000000	186.000000
2.160000	80.090000	89.130000	0.000000	0.000000	146.000000	63.000000	91.000000	193.000000
2.170000	80.620000	90.780000	0.000000	0.000000	146.000000	63.000000	53.000000	165.000000
2.180000	80.620000	90.780000	0.000000	0.000000	146.000000	63.000000	0.000000	0.000000
2.190000	62.100000	83.110000	0.000000	0.000000	146.000000	67.000000	-1852.000000	-767.000000
2.200000	62.100000	83.110000	0.000000	0.000000	144.000000	72.000000	0.000000	0.000000
2.210000	61.790000	83.110000	0.000000	0.000000	141.000000	76.000000	-31.000000	0.000000
2.220000	61.270000	83.110000	0.000000	0.000000	135.000000	80.000000	-52.000000	0.000000
