t	x	y	pressure	penup	azimuth	inclination	v_x	v_y
0.000000	86.690000	62.850000	46.000000	1.000000	153.000000	55.000000	0.000000	0.000000
0.010000	86.370000	62.660000	56.000000	0.000000	153.000000	55.000000	-32.000000	-19.000000
0.020000	86.370000	62.660000	81.000000	0.000000	153.000000	55.000000	0.000000	0.000000
0.030000	86.370000	62.560000	141.000000	0.000000	153.000000	55.000000	0.000000	-10.000000
0.040000	86.370000	62.560000	213.000000	0.000000	153.000000	55.000000	0.000000	0.000000
0.050000	86.370000	62.560000	250.000000	0.000000	151.000000	54.000000	0.000000	0.000000
0.060000	86.370000	62.610000	292.000000	0.000000	151.000000	54.000000	0.000000	5.000000
0.070000	86.430000	62.870000	320.000000	0.000000	150.000000	55.000000	6.000000	26.000000
0.080000	86.550000	63.280000	336.000000	0.000000	150.000000	55.000000	12.000000	41.000000
0.090000	86.720000	64.020000	368.000000	0.000000	149.000000	55.000000	17.000000	74.000000
0.100000	86.920000	64.920000	379.000000	0.000000	149.000000	55.000000	20.000000	90.000000
0.110000	87.200000	65.930000	415.000000	0.000000	149.000000	55.000000	28.000000	101.000000
0.120000	87.530000	66.600000	427.000000	0.000000	148.000000	56.000000	33.000000	67.000000
0.130000	87.920000	66.990000	430.000000	0.000000	148.000000	56.000000	39.000000	39.000000
0.140000	88.430000	67.200000	431.000000	0.000000	149.000000	56.000000	51.000000	21.000000
0.150000	89.020000	67.070000	444.000000	0.000000	149.000000	56.000000	59.000000	-13.000000
0.160000	89.540000	66.440000	458.000000	0.000000	149.000000	56.000000	52.000000	-63.000000
0.170000	90.080000	65.480000	486.000000	0.000000	149.000000	56.000000	54.000000	-96.000000
0.180000	90.650000	64.080000	507.000000	0.000000	148.000000	56.000000	57.000000	-140.000000
0.190000	90.970000	62.660000	517.000000	0.000000	148.000000	56.000000	32.000000	-142.000000
0.200000	91.120000	61.380000	527.000000	0.000000	148.000000	56.000000	15.000000	-128.000000
0.210000	90.870000	60.220000	545.000000	0.000000	148.000000	56.000000	-25.000000	-116.000000
0.220000	90.430000	59.360000	566.000000	0.000000	148.000000	56.000000	-44.000000	-86.000000
0.230000	89.870000	58.700000	597.000000	0.000000	147.000000	56.000000	-56.000000	-66.000000
0.240000	88.840000	58.180000	586.000000	0.000000	147.000000	56.000000	-103.000000	-52.000000
0.250000	87.510000	57.770000	605.000000	0.000000	148.000000	57.000000	-133.000000	-41.000000
0.260000	85.990000	57.600000	628.000000	0.000000	147.000000	58.000000	-152.000000	-17.000000
0.270000	84.690000	57.600000	645.000000	0.000000	147.000000	58.000000	-130.000000	0.000000
0.280000	84.120000	57.770000	641.000000	0.000000	146.000000	58.000000	-57.000000	17.000000
0.290000	84.030000	57.910000	631.000000	0.000000	146.000000	58.000000	-9.000000	14.000000
0.300000	84.860000	58.490000	620.000000	0.000000	146.000000	58.000000	83.000000	58.000000
0.310000	86.630000	59.370000	616.000000	0.000000	146.000000	58.000000	177.000000	88.000000
0.320000	89.030000	60.270000	643.000000	0.000000	146.000000	58.000000	240.000000	90.000000
0.330000	91.870000	61.000000	699.000000	0.000000	147.000000	58.000000	284.000000	73.000000
0.340000	95.230000	61.610000	748.000000	0.000000	149.000000	58.000000	336.000000	61.000000
0.350000	98.930000	62.120000	770.000000	0.000000	149.000000	58.000000	370.000000	51.000000
0.360000	102.910000	62.450000	770.000000	0.000000	150.000000	57.000000	398.000000	33.000000
0.370000	107.220000	62.650000	763.000000	0.000000	151.000000	58.000000	431.000000	20.000000
0.380000	111.760000	63.010000	720.000000	0.000000	153.000000	58.000000	454.000000	36.000000
0.390000	115.110000	63.290000	696.000000	0.000000	154.000000	58.000000	335.000000	28.000000
0.400000	116.870000	63.510000	603.000000	0.000000	153.000000	59.000000	176.000000	22.000000
0.410000	117.560000	63.600000	139.000000	0.000000	155.000000	60.000000	69.000000	9.000000
0.420000	117.560000	63.600000	0.000000	1.000000	157.000000	60.000000	0.000000	0.000000
0.430000	115.630000	63.600000	0.000000	0.000000	157.000000	60.000000	-193.000000	0.000000
0.440000	113.570000	63.650000	0.000000	0.000000	157.000000	60.000000	-206.000000	5.000000
0.450000	111.420000	63.780000	0.000000	0.000000	157.000000	60.000000	-215.000000	13.000000
0.460000	109.370000	63.780000	0.000000	0.000000	157.000000	59.000000	-205.000000	0.000000
0.470000	107.630000	63.650000	0.000000	0.000000	157.000000	59.000000	-174.000000	-13.000000
0.480000	106.070000	63.120000	0.000000	0.000000	157.000000	58.000000	-156.000000	-53.000000
0.490000	105.100000	63.000000	0.000000	0.000000	157.000000	58.000000	-97.000000	-12.000000
0.500000	104.050000	63.160000	0.000000	0.000000	155.000000	58.000000	-105.000000	16.000000
0.510000	102.940000	63.690000	0.000000	0.000000	154.000000	56.000000	-111.000000	53.000000
0.520000	102.400000	63.690000	0.000000	0.000000	152.000000	56.000000	-54.000000	0.000000
0.530000	101.440000	63.250000	0.000000	0.000000	150.000000	54.000000	-96.000000	-44.000000
0.540000	100.190000	63.250000	0.000000	0.000000	148.000000	54.000000	-125.000000	0.000000
0.550000	98.840000	63.250000	0.000000	0.000000	148.000000	53.000000	-135.000000	0.000000
0.560000	97.730000	63.160000	0.000000	0.000000	147.000000	52.000000	-111.000000	-9.000000
0.570000	96.790000	63.110000	0.000000	0.000000	147.000000	52.000000	-94.000000	-5.000000
0.580000	95.940000	63.050000	0.000000	0.000000	148.000000	51.000000	-85.000000	-6.000000
0.590000	94.900000	62.990000	0.000000	0.000000	149.000000	52.000000	-104.000000	-6.000000
0.600000	93.740000	63.460000	0.000000	0.000000	149.000000	52.000000	-116.000000	47.000000
0.610000	92.060000	63.460000	0.000000	0.000000	150.000000	52.000000	-168.000000	0.000000
0.620000	90.870000	63.200000	0.000000	0.000000	152.000000	53.000000	-119.000000	-26.000000
0.630000	90.000000	63.500000	0.000000	0.000000	152.000000	53.000000	-87.000000	30.000000
0.640000	88.990000	63.930000	0.000000	0.000000	152.000000	53.000000	-101.000000	43.000000
0.650000	88.280000	64.440000	0.000000	0.000000	150.000000	52.000000	-71.000000	51.000000
0.660000	87.760000	64.880000	0.000000	0.000000	150.000000	52.000000	-52.000000	44.000000
0.670000	87.630000	64.970000	0.000000	0.000000	150.000000	52.000000	-13.000000	9.000000
0.680000	87.760000	64.830000	0.000000	0.000000	153.000000	52.000000	13.000000	-14.000000
0.690000	88.050000	63.930000	0.000000	0.000000	154.000000	52.000000	29.000000	-90.000000
0.700000	88.390000	63.420000	0.000000	0.000000	156.000000	53.000000	34.000000	-51.000000
0.710000	88.680000	63.170000	0.000000	0.000000	157.000000	54.000000	29.000000	-25.000000
0.720000	88.940000	62.550000	0.000000	0.000000	158.000000	54.000000	26.000000	-62.000000
0.730000	89.210000	62.010000	0.000000	0.000000	159.000000	55.000000	27.000000	-54.000000
0.740000	89.490000	61.530000	0.000000	0.000000	157.000000	56.000000	28.000000	-48.000000
0.750000	89.870000	61.370000	0.000000	0.000000	155.000000	55.000000	38.000000	-16.000000
0.760000	90.290000	61.530000	0.000000	0.000000	153.000000	56.000000	42.000000	16.000000
0.770000	90.790000	61.910000	0.000000	0.000000	151.000000	56.000000	50.000000	38.000000
0.780000	91.350000	62.480000	0.000000	0.000000	149.000000	56.000000	56.000000	57.000000
0.790000	91.900000	63.280000	0.000000	0.000000	148.000000	56.000000	55.000000	80.000000
0.800000	92.110000	64.240000	0.000000	0.000000	146.000000	55.000000	21.000000	96.000000
0.810000	92.110000	65.380000	0.000000	0.000000	146.000000	55.000000	0.000000	114.000000
0.820000	91.930000	66.490000	0.000000	0.000000	146.000000	55.000000	-18.000000	111.000000
0.830000	91.780000	67.540000	0.000000	0.000000	147.000000	55.000000	-15.000000	105.000000
0.840000	91.700000	68.210000	0.000000	0.000000	149.000000	55.000000	-8.000000	67.000000
0.850000	91.700000	68.650000	0.000000	0.000000	150.000000	54.000000	0.000000	44.000000
0.860000	91.700000	68.440000	0.000000	0.000000	150.000000	54.000000	0.000000	-21.000000
0.870000	91.700000	67.900000	0.000000	0.000000	150.000000	54.000000	0.000000	-54.000000
0.880000	91.700000	67.140000	0.000000	0.000000	151.000000	53.000000	0.000000	-76.000000
0.890000	91.570000	66.230000	0.000000	0.000000	151.000000	53.000000	-13.000000	-91.000000
0.900000	91.380000	65.080000	0.000000	0.000000	150.000000	54.000000	-19.000000	-115.000000
0.910000	91.130000	63.760000	0.000000	0.000000	151.000000	54.000000	-25.000000	-132.000000
0.920000	90.830000	62.470000	0.000000	0.000000	151.000000	54.000000	-30.000000	-129.000000
0.930000	90.600000	61.530000	0.000000	0.000000	150.000000	55.000000	-23.000000	-94.000000
0.940000	90.600000	60.820000	0.000000	0.000000	149.000000	56.000000	0.000000	-71.000000
0.950000	90.690000	60.470000	0.000000	0.000000	149.000000	56.000000	9.000000	-35.000000
0.960000	90.850000	60.470000	0.000000	0.000000	148.000000	57.000000	16.000000	0.000000
0.970000	91.050000	60.610000	0.000000	0.000000	147.000000	58.000000	20.000000	14.000000
0.980000	91.250000	61.020000	0.000000	0.000000	147.000000	58.000000	20.000000	41.000000
0.990000	91.440000	61.670000	0.000000	0.000000	147.000000	58.000000	19.000000	65.000000
1.000000	91.660000	62.480000	0.000000	0.000000	147.000000	58.000000	22.000000	81.000000
1.010000	91.820000	63.400000	0.000000	0.000000	147.000000	58.000000	16.000000	92.000000
1.020000	91.920000	64.270000	0.000000	0.000000	147.000000	58.000000	10.000000	87.000000
1.030000	92.000000	64.880000	0.000000	0.000000	147.000000	58.000000	8.000000	61.000000
1.040000	92.000000	65.350000	0.000000	0.000000	147.000000	58.000000	0.000000	47.000000
1.050000	92.000000	65.600000	0.000000	0.000000	150.000000	57.000000	0.000000	25.000000
1.060000	92.000000	65.600000	0.000000	0.000000	150.000000	57.000000	0.000000	0.000000
1.070000	92.000000	65.460000	0.000000	0.000000	150.000000	57.000000	0.000000	-14.000000
1.080000	91.850000	64.620000	0.000000	0.000000	151.000000	56.000000	-15.000000	-84.000000
1.090000	91.710000	64.010000	0.000000	0.000000	151.000000	56.000000	-14.000000	-61.000000
1.100000	91.510000	63.550000	0.000000	0.000000	151.000000	56.000000	-20.000000	-46.000000
1.110000	91.340000	62.870000	0.000000	0.000000	151.000000	56.000000	-17.000000	-68.000000
1.120000	91.220000	62.380000	0.000000	0.000000	150.000000	57.000000	-12.000000	-49.000000
1.130000	91.220000	62.020000	0.000000	0.000000	150.000000	57.000000	0.000000	-36.000000
1.140000	91.220000	61.840000	0.000000	0.000000	150.000000	57.000000	0.000000	-18.000000
1.150000	91.310000	61.840000	0.000000	0.000000	150.000000	57.000000	9.000000	0.000000
1.160000	91.360000	61.840000	0.000000	0.000000	150.000000	57.000000	5.000000	0.000000
1.170000	91.360000	61.980000	0.000000	0.000000	150.000000	57.000000	0.000000	14.000000
1.180000	91.450000	62.190000	0.000000	0.000000	150.000000	57.000000	9.000000	21.000000
1.190000	91.450000	62.450000	0.000000	0.000000	150.000000	57.000000	0.000000	26.000000
1.200000	91.450000	62.610000	0.000000	0.000000	150.000000	57.000000	0.000000	16.000000
1.210000	91.450000	62.610000	0.000000	0.000000	150.000000	57.000000	0.000000	0.000000
1.220000	91.450000	62.500000	0.000000	0.000000	150.000000	57.000000	0.000000	-11.000000
1.230000	91.450000	62.500000	0.000000	0.000000	148.000000	57.000000	0.000000	0.000000
1.240000	91.360000	62.420000	0.000000	0.000000	150.000000	57.000000	-9.000000	-8.000000
1.250000	91.360000	62.420000	0.000000	0.000000	150.000000	57.000000	0.000000	0.000000
1.260000	91.360000	62.470000	0.000000	0.000000	150.000000	57.000000	0.000000	5.000000
1.270000	91.360000	62.470000	0.000000	0.000000	150.000000	57.000000	0.000000	0.000000
1.280000	91.360000	62.240000	0.000000	0.000000	150.000000	57.000000	0.000000	-23.000000
1.290000	91.310000	61.900000	0.000000	0.000000	150.000000	57.000000	-5.000000	-34.000000
1.300000	91.310000	61.540000	0.000000	0.000000	150.000000	57.000000	0.000000	-36.000000
1.310000	91.240000	61.290000	0.000000	0.000000	150.000000	57.000000	-7.000000	-25.000000
1.320000	91.240000	61.110000	0.000000	0.000000	150.000000	57.000000	0.000000	-18.000000
1.330000	91.240000	61.160000	0.000000	0.000000	149.000000	58.000000	0.000000	5.000000
1.340000	91.350000	61.350000	0.000000	0.000000	149.000000	58.000000	11.000000	19.000000
1.350000	91.490000	61.640000	0.000000	0.000000	149.000000	58.000000	14.000000	29.000000
1.360000	91.670000	62.070000	0.000000	0.000000	149.000000	58.000000	18.000000	43.000000
1.370000	91.780000	62.530000	0.000000	0.000000	149.000000	58.000000	11.000000	46.000000
1.380000	91.860000	63.020000	0.000000	0.000000	149.000000	58.000000	8.000000	49.000000
1.390000	91.860000	63.280000	0.000000	0.000000	150.000000	57.000000	0.000000	26.000000
1.400000	91.860000	63.500000	0.000000	0.000000	150.000000	57.000000	0.000000	22.000000
1.410000	91.760000	63.740000	0.000000	0.000000	150.000000	57.000000	-10.000000	24.000000
1.420000	91.670000	64.010000	0.000000	0.000000	150.000000	57.000000	-9.000000	27.000000
1.430000	91.580000	64.280000	0.000000	0.000000	150.000000	57.000000	-9.000000	27.000000
1.440000	91.530000	64.680000	0.000000	0.000000	150.000000	57.000000	-5.000000	40.000000
1.450000	91.480000	65.170000	0.000000	0.000000	150.000000	57.000000	-5.000000	49.000000
1.460000	91.430000	65.790000	0.000000	0.000000	150.000000	57.000000	-5.000000	62.000000
1.470000	91.380000	66.390000	0.000000	0.000000	150.000000	57.000000	-5.000000	60.000000
1.480000	91.380000	66.980000	0.000000	0.000000	152.000000	57.000000	0.000000	59.000000
1.490000	91.380000	67.330000	0.000000	0.000000	152.000000	57.000000	0.000000	35.000000
1.500000	91.380000	67.660000	0.000000	0.000000	152.000000	57.000000	0.000000	33.000000
1.510000	91.380000	67.970000	0.000000	0.000000	152.000000	57.000000	0.000000	31.000000
1.520000	91.380000	68.310000	0.000000	0.000000	152.000000	57.000000	0.000000	34.000000
1.530000	91.450000	68.630000	0.000000	0.000000	152.000000	57.000000	7.000000	32.000000
1.540000	91.530000	68.950000	0.000000	0.000000	152.000000	57.000000	8.000000	32.000000
1.550000	91.530000	68.950000	122.000000	1.000000	152.000000	57.000000	0.000000	0.000000
1.560000	91.530000	68.950000	131.000000	0.000000	154.000000	56.000000	0.000000	0.000000
1.570000	91.530000	68.950000	175.000000	0.000000	154.000000	56.000000	0.000000	0.000000
1.580000	91.530000	68.550000	249.000000	0.000000	154.000000	56.000000	0.000000	-40.000000
1.590000	91.530000	68.050000	363.000000	0.000000	154.000000	56.000000	0.000000	-50.000000
1.600000	91.530000	66.980000	458.000000	0.000000	154.000000	56.000000	0.000000	-107.000000
1.610000	91.620000	65.270000	530.000000	0.000000	154.000000	56.000000	9.000000	-171.000000
1.620000	91.690000	63.140000	575.000000	0.000000	154.000000	57.000000	7.000000	-213.000000
1.630000	91.750000	61.110000	605.000000	0.000000	154.000000	57.000000	6.000000	-203.000000
1.640000	91.750000	59.450000	617.000000	0.000000	152.000000	57.000000	0.000000	-166.000000
1.650000	91.750000	58.030000	644.000000	0.000000	150.000000	57.000000	0.000000	-142.000000
1.660000	91.800000	57.540000	671.000000	0.000000	149.000000	58.000000	5.000000	-49.000000
1.670000	91.920000	57.300000	688.000000	0.000000	147.000000	59.000000	12.000000	-24.000000
1.680000	91.920000	57.230000	708.000000	0.000000	145.000000	59.000000	0.000000	-7.000000
1.690000	91.920000	57.230000	717.000000	0.000000	145.000000	60.000000	0.000000	0.000000
1.700000	91.920000	57.480000	719.000000	0.000000	145.000000	60.000000	0.000000	25.000000
1.710000	91.810000	57.840000	708.000000	0.000000	144.000000	61.000000	-11.000000	36.000000
1.720000	91.720000	58.550000	694.000000	0.000000	144.000000	61.000000	-9.000000	71.000000
1.730000	91.600000	59.500000	670.000000	0.000000	144.000000	61.000000	-12.000000	95.000000
1.740000	91.600000	60.620000	619.000000	0.000000	144.000000	61.000000	0.000000	112.000000
1.750000	91.790000	61.570000	613.000000	0.000000	145.000000	60.000000	19.000000	95.000000
1.760000	91.790000	62.160000	620.000000	0.000000	144.000000	60.000000	0.000000	59.000000
1.770000	91.870000	62.500000	620.000000	0.000000	143.000000	59.000000	8.000000	34.000000
1.780000	91.870000	62.580000	627.000000	0.000000	144.000000	58.000000	0.000000	8.000000
1.790000	91.990000	62.580000	638.000000	0.000000	144.000000	57.000000	12.000000	0.000000
1.800000	92.050000	62.430000	637.000000	0.000000	144.000000	57.000000	6.000000	-15.000000
1.810000	92.050000	62.110000	647.000000	0.000000	144.000000	57.000000	0.000000	-32.000000
1.820000	92.150000	61.540000	662.000000	0.000000	145.000000	56.000000	10.000000	-57.000000
1.830000	92.200000	60.940000	662.000000	0.000000	145.000000	56.000000	5.000000	-60.000000
1.840000	92.200000	60.320000	664.000000	0.000000	144.000000	57.000000	0.000000	-62.000000
1.850000	92.330000	60.110000	665.000000	0.000000	144.000000	57.000000	13.000000	-21.000000
1.860000	92.450000	60.110000	664.000000	0.000000	144.000000	57.000000	12.000000	0.000000
1.870000	92.640000	60.200000	661.000000	0.000000	143.000000	57.000000	19.000000	9.000000
1.880000	92.860000	60.520000	647.000000	0.000000	143.000000	57.000000	22.000000	32.000000
1.890000	93.080000	61.000000	628.000000	0.000000	143.000000	57.000000	22.000000	48.000000
1.900000	93.210000	61.590000	617.000000	0.000000	143.000000	57.000000	13.000000	59.000000
1.910000	93.270000	62.020000	617.000000	0.000000	143.000000	57.000000	6.000000	43.000000
1.920000	93.210000	62.250000	620.000000	0.000000	143.000000	57.000000	-6.000000	23.000000
1.930000	93.160000	62.360000	611.000000	0.000000	143.000000	57.000000	-5.000000	11.000000
1.940000	93.160000	62.360000	611.000000	0.000000	144.000000	57.000000	0.000000	0.000000
1.950000	93.160000	62.360000	610.000000	0.000000	144.000000	57.000000	0.000000	0.000000
1.960000	93.160000	62.360000	613.000000	0.000000	144.000000	57.000000	0.000000	0.000000
1.970000	93.160000	62.090000	620.000000	0.000000	145.000000	56.000000	0.000000	-27.000000
1.980000	93.160000	61.980000	638.000000	0.000000	145.000000	56.000000	0.000000	-11.000000
1.990000	93.260000	61.880000	645.000000	0.000000	145.000000	56.000000	10.000000	-10.000000
2.000000	93.310000	61.780000	636.000000	0.000000	147.000000	56.000000	5.000000	-10.000000
2.010000	93.310000	61.780000	619.000000	0.000000	147.000000	56.000000	0.000000	0.000000
2.020000	93.310000	61.780000	533.000000	0.000000	147.000000	56.000000	0.000000	0.000000
2.030000	93.390000	61.780000	392.000000	0.000000	146.000000	57.000000	8.000000	0.000000
2.040000	93.480000	61.830000	183.000000	0.000000	146.000000	57.000000	9.000000	5.000000
2.050000	93.480000	61.830000	0.000000	1.000000	146.000000	57.000000	0.000000	0.000000
2.060000	93.660000	62.130000	0.000000	0.000000	146.000000	57.000000	18.000000	30.000000
2.070000	93.560000	62.310000	0.000000	0.000000	146.000000	57.000000	-10.000000	18.000000
2.080000	93.370000	62.470000	0.000000	0.000000	146.000000	57.000000	-19.000000	16.000000
2.090000	93.230000	62.570000	0.000000	0.000000	147.000000	56.000000	-14.000000	10.000000
2.100000	93.060000	62.650000	0.000000	0.000000	147.000000	56.000000	-17.000000	8.000000
2.110000	92.910000	62.700000	0.000000	0.000000	148.000000	57.000000	-15.000000	5.000000
2.120000	92.810000	62.700000	0.000000	0.000000	148.000000	57.000000	-10.000000	0.000000
2.130000	92.810000	62.700000	22.000000	1.000000	148.000000	57.000000	0.000000	0.000000
2.140000	92.810000	62.700000	93.000000	0.000000	148.000000	57.000000	0.000000	0.000000
2.150000	92.810000	62.700000	163.000000	0.000000	148.000000	57.000000	0.000000	0.000000
2.160000	92.530000	62.980000	241.000000	0.000000	148.000000	57.000000	-28.000000	28.000000
2.170000	92.430000	63.030000	345.000000	0.000000	148.000000	57.000000	-10.000000	5.000000
2.180000	92.380000	63.030000	413.000000	0.000000	148.000000	57.000000	-5.000000	0.000000
2.190000	92.380000	63.030000	463.000000	0.000000	148.000000	57.000000	0.000000	0.000000
2.200000	92.320000	63.030000	495.000000	0.000000	148.000000	57.000000	-6.000000	0.000000
2.210000	92.320000	63.030000	483.000000	0.000000	148.000000	57.000000	0.000000	0.000000
2.220000	92.260000	63.030000	418.000000	0.000000	148.000000	57.000000	-6.000000	0.000000
