t	x	y	pressure	penup	azimuth	inclination	v_x	v_y
0.000000	85.720000	46.870000	41.000000	1.000000	156.000000	53.000000	0.000000	0.000000
0.010000	85.830000	47.790000	58.000000	0.000000	156.000000	53.000000	11.000000	92.000000
0.020000	85.940000	48.380000	113.000000	0.000000	156.000000	53.000000	11.000000	59.000000
0.030000	86.070000	49.030000	210.000000	0.000000	157.000000	52.000000	13.000000	65.000000
0.040000	86.210000	49.400000	270.000000	0.000000	158.000000	51.000000	14.000000	37.000000
0.050000	86.350000	49.760000	297.000000	0.000000	158.000000	51.000000	14.000000	36.000000
0.060000	86.490000	50.040000	319.000000	0.000000	159.000000	50.000000	14.000000	28.000000
0.070000	86.620000	50.220000	334.000000	0.000000	159.000000	50.000000	13.000000	18.000000
0.080000	86.940000	50.290000	344.000000	0.000000	159.000000	50.000000	32.000000	7.000000
0.090000	87.290000	50.090000	362.000000	0.000000	158.000000	49.000000	35.000000	-20.000000
0.100000	87.870000	49.720000	399.000000	0.000000	158.000000	49.000000	58.000000	-37.000000
0.110000	88.600000	48.480000	404.000000	0.000000	159.000000	49.000000	73.000000	-124.000000
0.120000	89.030000	46.920000	422.000000	0.000000	159.000000	50.000000	43.000000	-156.000000
0.130000	89.240000	45.150000	414.000000	0.000000	159.000000	50.000000	21.000000	-177.000000
0.140000	89.310000	43.240000	423.000000	0.000000	159.000000	50.000000	7.000000	-191.000000
0.150000	89.150000	41.930000	446.000000	0.000000	158.000000	51.000000	-16.000000	-131.000000
0.160000	88.940000	41.020000	491.000000	0.000000	159.000000	51.000000	-21.000000	-91.000000
0.170000	88.690000	40.540000	520.000000	0.000000	159.000000	51.000000	-25.000000	-48.000000
0.180000	88.230000	40.190000	540.000000	0.000000	158.000000	52.000000	-46.000000	-35.000000
0.190000	87.510000	39.930000	553.000000	0.000000	158.000000	52.000000	-72.000000	-26.000000
0.200000	86.610000	39.750000	569.000000	0.000000	158.000000	52.000000	-90.000000	-18.000000
0.210000	85.840000	39.800000	591.000000	0.000000	158.000000	52.000000	-77.000000	5.000000
0.220000	85.100000	40.010000	606.000000	0.000000	157.000000	52.000000	-74.000000	21.000000
0.230000	84.600000	40.290000	613.000000	0.000000	157.000000	52.000000	-50.000000	28.000000
0.240000	84.250000	40.630000	622.000000	0.000000	157.000000	52.000000	-35.000000	34.000000
0.250000	84.140000	41.010000	628.000000	0.000000	157.000000	52.000000	-11.000000	38.000000
0.260000	84.260000	41.100000	628.000000	0.000000	156.000000	51.000000	12.000000	9.000000
0.270000	84.530000	41.190000	634.000000	0.000000	156.000000	51.000000	27.000000	9.000000
0.280000	85.110000	41.320000	638.000000	0.000000	155.000000	50.000000	58.000000	13.000000
0.290000	86.280000	41.480000	658.000000	0.000000	155.000000	50.000000	117.000000	16.000000
0.300000	87.850000	41.810000	690.000000	0.000000	155.000000	50.000000	157.000000	33.000000
0.310000	90.580000	42.320000	721.000000	0.000000	157.000000	51.000000	273.000000	51.000000
0.320000	93.870000	42.960000	749.000000	0.000000	157.000000	51.000000	329.000000	64.000000
0.330000	97.530000	43.310000	794.000000	0.000000	158.000000	51.000000	366.000000	35.000000
0.340000	101.730000	43.620000	815.000000	0.000000	159.000000	51.000000	420.000000	31.000000
0.350000	105.480000	43.910000	811.000000	0.000000	160.000000	52.000000	375.000000	29.000000
0.360000	108.920000	44.070000	794.000000	0.000000	161.000000	52.000000	344.000000	16.000000
0.370000	111.670000	44.180000	737.000000	0.000000	160.000000	53.000000	275.000000	11.000000
0.380000	113.120000	44.120000	567.000000	0.000000	162.000000	54.000000	145.000000	-6.000000
0.390000	113.700000	43.970000	249.000000	0.000000	163.000000	55.000000	58.000000	-15.000000
0.400000	113.700000	43.970000	0.000000	1.000000	163.000000	55.000000	0.000000	0.000000
0.410000	111.590000	43.550000	0.000000	0.000000	162.000000	56.000000	-211.000000	-42.000000
0.420000	109.670000	43.550000	0.000000	0.000000	162.000000	56.000000	-192.000000	0.000000
0.430000	108.040000	43.750000	0.000000	0.000000	162.000000	56.000000	-163.000000	20.000000
0.440000	106.720000	43.860000	0.000000	0.000000	163.000000	55.000000	-132.000000	11.000000
0.450000	105.600000	44.040000	0.000000	0.000000	163.000000	55.000000	-112.000000	18.000000
0.460000	104.560000	44.270000	0.000000	0.000000	163.000000	54.000000	-104.000000	23.000000
0.470000	104.140000	43.990000	0.000000	0.000000	162.000000	53.000000	-42.000000	-28.000000
0.480000	104.140000	44.370000	0.000000	0.000000	162.000000	51.000000	0.000000	38.000000
0.490000	104.420000	45.200000	0.000000	0.000000	162.000000	49.000000	28.000000	83.000000
0.500000	104.420000	45.040000	0.000000	0.000000	162.000000	47.000000	0.000000	-16.000000
0.510000	104.110000	45.370000	0.000000	0.000000	162.000000	45.000000	-31.000000	33.000000
0.520000	103.780000	46.030000	0.000000	0.000000	162.000000	44.000000	-33.000000	66.000000
0.530000	103.570000	46.270000	0.000000	0.000000	162.000000	42.000000	-21.000000	24.000000
0.540000	103.440000	46.490000	0.000000	0.000000	162.000000	40.000000	-13.000000	22.000000
0.550000	102.920000	46.690000	0.000000	0.000000	163.000000	39.000000	-52.000000	20.000000
0.560000	102.130000	46.880000	0.000000	0.000000	163.000000	38.000000	-79.000000	19.000000
0.570000	101.160000	47.110000	0.000000	0.000000	162.000000	37.000000	-97.000000	23.000000
0.580000	99.910000	47.360000	0.000000	0.000000	162.000000	37.000000	-125.000000	25.000000
0.590000	98.280000	47.640000	0.000000	0.000000	162.000000	37.000000	-163.000000	28.000000
0.600000	96.400000	48.040000	0.000000	0.000000	162.000000	37.000000	-188.000000	40.000000
0.610000	94.580000	48.440000	0.000000	0.000000	163.000000	38.000000	-182.000000	40.000000
0.620000	93.180000	48.850000	0.000000	0.000000	162.000000	39.000000	-140.000000	41.000000
0.630000	92.070000	49.440000	0.000000	0.000000	162.000000	41.000000	-111.000000	59.000000
0.640000	91.480000	49.740000	0.000000	0.000000	161.000000	42.000000	-59.000000	30.000000
0.650000	91.080000	49.860000	0.000000	0.000000	159.000000	45.000000	-40.000000	12.000000
0.660000	90.810000	49.860000	0.000000	0.000000	157.000000	47.000000	-27.000000	0.000000
0.670000	90.810000	49.700000	0.000000	0.000000	156.000000	48.000000	0.000000	-16.000000
0.680000	90.930000	49.380000	0.000000	0.000000	154.000000	50.000000	12.000000	-32.000000
0.690000	90.930000	48.540000	0.000000	0.000000	151.000000	51.000000	0.000000	-84.000000
0.700000	90.930000	47.290000	0.000000	0.000000	150.000000	52.000000	0.000000	-125.000000
0.710000	90.590000	45.760000	0.000000	0.000000	149.000000	53.000000	-34.000000	-153.000000
0.720000	90.420000	44.550000	0.000000	0.000000	152.000000	53.000000	-17.000000	-121.000000
0.730000	90.350000	43.510000	0.000000	0.000000	153.000000	53.000000	-7.000000	-104.000000
0.740000	90.440000	42.590000	0.000000	0.000000	154.000000	53.000000	9.000000	-92.000000
0.750000	90.570000	42.120000	0.000000	0.000000	155.000000	52.000000	13.000000	-47.000000
0.760000	90.870000	41.860000	0.000000	0.000000	156.000000	53.000000	30.000000	-26.000000
0.770000	91.270000	41.750000	0.000000	0.000000	156.000000	53.000000	40.000000	-11.000000
0.780000	91.420000	42.720000	0.000000	0.000000	157.000000	52.000000	15.000000	97.000000
0.790000	91.690000	43.620000	0.000000	0.000000	157.000000	52.000000	27.000000	90.000000
0.800000	92.050000	44.470000	0.000000	0.000000	157.000000	52.000000	36.000000	85.000000
0.810000	92.290000	45.590000	0.000000	0.000000	157.000000	52.000000	24.000000	112.000000
0.820000	92.380000	46.710000	0.000000	0.000000	157.000000	52.000000	9.000000	112.000000
0.830000	92.380000	47.830000	0.000000	0.000000	157.000000	52.000000	0.000000	112.000000
0.840000	92.380000	48.600000	0.000000	0.000000	157.000000	52.000000	0.000000	77.000000
0.850000	92.230000	49.140000	0.000000	0.000000	157.000000	52.000000	-15.000000	54.000000
0.860000	92.070000	49.140000	0.000000	0.000000	157.000000	52.000000	-16.000000	0.000000
0.870000	91.870000	48.860000	0.000000	0.000000	157.000000	52.000000	-20.000000	-28.000000
0.880000	91.610000	48.420000	0.000000	0.000000	157.000000	52.000000	-26.000000	-44.000000
0.890000	91.300000	47.540000	0.000000	0.000000	157.000000	52.000000	-31.000000	-88.000000
0.900000	90.950000	46.600000	0.000000	0.000000	157.000000	52.000000	-35.000000	-94.000000
0.910000	90.610000	45.570000	0.000000	0.000000	157.000000	52.000000	-34.000000	-103.000000
0.920000	90.270000	44.500000	0.000000	0.000000	158.000000	52.000000	-34.000000	-107.000000
0.930000	90.140000	43.590000	0.000000	0.000000	158.000000	52.000000	-13.000000	-91.000000
0.940000	90.030000	42.940000	0.000000	0.000000	160.000000	52.000000	-11.000000	-65.000000
0.950000	90.030000	42.470000	0.000000	0.000000	160.000000	52.000000	0.000000	-47.000000
0.960000	90.030000	42.290000	0.000000	0.000000	160.000000	52.000000	0.000000	-18.000000
0.970000	90.030000	42.290000	0.000000	0.000000	160.000000	52.000000	0.000000	0.000000
0.980000	90.080000	42.350000	0.000000	0.000000	160.000000	52.000000	5.000000	6.000000
0.990000	90.080000	42.590000	0.000000	0.000000	160.000000	52.000000	0.000000	24.000000
1.000000	90.080000	42.820000	0.000000	0.000000	160.000000	52.000000	0.000000	23.000000
1.010000	90.030000	43.050000	0.000000	0.000000	158.000000	52.000000	-5.000000	23.000000
1.020000	89.970000	43.160000	0.000000	0.000000	158.000000	52.000000	-6.000000	11.000000
1.030000	89.910000	43.160000	0.000000	0.000000	158.000000	52.000000	-6.000000	0.000000
1.040000	89.910000	43.060000	0.000000	0.000000	158.000000	52.000000	0.000000	-10.000000
1.050000	89.780000	42.940000	0.000000	0.000000	158.000000	52.000000	-13.000000	-12.000000
1.060000	89.650000	42.830000	0.000000	0.000000	158.000000	52.000000	-13.000000	-11.000000
1.070000	89.540000	42.770000	0.000000	0.000000	158.000000	52.000000	-11.000000	-6.000000
1.080000	89.420000	42.770000	0.000000	0.000000	156.000000	53.000000	-12.000000	0.000000
1.090000	89.290000	42.670000	0.000000	0.000000	156.000000	53.000000	-13.000000	-10.000000
1.100000	89.210000	42.570000	0.000000	0.000000	156.000000	53.000000	-8.000000	-10.000000
1.110000	89.140000	42.450000	0.000000	0.000000	155.000000	52.000000	-7.000000	-12.000000
1.120000	89.140000	42.230000	0.000000	0.000000	155.000000	52.000000	0.000000	-22.000000
1.130000	89.080000	42.060000	0.000000	0.000000	155.000000	52.000000	-6.000000	-17.000000
1.140000	89.080000	42.060000	0.000000	0.000000	155.000000	52.000000	0.000000	0.000000
1.150000	89.080000	42.060000	0.000000	0.000000	154.000000	52.000000	0.000000	0.000000
1.160000	89.080000	42.060000	0.000000	0.000000	154.000000	52.000000	0.000000	0.000000
1.170000	89.080000	42.060000	0.000000	0.000000	154.000000	52.000000	0.000000	0.000000
1.180000	89.230000	42.510000	0.000000	0.000000	154.000000	52.000000	15.000000	45.000000
1.190000	89.230000	42.770000	0.000000	0.000000	154.000000	52.000000	0.000000	26.000000
1.200000	89.330000	43.010000	0.000000	0.000000	154.000000	52.000000	10.000000	24.000000
1.210000	89.420000	43.230000	0.000000	0.000000	155.000000	52.000000	9.000000	22.000000
1.220000	89.570000	43.630000	0.000000	0.000000	155.000000	52.000000	15.000000	40.000000
1.230000	89.760000	44.140000	0.000000	0.000000	156.000000	53.000000	19.000000	51.000000
1.240000	89.980000	44.910000	0.000000	0.000000	156.000000	53.000000	22.000000	77.000000
1.250000	90.210000	45.750000	0.000000	0.000000	158.000000	53.000000	23.000000	84.000000
1.260000	90.380000	46.630000	0.000000	0.000000	159.000000	53.000000	17.000000	88.000000
1.270000	90.500000	47.230000	0.000000	0.000000	160.000000	53.000000	12.000000	60.000000
1.280000	90.560000	47.610000	0.000000	0.000000	160.000000	53.000000	6.000000	38.000000
1.290000	90.560000	47.850000	0.000000	0.000000	162.000000	54.000000	0.000000	24.000000
1.300000	90.620000	48.150000	0.000000	0.000000	163.000000	54.000000	6.000000	30.000000
1.310000	90.620000	48.430000	0.000000	0.000000	163.000000	54.000000	0.000000	28.000000
1.320000	90.620000	48.760000	0.000000	0.000000	164.000000	53.000000	0.000000	33.000000
1.330000	90.550000	49.130000	0.000000	0.000000	164.000000	53.000000	-7.000000	37.000000
1.340000	90.550000	49.130000	0.000000	0.000000	162.000000	53.000000	0.000000	0.000000
1.350000	90.490000	48.720000	0.000000	0.000000	162.000000	53.000000	-6.000000	-41.000000
1.360000	90.360000	48.030000	0.000000	0.000000	161.000000	52.000000	-13.000000	-69.000000
1.370000	90.170000	46.940000	0.000000	0.000000	160.000000	53.000000	-19.000000	-109.000000
1.380000	90.040000	45.960000	0.000000	0.000000	160.000000	53.000000	-13.000000	-98.000000
1.390000	89.950000	45.050000	0.000000	0.000000	159.000000	53.000000	-9.000000	-91.000000
1.400000	89.950000	44.300000	0.000000	0.000000	158.000000	54.000000	0.000000	-75.000000
1.410000	89.950000	43.880000	0.000000	0.000000	160.000000	54.000000	0.000000	-42.000000
1.420000	90.050000	43.690000	0.000000	0.000000	160.000000	54.000000	10.000000	-19.000000
1.430000	90.100000	43.810000	0.000000	0.000000	160.000000	54.000000	5.000000	12.000000
1.440000	90.150000	44.070000	0.000000	0.000000	160.000000	54.000000	5.000000	26.000000
1.450000	90.220000	44.430000	0.000000	0.000000	160.000000	54.000000	7.000000	36.000000
1.460000	90.220000	44.960000	0.000000	0.000000	160.000000	54.000000	0.000000	53.000000
1.470000	90.220000	45.640000	0.000000	0.000000	160.000000	54.000000	0.000000	68.000000
1.480000	90.220000	46.420000	0.000000	0.000000	161.000000	55.000000	0.000000	78.000000
1.490000	90.220000	47.350000	0.000000	0.000000	161.000000	55.000000	0.000000	93.000000
1.500000	90.290000	48.280000	0.000000	0.000000	161.000000	55.000000	7.000000	93.000000
1.510000	90.290000	48.280000	48.000000	1.000000	160.000000	54.000000	0.000000	0.000000
1.520000	90.290000	49.770000	137.000000	0.000000	160.000000	54.000000	0.000000	149.000000
1.530000	90.170000	50.110000	158.000000	0.000000	159.000000	53.000000	-12.000000	34.000000
1.540000	90.170000	50.190000	180.000000	0.000000	158.000000	53.000000	0.000000	8.000000
1.550000	90.170000	50.190000	206.000000	0.000000	157.000000	52.000000	0.000000	0.000000
1.560000	90.170000	49.520000	285.000000	0.000000	156.000000	51.000000	0.000000	-67.000000
1.570000	90.340000	48.160000	334.000000	0.000000	155.000000	51.000000	17.000000	-136.000000
1.580000	90.530000	46.510000	386.000000	0.000000	153.000000	51.000000	19.000000	-165.000000
1.590000	90.600000	44.660000	430.000000	0.000000	153.000000	51.000000	7.000000	-185.000000
1.600000	90.600000	42.600000	448.000000	0.000000	151.000000	51.000000	0.000000	-206.000000
1.610000	90.450000	41.100000	471.000000	0.000000	151.000000	51.000000	-15.000000	-150.000000
1.620000	90.340000	39.970000	502.000000	0.000000	151.000000	51.000000	-11.000000	-113.000000
1.630000	90.270000	39.570000	546.000000	0.000000	150.000000	52.000000	-7.000000	-40.000000
1.640000	90.270000	39.410000	595.000000	0.000000	152.000000	53.000000	0.000000	-16.000000
1.650000	90.270000	39.410000	622.000000	0.000000	151.000000	53.000000	0.000000	0.000000
1.660000	90.270000	39.410000	638.000000	0.000000	151.000000	53.000000	0.000000	0.000000
1.670000	90.270000	39.770000	613.000000	0.000000	151.000000	53.000000	0.000000	36.000000
1.680000	90.270000	40.270000	592.000000	0.000000	151.000000	53.000000	0.000000	50.000000
1.690000	90.360000	41.100000	527.000000	0.000000	151.000000	53.000000	9.000000	83.000000
1.700000	90.480000	42.320000	491.000000	0.000000	151.000000	53.000000	12.000000	122.000000
1.710000	90.680000	43.810000	496.000000	0.000000	151.000000	53.000000	20.000000	149.000000
1.720000	90.920000	44.920000	494.000000	0.000000	151.000000	53.000000	24.000000	111.000000
1.730000	91.080000	45.380000	492.000000	0.000000	151.000000	53.000000	16.000000	46.000000
1.740000	91.140000	45.380000	498.000000	0.000000	149.000000	53.000000	6.000000	0.000000
1.750000	91.140000	45.230000	501.000000	0.000000	149.000000	53.000000	0.000000	-15.000000
1.760000	91.140000	45.030000	507.000000	0.000000	149.000000	53.000000	0.000000	-20.000000
1.770000	91.140000	44.780000	512.000000	0.000000	149.000000	53.000000	0.000000	-25.000000
1.780000	91.140000	44.510000	540.000000	0.000000	149.000000	53.000000	0.000000	-27.000000
1.790000	91.140000	43.910000	556.000000	0.000000	149.000000	53.000000	0.000000	-60.000000
1.800000	91.080000	43.090000	570.000000	0.000000	149.000000	53.000000	-6.000000	-82.000000
1.810000	91.030000	42.390000	563.000000	0.000000	149.000000	53.000000	-5.000000	-70.000000
1.820000	91.120000	41.990000	566.000000	0.000000	149.000000	53.000000	9.000000	-40.000000
1.830000	91.220000	41.800000	569.000000	0.000000	152.000000	53.000000	10.000000	-19.000000
1.840000	91.330000	41.800000	578.000000	0.000000	152.000000	53.000000	11.000000	0.000000
1.850000	91.390000	41.870000	575.000000	0.000000	152.000000	53.000000	6.000000	7.000000
1.860000	91.500000	42.070000	561.000000	0.000000	152.000000	53.000000	11.000000	20.000000
1.870000	91.610000	42.570000	556.000000	0.000000	152.000000	53.000000	11.000000	50.000000
1.880000	91.660000	43.060000	538.000000	0.000000	152.000000	53.000000	5.000000	49.000000
1.890000	91.660000	43.550000	517.000000	0.000000	152.000000	53.000000	0.000000	49.000000
1.900000	91.660000	43.950000	505.000000	0.000000	152.000000	53.000000	0.000000	40.000000
1.910000	91.660000	44.310000	492.000000	0.000000	152.000000	53.000000	0.000000	36.000000
1.920000	91.660000	44.580000	491.000000	0.000000	152.000000	53.000000	0.000000	27.000000
1.930000	91.610000	44.770000	488.000000	0.000000	152.000000	53.000000	-5.000000	19.000000
1.940000	91.610000	44.890000	466.000000	0.000000	151.000000	53.000000	0.000000	12.000000
1.950000	91.560000	45.000000	450.000000	0.000000	151.000000	53.000000	-5.000000	11.000000
1.960000	91.560000	45.110000	447.000000	0.000000	151.000000	53.000000	0.000000	11.000000
1.970000	91.560000	45.160000	453.000000	0.000000	151.000000	53.000000	0.000000	5.000000
1.980000	91.560000	45.160000	466.000000	0.000000	149.000000	53.000000	0.000000	0.000000
1.990000	91.560000	45.160000	474.000000	0.000000	149.000000	53.000000	0.000000	0.000000
2.000000	91.560000	45.090000	474.000000	0.000000	149.000000	53.000000	0.000000	-7.000000
2.010000	91.560000	44.920000	453.000000	0.000000	149.000000	53.000000	0.000000	-17.000000
2.020000	91.560000	44.670000	368.000000	0.000000	149.000000	53.000000	0.000000	-25.000000
2.030000	91.560000	44.430000	107.000000	0.000000	149.000000	53.000000	0.000000	-24.000000
2.040000	91.560000	44.430000	0.000000	1.000000	149.000000	53.000000	0.000000	0.000000
2.050000	91.700000	44.210000	0.000000	0.000000	151.000000	53.000000	14.000000	-22.000000
2.060000	91.770000	44.440000	0.000000	0.000000	151.000000	53.000000	7.000000	23.000000
2.070000	91.770000	44.790000	0.000000	0.000000	152.000000	54.000000	0.000000	35.000000
2.080000	91.670000	45.160000	0.000000	0.000000	153.000000	54.000000	-10.000000	37.000000
2.090000	91.670000	45.480000	0.000000	0.000000	155.000000	54.000000	0.000000	32.000000
2.100000	91.670000	45.740000	0.000000	0.000000	157.000000	54.000000	0.000000	26.000000
2.110000	91.610000	45.870000	0.000000	0.000000	158.000000	54.000000	-6.000000	13.000000
2.120000	91.610000	45.870000	41.000000	1.000000	159.000000	55.000000	0.000000	0.000000
2.130000	91.610000	45.870000	161.000000	0.000000	159.000000	55.000000	0.000000	0.000000
2.140000	91.270000	46.070000	242.000000	0.000000	159.000000	55.000000	-34.000000	20.000000
2.150000	91.220000	46.220000	304.000000	0.000000	158.000000	55.000000	-5.000000	15.000000
2.160000	91.220000	46.220000	325.000000	0.000000	156.000000	55.000000	0.000000	0.000000
2.170000	91.220000	46.220000	319.000000	0.000000	154.000000	55.000000	0.000000	0.000000
2.180000	91.220000	46.220000	252.000000	0.000000	153.000000	55.000000	0.000000	0.000000
2.190000	91.220000	46.220000	177.000000	0.000000	151.000000	54.000000	0.000000	0.000000
2.200000	91.490000	46.080000	5.000000	1.000000	150.000000	54.000000	0.000000	0.000000
2.210000	91.490000	46.080000	0.000000	0.000000	150.000000	54.000000	0.000000	0.000000
2.220000	91.680000	45.680000	0.000000	0.000000	150.000000	54.000000	19.000000	-40.000000
