t	x	y	pressure	penup	azimuth	inclination	v_x	v_y
0.000000	85.230000	48.600000	65.000000	1.000000	116.000000	60.000000	0.000000	0.000000
0.010000	85.330000	48.040000	158.000000	0.000000	116.000000	60.000000	10.000000	-56.000000
0.020000	85.330000	47.340000	287.000000	0.000000	114.000000	61.000000	0.000000	-70.000000
0.030000	85.180000	46.380000	332.000000	0.000000	114.000000	61.000000	-15.000000	-96.000000
0.040000	85.130000	46.060000	371.000000	0.000000	113.000000	61.000000	-5.000000	-32.000000
0.050000	85.130000	45.810000	396.000000	0.000000	111.000000	61.000000	0.000000	-25.000000
0.060000	85.050000	45.610000	446.000000	0.000000	109.000000	62.000000	-8.000000	-20.000000
0.070000	85.000000	45.610000	475.000000	0.000000	109.000000	62.000000	-5.000000	0.000000
0.080000	84.950000	45.690000	494.000000	0.000000	107.000000	62.000000	-5.000000	8.000000
0.090000	84.950000	45.860000	499.000000	0.000000	107.000000	62.000000	0.000000	17.000000
0.100000	84.860000	46.540000	510.000000	0.000000	107.000000	62.000000	-9.000000	68.000000
0.110000	84.860000	47.560000	519.000000	0.000000	107.000000	62.000000	0.000000	102.000000
0.120000	84.950000	48.810000	520.000000	0.000000	107.000000	62.000000	9.000000	125.000000
0.130000	85.130000	50.130000	521.000000	0.000000	109.000000	62.000000	18.000000	132.000000
0.140000	85.430000	51.400000	564.000000	0.000000	111.000000	61.000000	30.000000	127.000000
0.150000	85.770000	52.580000	595.000000	0.000000	112.000000	60.000000	34.000000	118.000000
0.160000	86.170000	53.420000	613.000000	0.000000	113.000000	60.000000	40.000000	84.000000
0.170000	86.540000	54.050000	622.000000	0.000000	116.000000	60.000000	37.000000	63.000000
0.180000	86.860000	54.360000	638.000000	0.000000	118.000000	60.000000	32.000000	31.000000
0.190000	87.170000	54.450000	645.000000	0.000000	119.000000	60.000000	31.000000	9.000000
0.200000	87.470000	54.400000	661.000000	0.000000	119.000000	60.000000	30.000000	-5.000000
0.210000	87.840000	53.900000	685.000000	0.000000	122.000000	60.000000	37.000000	-50.000000
0.220000	88.270000	52.900000	699.000000	0.000000	122.000000	60.000000	43.000000	-100.000000
0.230000	88.710000	51.570000	722.000000	0.000000	122.000000	60.000000	44.000000	-133.000000
0.240000	89.080000	49.990000	751.000000	0.000000	122.000000	60.000000	37.000000	-158.000000
0.250000	89.300000	48.250000	750.000000	0.000000	120.000000	60.000000	22.000000	-174.000000
0.260000	89.430000	46.410000	750.000000	0.000000	119.000000	61.000000	13.000000	-184.000000
0.270000	89.430000	44.860000	758.000000	0.000000	117.000000	61.000000	0.000000	-155.000000
0.280000	89.430000	43.620000	751.000000	0.000000	115.000000	62.000000	0.000000	-124.000000
0.290000	89.360000	42.590000	745.000000	0.000000	113.000000	61.000000	-7.000000	-103.000000
0.300000	89.260000	41.800000	722.000000	0.000000	113.000000	61.000000	-10.000000	-79.000000
0.310000	89.040000	41.220000	719.000000	0.000000	111.000000	61.000000	-22.000000	-58.000000
0.320000	88.740000	40.790000	687.000000	0.000000	109.000000	62.000000	-30.000000	-43.000000
0.330000	88.410000	40.590000	653.000000	0.000000	109.000000	62.000000	-33.000000	-20.000000
0.340000	87.950000	40.670000	613.000000	0.000000	107.000000	62.000000	-46.000000	8.000000
0.350000	87.410000	40.930000	585.000000	0.000000	108.000000	63.000000	-54.000000	26.000000
0.360000	86.920000	41.490000	595.000000	0.000000	110.000000	63.000000	-49.000000	56.000000
0.370000	86.490000	42.350000	586.000000	0.000000	110.000000	63.000000	-43.000000	86.000000
0.380000	86.150000	43.410000	586.000000	0.000000	110.000000	63.000000	-34.000000	106.000000
0.390000	86.030000	44.440000	585.000000	0.000000	110.000000	63.000000	-12.000000	103.000000
0.400000	86.030000	45.240000	595.000000	0.000000	110.000000	63.000000	0.000000	80.000000
0.410000	86.170000	45.900000	611.000000	0.000000	110.000000	63.000000	14.000000	66.000000
0.420000	86.340000	46.180000	610.000000	0.000000	110.000000	63.000000	17.000000	28.000000
0.430000	86.600000	46.410000	631.000000	0.000000	108.000000	63.000000	26.000000	23.000000
0.440000	86.900000	46.280000	655.000000	0.000000	108.000000	63.000000	30.000000	-13.000000
0.450000	87.260000	45.930000	667.000000	0.000000	108.000000	63.000000	36.000000	-35.000000
0.460000	87.750000	45.340000	666.000000	0.000000	108.000000	63.000000	49.000000	-59.000000
0.470000	88.310000	44.900000	667.000000	0.000000	108.000000	63.000000	56.000000	-44.000000
0.480000	88.830000	44.570000	667.000000	0.000000	108.000000	63.000000	52.000000	-33.000000
0.490000	89.510000	44.450000	667.000000	0.000000	108.000000	63.000000	68.000000	-12.000000
0.500000	90.290000	44.690000	659.000000	0.000000	108.000000	63.000000	78.000000	24.000000
0.510000	91.070000	45.170000	644.000000	0.000000	108.000000	63.000000	78.000000	48.000000
0.520000	91.700000	45.780000	645.000000	0.000000	108.000000	63.000000	63.000000	61.000000
0.530000	92.220000	46.330000	630.000000	0.000000	108.000000	63.000000	52.000000	55.000000
0.540000	92.530000	46.570000	616.000000	0.000000	108.000000	63.000000	31.000000	24.000000
0.550000	92.670000	46.620000	613.000000	0.000000	108.000000	63.000000	14.000000	5.000000
0.560000	92.670000	46.550000	630.000000	0.000000	108.000000	63.000000	0.000000	-7.000000
0.570000	92.670000	46.440000	647.000000	0.000000	110.000000	63.000000	0.000000	-11.000000
0.580000	92.670000	46.160000	643.000000	0.000000	111.000000	64.000000	0.000000	-28.000000
0.590000	92.620000	45.790000	661.000000	0.000000	111.000000	64.000000	-5.000000	-37.000000
0.600000	92.700000	45.560000	664.000000	0.000000	111.000000	64.000000	8.000000	-23.000000
0.610000	92.810000	45.420000	664.000000	0.000000	111.000000	64.000000	11.000000	-14.000000
0.620000	93.000000	45.330000	684.000000	0.000000	111.000000	64.000000	19.000000	-9.000000
0.630000	93.480000	45.330000	717.000000	0.000000	111.000000	64.000000	48.000000	0.000000
0.640000	94.150000	45.330000	755.000000	0.000000	111.000000	64.000000	67.000000	0.000000
0.650000	95.010000	45.420000	797.000000	0.000000	111.000000	64.000000	86.000000	9.000000
0.660000	95.890000	45.590000	839.000000	0.000000	112.000000	64.000000	88.000000	17.000000
0.670000	97.080000	45.950000	879.000000	0.000000	112.000000	64.000000	119.000000	36.000000
0.680000	98.450000	46.430000	906.000000	0.000000	112.000000	64.000000	137.000000	48.000000
0.690000	100.370000	47.260000	920.000000	0.000000	113.000000	65.000000	192.000000	83.000000
0.700000	102.480000	48.160000	936.000000	0.000000	113.000000	65.000000	211.000000	90.000000
0.710000	104.710000	49.120000	932.000000	0.000000	114.000000	66.000000	223.000000	96.000000
0.720000	107.300000	49.790000	929.000000	0.000000	114.000000	66.000000	259.000000	67.000000
0.730000	109.780000	50.250000	926.000000	0.000000	117.000000	67.000000	248.000000	46.000000
0.740000	112.180000	50.580000	896.000000	0.000000	117.000000	67.000000	240.000000	33.000000
0.750000	114.270000	50.860000	873.000000	0.000000	117.000000	67.000000	209.000000	28.000000
0.760000	115.980000	51.140000	834.000000	0.000000	117.000000	67.000000	171.000000	28.000000
0.770000	117.430000	51.440000	728.000000	0.000000	119.000000	66.000000	145.000000	30.000000
0.780000	118.510000	51.770000	519.000000	0.000000	117.000000	67.000000	108.000000	33.000000
0.790000	118.510000	51.770000	0.000000	1.000000	117.000000	67.000000	0.000000	0.000000
0.800000	119.540000	52.140000	0.000000	0.000000	117.000000	67.000000	103.000000	37.000000
0.810000	119.430000	52.140000	0.000000	0.000000	116.000000	66.000000	-11.000000	0.000000
0.820000	119.120000	52.140000	0.000000	0.000000	116.000000	66.000000	-31.000000	0.000000
0.830000	118.670000	52.040000	0.000000	0.000000	116.000000	66.000000	-45.000000	-10.000000
0.840000	118.180000	52.040000	0.000000	0.000000	115.000000	65.000000	-49.000000	0.000000
0.850000	117.660000	52.100000	0.000000	0.000000	115.000000	65.000000	-52.000000	6.000000
0.860000	117.120000	52.100000	0.000000	0.000000	115.000000	65.000000	-54.000000	0.000000
0.870000	116.740000	52.260000	0.000000	0.000000	114.000000	64.000000	-38.000000	16.000000
0.880000	116.400000	52.600000	0.000000	0.000000	113.000000	63.000000	-34.000000	34.000000
0.890000	116.160000	52.720000	0.000000	0.000000	112.000000	62.000000	-24.000000	12.000000
0.900000	116.020000	52.980000	0.000000	0.000000	110.000000	60.000000	-14.000000	26.000000
0.910000	116.020000	53.130000	0.000000	0.000000	110.000000	58.000000	0.000000	15.000000
0.920000	115.900000	53.130000	0.000000	0.000000	109.000000	57.000000	-12.000000	0.000000
0.930000	115.790000	53.440000	0.000000	0.000000	109.000000	55.000000	-11.000000	31.000000
0.940000	115.650000	53.700000	0.000000	0.000000	107.000000	52.000000	-14.000000	26.000000
0.950000	115.360000	53.960000	0.000000	0.000000	108.000000	49.000000	-29.000000	26.000000
0.960000	114.970000	54.290000	0.000000	0.000000	106.000000	44.000000	-39.000000	33.000000
0.970000	114.520000	54.730000	0.000000	0.000000	105.000000	39.000000	-45.000000	44.000000
0.980000	113.760000	55.250000	0.000000	0.000000	104.000000	33.000000	-76.000000	52.000000
0.990000	112.790000	55.880000	0.000000	0.000000	103.000000	29.000000	-97.000000	63.000000
1.000000	111.370000	56.480000	0.000000	0.000000	104.000000	29.000000	-142.000000	60.000000
1.010000	109.700000	57.290000	0.000000	0.000000	104.000000	29.000000	-167.000000	81.000000
1.020000	107.860000	58.260000	0.000000	0.000000	104.000000	29.000000	-184.000000	97.000000
1.030000	106.350000	59.410000	0.000000	0.000000	104.000000	29.000000	-151.000000	115.000000
1.040000	104.980000	60.500000	0.000000	0.000000	104.000000	29.000000	-137.000000	109.000000
1.050000	103.690000	61.550000	0.000000	0.000000	106.000000	29.000000	-129.000000	105.000000
1.060000	102.040000	62.340000	0.000000	0.000000	109.000000	29.000000	-165.000000	79.000000
1.070000	100.210000	62.680000	0.000000	0.000000	111.000000	28.000000	-183.000000	34.000000
1.080000	98.260000	62.680000	0.000000	0.000000	114.000000	28.000000	-195.000000	0.000000
1.090000	96.700000	62.330000	0.000000	0.000000	113.000000	28.000000	-156.000000	-35.000000
1.100000	95.380000	61.610000	0.000000	0.000000	111.000000	28.000000	-132.000000	-72.000000
1.110000	94.220000	60.670000	0.000000	0.000000	110.000000	29.000000	-116.000000	-94.000000
1.120000	92.890000	59.420000	0.000000	0.000000	108.000000	29.000000	-133.000000	-125.000000
1.130000	91.830000	57.770000	0.000000	0.000000	108.000000	29.000000	-106.000000	-165.000000
1.140000	90.940000	55.860000	0.000000	0.000000	108.000000	29.000000	-89.000000	-191.000000
1.150000	90.280000	54.080000	0.000000	0.000000	108.000000	29.000000	-66.000000	-178.000000
1.160000	89.630000	52.510000	0.000000	0.000000	108.000000	29.000000	-65.000000	-157.000000
1.170000	89.400000	51.080000	0.000000	0.000000	106.000000	33.000000	-23.000000	-143.000000
1.180000	89.400000	50.220000	0.000000	0.000000	105.000000	39.000000	0.000000	-86.000000
1.190000	89.720000	49.610000	0.000000	0.000000	103.000000	46.000000	32.000000	-61.000000
1.200000	89.890000	49.170000	0.000000	0.000000	100.000000	54.000000	17.000000	-44.000000
1.210000	89.990000	48.780000	0.000000	0.000000	101.000000	54.000000	10.000000	-39.000000
1.220000	89.990000	48.390000	0.000000	0.000000	103.000000	55.000000	0.000000	-39.000000
1.230000	89.990000	47.700000	0.000000	0.000000	107.000000	56.000000	0.000000	-69.000000
1.240000	90.080000	46.830000	0.000000	0.000000	109.000000	57.000000	9.000000	-87.000000
1.250000	90.170000	46.110000	0.000000	0.000000	113.000000	58.000000	9.000000	-72.000000
1.260000	90.250000	45.340000	0.000000	0.000000	117.000000	58.000000	8.000000	-77.000000
1.270000	90.300000	44.780000	0.000000	0.000000	119.000000	58.000000	5.000000	-56.000000
1.280000	90.300000	44.380000	0.000000	0.000000	121.000000	58.000000	0.000000	-40.000000
1.290000	90.070000	44.210000	0.000000	0.000000	123.000000	59.000000	-23.000000	-17.000000
1.300000	89.800000	44.050000	0.000000	0.000000	125.000000	59.000000	-27.000000	-16.000000
1.310000	89.520000	43.920000	0.000000	0.000000	126.000000	60.000000	-28.000000	-13.000000
1.320000	89.260000	43.920000	0.000000	0.000000	125.000000	60.000000	-26.000000	0.000000
1.330000	89.160000	44.010000	0.000000	0.000000	124.000000	62.000000	-10.000000	9.000000
1.340000	89.160000	44.010000	0.000000	0.000000	124.000000	62.000000	0.000000	0.000000
1.350000	89.240000	43.930000	0.000000	0.000000	123.000000	62.000000	8.000000	-8.000000
1.360000	89.240000	43.990000	0.000000	0.000000	123.000000	62.000000	0.000000	6.000000
1.370000	89.240000	44.140000	0.000000	0.000000	123.000000	62.000000	0.000000	15.000000
1.380000	89.240000	44.330000	0.000000	0.000000	123.000000	62.000000	0.000000	19.000000
1.390000	89.240000	44.620000	0.000000	0.000000	123.000000	62.000000	0.000000	29.000000
1.400000	89.150000	44.980000	0.000000	0.000000	123.000000	62.000000	-9.000000	36.000000
1.410000	89.100000	45.370000	0.000000	0.000000	123.000000	62.000000	-5.000000	39.000000
1.420000	89.100000	45.860000	0.000000	0.000000	123.000000	62.000000	0.000000	49.000000
1.430000	89.100000	46.420000	0.000000	0.000000	123.000000	62.000000	0.000000	56.000000
1.440000	89.100000	47.070000	0.000000	0.000000	123.000000	62.000000	0.000000	65.000000
1.450000	89.100000	47.820000	0.000000	0.000000	123.000000	62.000000	0.000000	75.000000
1.460000	89.100000	48.640000	0.000000	0.000000	123.000000	62.000000	0.000000	82.000000
1.470000	89.040000	49.380000	0.000000	0.000000	123.000000	62.000000	-6.000000	74.000000
1.480000	89.040000	50.110000	0.000000	0.000000	124.000000	62.000000	0.000000	73.000000
1.490000	89.040000	50.920000	0.000000	0.000000	124.000000	62.000000	0.000000	81.000000
1.500000	89.040000	51.780000	0.000000	0.000000	125.000000	60.000000	0.000000	86.000000
1.510000	89.110000	52.370000	0.000000	0.000000	126.000000	60.000000	7.000000	59.000000
1.520000	89.110000	52.370000	191.000000	1.000000	126.000000	60.000000	0.000000	0.000000
1.530000	88.750000	54.330000	241.000000	0.000000	128.000000	59.000000	-36.000000	196.000000
1.540000	88.750000	54.630000	287.000000	0.000000	128.000000	59.000000	0.000000	30.000000
1.550000	88.750000	54.630000	344.000000	0.000000	128.000000	59.000000	0.000000	0.000000
1.560000	88.750000	54.420000	422.000000	0.000000	131.000000	60.000000	0.000000	-21.000000
1.570000	88.900000	53.530000	496.000000	0.000000	131.000000	60.000000	15.000000	-89.000000
1.580000	89.060000	51.730000	541.000000	0.000000	131.000000	60.000000	16.000000	-180.000000
1.590000	89.350000	49.320000	605.000000	0.000000	129.000000	60.000000	29.000000	-241.000000
1.600000	89.700000	46.390000	644.000000	0.000000	129.000000	60.000000	35.000000	-293.000000
1.610000	89.930000	44.080000	650.000000	0.000000	126.000000	60.000000	23.000000	-231.000000
1.620000	90.160000	42.180000	641.000000	0.000000	125.000000	60.000000	23.000000	-190.000000
1.630000	90.310000	41.020000	620.000000	0.000000	123.000000	61.000000	15.000000	-116.000000
1.640000	90.400000	40.410000	561.000000	0.000000	120.000000	60.000000	9.000000	-61.000000
1.650000	90.470000	40.180000	458.000000	0.000000	119.000000	61.000000	7.000000	-23.000000
1.660000	90.470000	40.290000	394.000000	0.000000	117.000000	61.000000	0.000000	11.000000
1.670000	90.470000	40.930000	249.000000	0.000000	118.000000	62.000000	0.000000	64.000000
1.680000	90.470000	41.930000	170.000000	0.000000	118.000000	62.000000	0.000000	100.000000
1.690000	90.400000	43.630000	200.000000	0.000000	119.000000	63.000000	-7.000000	170.000000
1.700000	90.220000	45.060000	256.000000	0.000000	120.000000	64.000000	-18.000000	143.000000
1.710000	89.990000	46.300000	312.000000	0.000000	122.000000	65.000000	-23.000000	124.000000
1.720000	89.790000	47.040000	397.000000	0.000000	122.000000	65.000000	-20.000000	74.000000
1.730000	89.680000	47.550000	456.000000	0.000000	123.000000	65.000000	-11.000000	51.000000
1.740000	89.680000	47.900000	529.000000	0.000000	122.000000	65.000000	0.000000	35.000000
1.750000	89.740000	47.900000	620.000000	0.000000	124.000000	64.000000	6.000000	0.000000
1.760000	89.930000	47.790000	693.000000	0.000000	122.000000	63.000000	19.000000	-11.000000
1.770000	90.320000	47.540000	751.000000	0.000000	121.000000	63.000000	39.000000	-25.000000
1.780000	90.850000	47.150000	785.000000	0.000000	122.000000	61.000000	53.000000	-39.000000
1.790000	91.470000	46.750000	791.000000	0.000000	120.000000	60.000000	62.000000	-40.000000
1.800000	92.010000	46.310000	793.000000	0.000000	119.000000	61.000000	54.000000	-44.000000
1.810000	92.490000	45.880000	787.000000	0.000000	119.000000	61.000000	48.000000	-43.000000
1.820000	92.820000	45.650000	770.000000	0.000000	118.000000	60.000000	33.000000	-23.000000
1.830000	93.080000	45.540000	753.000000	0.000000	116.000000	60.000000	26.000000	-11.000000
1.840000	93.290000	45.490000	734.000000	0.000000	117.000000	61.000000	21.000000	-5.000000
1.850000	93.390000	45.420000	710.000000	0.000000	115.000000	62.000000	10.000000	-7.000000
1.860000	93.390000	45.300000	659.000000	0.000000	115.000000	62.000000	0.000000	-12.000000
1.870000	93.390000	45.300000	570.000000	0.000000	115.000000	62.000000	0.000000	0.000000
1.880000	93.260000	44.900000	212.000000	0.000000	115.000000	62.000000	-13.000000	-40.000000
1.890000	93.260000	44.900000	0.000000	1.000000	116.000000	63.000000	0.000000	0.000000
1.900000	92.980000	44.510000	0.000000	0.000000	116.000000	63.000000	-28.000000	-39.000000
1.910000	92.880000	44.760000	0.000000	0.000000	117.000000	63.000000	-10.000000	25.000000
1.920000	92.780000	45.230000	0.000000	0.000000	117.000000	63.000000	-10.000000	47.000000
1.930000	92.710000	45.950000	0.000000	0.000000	117.000000	63.000000	-7.000000	72.000000
1.940000	92.550000	46.670000	0.000000	0.000000	119.000000	63.000000	-16.000000	72.000000
1.950000	92.340000	47.390000	0.000000	0.000000	119.000000	63.000000	-21.000000	72.000000
1.960000	92.120000	48.180000	0.000000	0.000000	121.000000	63.000000	-22.000000	79.000000
1.970000	91.880000	49.000000	0.000000	0.000000	121.000000	63.000000	-24.000000	82.000000
1.980000	91.620000	49.700000	0.000000	0.000000	123.000000	62.000000	-26.000000	70.000000
1.990000	91.620000	49.700000	409.000000	1.000000	123.000000	62.000000	0.000000	0.000000
2.000000	91.560000	50.400000	509.000000	0.000000	123.000000	61.000000	-6.000000	70.000000
2.010000	91.480000	50.580000	519.000000	0.000000	125.000000	60.000000	-8.000000	18.000000
2.020000	91.420000	50.580000	554.000000	0.000000	125.000000	60.000000	-6.000000	0.000000
2.030000	91.420000	50.580000	570.000000	0.000000	126.000000	60.000000	0.000000	0.000000
2.040000	91.510000	50.420000	554.000000	0.000000	125.000000	59.000000	9.000000	-16.000000
2.050000	91.640000	50.260000	448.000000	0.000000	125.000000	59.000000	13.000000	-16.000000
2.060000	91.760000	50.080000	81.000000	0.000000	127.000000	59.000000	12.000000	-18.000000
2.070000	91.760000	50.080000	0.000000	1.000000	127.000000	59.000000	0.000000	0.000000
2.080000	92.020000	50.030000	0.000000	0.000000	127.000000	59.000000	26.000000	-5.000000
2.090000	92.020000	50.210000	0.000000	0.000000	127.000000	59.000000	0.000000	18.000000
2.100000	91.860000	50.370000	0.000000	0.000000	127.000000	59.000000	-16.000000	16.000000
2.110000	91.760000	50.530000	0.000000	0.000000	125.000000	59.000000	-10.000000	16.000000
2.120000	91.670000	50.580000	0.000000	0.000000	125.000000	59.000000	-9.000000	5.000000
2.130000	91.720000	50.510000	0.000000	0.000000	124.000000	58.000000	5.000000	-7.000000
2.140000	91.850000	50.360000	0.000000	0.000000	123.000000	59.000000	13.000000	-15.000000
2.150000	92.030000	50.250000	0.000000	0.000000	121.000000	58.000000	18.000000	-11.000000
2.160000	92.320000	50.180000	0.000000	0.000000	121.000000	58.000000	29.000000	-7.000000
2.170000	92.680000	50.180000	0.000000	0.000000	120.000000	57.000000	36.000000	0.000000
2.180000	92.950000	49.990000	0.000000	0.000000	119.000000	58.000000	27.000000	-19.000000
2.190000	93.170000	49.820000	0.000000	0.000000	118.000000	57.000000	22.000000	-17.000000
2.200000	93.350000	49.650000	0.000000	0.000000	118.000000	57.000000	18.000000	-17.000000
2.210000	93.460000	49.420000	0.000000	0.000000	116.000000	57.000000	11.000000	-23.000000
