t	x	y	pressure	penup	azimuth	inclination	v_x	v_y
0.000000	93.050000	50.270000	30.000000	1.000000	131.000000	55.000000	0.000000	0.000000
0.010000	93.050000	50.270000	67.000000	0.000000	133.000000	54.000000	0.000000	0.000000
0.020000	93.020000	49.990000	99.000000	0.000000	133.000000	54.000000	-3.000000	-28.000000
0.030000	92.960000	49.560000	122.000000	0.000000	131.000000	54.000000	-6.000000	-43.000000
0.040000	92.880000	48.760000	182.000000	0.000000	131.000000	54.000000	-8.000000	-80.000000
0.050000	92.730000	47.810000	212.000000	0.000000	131.000000	54.000000	-15.000000	-95.000000
0.060000	92.550000	46.750000	214.000000	0.000000	131.000000	54.000000	-18.000000	-106.000000
0.070000	92.370000	45.820000	228.000000	0.000000	130.000000	54.000000	-18.000000	-93.000000
0.080000	92.220000	45.080000	256.000000	0.000000	129.000000	55.000000	-15.000000	-74.000000
0.090000	92.110000	44.460000	241.000000	0.000000	129.000000	55.000000	-11.000000	-62.000000
0.100000	92.050000	43.980000	256.000000	0.000000	126.000000	54.000000	-6.000000	-48.000000
0.110000	91.980000	43.700000	242.000000	0.000000	126.000000	54.000000	-7.000000	-28.000000
0.120000	91.930000	43.550000	262.000000	0.000000	125.000000	55.000000	-5.000000	-15.000000
0.130000	91.930000	43.550000	274.000000	0.000000	125.000000	55.000000	0.000000	0.000000
0.140000	91.860000	43.860000	265.000000	0.000000	125.000000	55.000000	-7.000000	31.000000
0.150000	91.810000	44.320000	275.000000	0.000000	125.000000	55.000000	-5.000000	46.000000
0.160000	91.810000	45.060000	267.000000	0.000000	125.000000	55.000000	0.000000	74.000000
0.170000	91.740000	46.120000	239.000000	0.000000	125.000000	55.000000	-7.000000	106.000000
0.180000	91.740000	47.390000	244.000000	0.000000	125.000000	55.000000	0.000000	127.000000
0.190000	91.740000	48.960000	225.000000	0.000000	125.000000	55.000000	0.000000	157.000000
0.200000	91.850000	50.120000	246.000000	0.000000	125.000000	55.000000	11.000000	116.000000
0.210000	91.940000	51.020000	254.000000	0.000000	126.000000	54.000000	9.000000	90.000000
0.220000	91.990000	51.620000	255.000000	0.000000	126.000000	54.000000	5.000000	60.000000
0.230000	91.990000	51.880000	285.000000	0.000000	129.000000	55.000000	0.000000	26.000000
0.240000	91.990000	51.880000	274.000000	0.000000	130.000000	54.000000	0.000000	0.000000
0.250000	92.070000	51.820000	291.000000	0.000000	130.000000	54.000000	8.000000	-6.000000
0.260000	92.200000	51.400000	340.000000	0.000000	131.000000	54.000000	13.000000	-42.000000
0.270000	92.370000	50.760000	361.000000	0.000000	131.000000	54.000000	17.000000	-64.000000
0.280000	92.620000	49.840000	386.000000	0.000000	133.000000	53.000000	25.000000	-92.000000
0.290000	92.900000	48.790000	391.000000	0.000000	131.000000	54.000000	28.000000	-105.000000
0.300000	93.230000	47.650000	412.000000	0.000000	131.000000	54.000000	33.000000	-114.000000
0.310000	93.610000	46.770000	417.000000	0.000000	131.000000	54.000000	38.000000	-88.000000
0.320000	94.050000	46.020000	415.000000	0.000000	130.000000	54.000000	44.000000	-75.000000
0.330000	94.470000	45.370000	417.000000	0.000000	129.000000	55.000000	42.000000	-65.000000
0.340000	94.860000	44.940000	402.000000	0.000000	129.000000	55.000000	39.000000	-43.000000
0.350000	95.140000	44.660000	393.000000	0.000000	127.000000	55.000000	28.000000	-28.000000
0.360000	95.330000	44.470000	364.000000	0.000000	126.000000	56.000000	19.000000	-19.000000
0.370000	95.400000	44.470000	349.000000	0.000000	126.000000	56.000000	7.000000	0.000000
0.380000	95.290000	44.470000	305.000000	0.000000	125.000000	56.000000	-11.000000	0.000000
0.390000	95.060000	44.630000	264.000000	0.000000	125.000000	56.000000	-23.000000	16.000000
0.400000	94.570000	44.750000	228.000000	0.000000	125.000000	56.000000	-49.000000	12.000000
0.410000	93.890000	44.840000	209.000000	0.000000	125.000000	56.000000	-68.000000	9.000000
0.420000	93.080000	44.840000	246.000000	0.000000	125.000000	56.000000	-81.000000	0.000000
0.430000	92.240000	44.840000	306.000000	0.000000	125.000000	56.000000	-84.000000	0.000000
0.440000	91.580000	44.730000	368.000000	0.000000	124.000000	55.000000	-66.000000	-11.000000
0.450000	91.040000	44.610000	391.000000	0.000000	124.000000	55.000000	-54.000000	-12.000000
0.460000	90.840000	44.530000	394.000000	0.000000	124.000000	55.000000	-20.000000	-8.000000
0.470000	90.940000	44.530000	413.000000	0.000000	124.000000	55.000000	10.000000	0.000000
0.480000	91.250000	44.530000	422.000000	0.000000	124.000000	55.000000	31.000000	0.000000
0.490000	91.850000	44.530000	435.000000	0.000000	124.000000	55.000000	60.000000	0.000000
0.500000	92.810000	44.730000	430.000000	0.000000	123.000000	55.000000	96.000000	20.000000
0.510000	94.000000	45.010000	405.000000	0.000000	123.000000	55.000000	119.000000	28.000000
0.520000	94.970000	45.240000	373.000000	0.000000	124.000000	55.000000	97.000000	23.000000
0.530000	95.610000	45.390000	299.000000	0.000000	122.000000	56.000000	64.000000	15.000000
0.540000	96.040000	45.390000	208.000000	0.000000	122.000000	56.000000	43.000000	0.000000
0.550000	96.190000	45.390000	153.000000	0.000000	122.000000	56.000000	15.000000	0.000000
0.560000	96.110000	45.280000	95.000000	0.000000	122.000000	56.000000	-8.000000	-11.000000
0.570000	95.880000	45.110000	51.000000	0.000000	122.000000	56.000000	-23.000000	-17.000000
0.580000	95.880000	45.110000	0.000000	1.000000	122.000000	56.000000	0.000000	0.000000
0.590000	95.290000	44.770000	0.000000	0.000000	122.000000	56.000000	-59.000000	-34.000000
0.600000	95.160000	44.650000	0.000000	0.000000	122.000000	56.000000	-13.000000	-12.000000
0.610000	95.160000	44.650000	0.000000	0.000000	122.000000	56.000000	0.000000	0.000000
0.620000	95.260000	44.810000	0.000000	0.000000	122.000000	56.000000	10.000000	16.000000
0.630000	95.440000	45.040000	0.000000	0.000000	123.000000	56.000000	18.000000	23.000000
0.640000	95.680000	45.310000	0.000000	0.000000	123.000000	56.000000	24.000000	27.000000
0.650000	95.680000	45.310000	13.000000	0.000000	123.000000	56.000000	0.000000	0.000000
0.660000	96.030000	45.780000	55.000000	1.000000	123.000000	56.000000	0.000000	0.000000
0.670000	96.160000	45.900000	107.000000	0.000000	123.000000	56.000000	13.000000	12.000000
0.680000	96.210000	45.900000	168.000000	0.000000	123.000000	56.000000	5.000000	0.000000
0.690000	96.210000	45.900000	223.000000	0.000000	123.000000	56.000000	0.000000	0.000000
0.700000	96.210000	45.710000	275.000000	0.000000	123.000000	56.000000	0.000000	-19.000000
0.710000	96.210000	45.470000	302.000000	0.000000	123.000000	56.000000	0.000000	-24.000000
0.720000	96.260000	45.170000	333.000000	0.000000	123.000000	56.000000	5.000000	-30.000000
0.730000	96.260000	44.860000	364.000000	0.000000	123.000000	56.000000	0.000000	-31.000000
0.740000	96.430000	44.530000	373.000000	0.000000	122.000000	56.000000	17.000000	-33.000000
0.750000	96.590000	44.340000	371.000000	0.000000	122.000000	56.000000	16.000000	-19.000000
0.760000	96.790000	44.250000	371.000000	0.000000	122.000000	56.000000	20.000000	-9.000000
0.770000	97.000000	44.200000	369.000000	0.000000	124.000000	55.000000	21.000000	-5.000000
0.780000	97.240000	44.300000	372.000000	0.000000	124.000000	55.000000	24.000000	10.000000
0.790000	97.540000	44.510000	364.000000	0.000000	125.000000	56.000000	30.000000	21.000000
0.800000	97.840000	44.880000	349.000000	0.000000	125.000000	56.000000	30.000000	37.000000
0.810000	98.130000	45.260000	344.000000	0.000000	125.000000	56.000000	29.000000	38.000000
0.820000	98.320000	45.660000	343.000000	0.000000	125.000000	56.000000	19.000000	40.000000
0.830000	98.390000	45.930000	371.000000	0.000000	123.000000	56.000000	7.000000	27.000000
0.840000	98.390000	46.050000	389.000000	0.000000	123.000000	56.000000	0.000000	12.000000
0.850000	98.390000	46.050000	423.000000	0.000000	123.000000	56.000000	0.000000	0.000000
0.860000	98.390000	46.050000	422.000000	0.000000	123.000000	56.000000	0.000000	0.000000
0.870000	98.390000	45.930000	433.000000	0.000000	123.000000	56.000000	0.000000	-12.000000
0.880000	98.390000	45.730000	443.000000	0.000000	123.000000	56.000000	0.000000	-20.000000
0.890000	98.500000	45.470000	448.000000	0.000000	123.000000	56.000000	11.000000	-26.000000
0.900000	98.680000	45.230000	449.000000	0.000000	123.000000	56.000000	18.000000	-24.000000
0.910000	98.970000	45.010000	449.000000	0.000000	123.000000	56.000000	29.000000	-22.000000
0.920000	99.350000	44.910000	438.000000	0.000000	123.000000	56.000000	38.000000	-10.000000
0.930000	99.700000	44.910000	430.000000	0.000000	123.000000	56.000000	35.000000	0.000000
0.940000	100.010000	44.990000	428.000000	0.000000	123.000000	56.000000	31.000000	8.000000
0.950000	100.230000	45.090000	427.000000	0.000000	123.000000	56.000000	22.000000	10.000000
0.960000	100.450000	45.220000	435.000000	0.000000	123.000000	56.000000	22.000000	13.000000
0.970000	100.520000	45.370000	448.000000	0.000000	123.000000	56.000000	7.000000	15.000000
0.980000	100.520000	45.370000	480.000000	0.000000	123.000000	56.000000	0.000000	0.000000
0.990000	100.470000	45.420000	496.000000	0.000000	123.000000	56.000000	-5.000000	5.000000
1.000000	100.470000	45.360000	493.000000	0.000000	123.000000	56.000000	0.000000	-6.000000
1.010000	100.470000	45.280000	493.000000	0.000000	123.000000	56.000000	0.000000	-8.000000
1.020000	100.530000	45.150000	485.000000	0.000000	123.000000	56.000000	6.000000	-13.000000
1.030000	100.670000	45.000000	442.000000	0.000000	123.000000	56.000000	14.000000	-15.000000
1.040000	100.880000	44.840000	371.000000	0.000000	123.000000	56.000000	21.000000	-16.000000
1.050000	101.120000	44.780000	202.000000	0.000000	123.000000	56.000000	24.000000	-6.000000
1.060000	101.120000	44.780000	0.000000	1.000000	123.000000	56.000000	0.000000	0.000000
1.070000	101.730000	44.840000	0.000000	0.000000	123.000000	56.000000	61.000000	6.000000
1.080000	102.070000	44.980000	0.000000	0.000000	124.000000	57.000000	34.000000	14.000000
1.090000	102.240000	45.170000	0.000000	0.000000	124.000000	57.000000	17.000000	19.000000
1.100000	102.320000	45.340000	0.000000	0.000000	124.000000	57.000000	8.000000	17.000000
1.110000	102.470000	45.490000	0.000000	0.000000	124.000000	57.000000	15.000000	15.000000
1.120000	102.630000	45.600000	0.000000	0.000000	124.000000	57.000000	16.000000	11.000000
1.130000	102.800000	45.700000	0.000000	0.000000	124.000000	57.000000	17.000000	10.000000
1.140000	102.970000	45.790000	0.000000	0.000000	126.000000	57.000000	17.000000	9.000000
1.150000	103.080000	45.880000	0.000000	0.000000	126.000000	57.000000	11.000000	9.000000
1.160000	103.150000	45.970000	0.000000	0.000000	126.000000	57.000000	7.000000	9.000000
1.170000	103.150000	45.970000	220.000000	1.000000	126.000000	57.000000	0.000000	0.000000
1.180000	103.150000	45.970000	276.000000	0.000000	123.000000	56.000000	0.000000	0.000000
1.190000	102.680000	46.390000	371.000000	0.000000	124.000000	57.000000	-47.000000	42.000000
1.200000	102.470000	46.470000	398.000000	0.000000	124.000000	57.000000	-21.000000	8.000000
1.210000	102.170000	46.470000	438.000000	0.000000	124.000000	57.000000	-30.000000	0.000000
1.220000	101.800000	46.370000	448.000000	0.000000	124.000000	57.000000	-37.000000	-10.000000
1.230000	101.470000	46.160000	442.000000	0.000000	124.000000	57.000000	-33.000000	-21.000000
1.240000	101.280000	45.870000	447.000000	0.000000	124.000000	57.000000	-19.000000	-29.000000
1.250000	101.170000	45.620000	440.000000	0.000000	124.000000	57.000000	-11.000000	-25.000000
1.260000	101.250000	45.390000	439.000000	0.000000	124.000000	57.000000	8.000000	-23.000000
1.270000	101.250000	45.390000	438.000000	0.000000	124.000000	57.000000	0.000000	0.000000
1.280000	101.680000	45.190000	425.000000	0.000000	124.000000	57.000000	43.000000	-20.000000
1.290000	102.070000	45.190000	376.000000	0.000000	123.000000	58.000000	39.000000	0.000000
1.300000	102.490000	45.380000	354.000000	0.000000	123.000000	58.000000	42.000000	19.000000
1.310000	102.890000	45.590000	343.000000	0.000000	122.000000	57.000000	40.000000	21.000000
1.320000	103.090000	45.780000	354.000000	0.000000	122.000000	57.000000	20.000000	19.000000
1.330000	103.200000	45.840000	396.000000	0.000000	122.000000	57.000000	11.000000	6.000000
1.340000	103.130000	45.840000	456.000000	0.000000	122.000000	57.000000	-7.000000	0.000000
1.350000	103.060000	45.770000	490.000000	0.000000	122.000000	57.000000	-7.000000	-7.000000
1.360000	102.990000	45.700000	492.000000	0.000000	122.000000	57.000000	-7.000000	-7.000000
1.370000	102.920000	45.550000	509.000000	0.000000	122.000000	57.000000	-7.000000	-15.000000
1.380000	102.980000	45.320000	501.000000	0.000000	122.000000	57.000000	6.000000	-23.000000
1.390000	103.090000	45.130000	467.000000	0.000000	123.000000	58.000000	11.000000	-19.000000
1.400000	103.330000	44.980000	325.000000	0.000000	123.000000	58.000000	24.000000	-15.000000
1.410000	103.330000	44.980000	0.000000	1.000000	123.000000	58.000000	0.000000	0.000000
1.420000	104.350000	45.140000	0.000000	0.000000	123.000000	58.000000	102.000000	16.000000
1.430000	104.750000	45.520000	0.000000	0.000000	123.000000	58.000000	40.000000	38.000000
1.440000	104.850000	46.070000	0.000000	0.000000	124.000000	57.000000	10.000000	55.000000
1.450000	104.750000	46.600000	0.000000	0.000000	124.000000	57.000000	-10.000000	53.000000
1.460000	105.260000	47.080000	0.000000	0.000000	125.000000	56.000000	51.000000	48.000000
1.470000	105.560000	47.570000	0.000000	0.000000	126.000000	56.000000	30.000000	49.000000
1.480000	105.710000	48.080000	0.000000	0.000000	127.000000	55.000000	15.000000	51.000000
1.490000	105.920000	48.570000	0.000000	0.000000	128.000000	54.000000	21.000000	49.000000
1.500000	106.140000	49.090000	0.000000	0.000000	128.000000	54.000000	22.000000	52.000000
1.510000	106.370000	49.540000	0.000000	0.000000	128.000000	54.000000	23.000000	45.000000
1.520000	106.580000	50.020000	0.000000	0.000000	128.000000	54.000000	21.000000	48.000000
1.530000	106.790000	50.520000	0.000000	0.000000	132.000000	51.000000	21.000000	50.000000
1.540000	106.910000	50.880000	0.000000	0.000000	136.000000	49.000000	12.000000	36.000000
1.550000	106.970000	51.120000	0.000000	0.000000	139.000000	46.000000	6.000000	24.000000
1.560000	106.900000	51.290000	0.000000	0.000000	144.000000	43.000000	-7.000000	17.000000
1.570000	106.370000	51.200000	0.000000	0.000000	145.000000	43.000000	-53.000000	-9.000000
1.580000	105.540000	51.200000	0.000000	0.000000	143.000000	45.000000	-83.000000	0.000000
1.590000	105.040000	51.200000	0.000000	0.000000	143.000000	48.000000	-50.000000	0.000000
1.600000	104.510000	51.050000	0.000000	0.000000	140.000000	51.000000	-53.000000	-15.000000
1.610000	103.960000	51.050000	0.000000	0.000000	136.000000	54.000000	-55.000000	0.000000
1.620000	103.690000	51.050000	0.000000	0.000000	132.000000	55.000000	-27.000000	0.000000
1.630000	103.530000	51.050000	0.000000	0.000000	130.000000	56.000000	-16.000000	0.000000
1.640000	103.430000	51.050000	0.000000	0.000000	128.000000	57.000000	-10.000000	0.000000
1.650000	103.370000	51.050000	0.000000	0.000000	127.000000	57.000000	-6.000000	0.000000
1.660000	103.290000	50.990000	0.000000	0.000000	124.000000	57.000000	-8.000000	-6.000000
1.670000	103.200000	50.890000	0.000000	0.000000	123.000000	56.000000	-9.000000	-10.000000
1.680000	103.100000	50.730000	0.000000	0.000000	120.000000	55.000000	-10.000000	-16.000000
1.690000	103.010000	50.540000	0.000000	0.000000	120.000000	54.000000	-9.000000	-19.000000
1.700000	102.950000	50.320000	0.000000	0.000000	120.000000	54.000000	-6.000000	-22.000000
1.710000	102.950000	50.110000	0.000000	0.000000	120.000000	54.000000	0.000000	-21.000000
1.720000	102.840000	49.890000	0.000000	0.000000	120.000000	54.000000	-11.000000	-22.000000
1.730000	102.610000	49.760000	0.000000	0.000000	121.000000	55.000000	-23.000000	-13.000000
1.740000	102.540000	49.670000	0.000000	0.000000	122.000000	56.000000	-7.000000	-9.000000
1.750000	102.490000	49.570000	0.000000	0.000000	123.000000	56.000000	-5.000000	-10.000000
1.760000	102.490000	49.460000	0.000000	0.000000	124.000000	57.000000	0.000000	-11.000000
1.770000	102.400000	49.560000	0.000000	0.000000	126.000000	58.000000	-9.000000	10.000000
1.780000	102.400000	49.820000	0.000000	0.000000	126.000000	58.000000	0.000000	26.000000
1.790000	102.400000	50.060000	0.000000	0.000000	127.000000	59.000000	0.000000	24.000000
1.800000	102.400000	50.290000	0.000000	0.000000	129.000000	59.000000	0.000000	23.000000
1.810000	102.470000	50.480000	0.000000	0.000000	129.000000	59.000000	7.000000	19.000000
1.820000	102.530000	50.630000	0.000000	0.000000	132.000000	59.000000	6.000000	15.000000
1.830000	102.600000	50.720000	0.000000	0.000000	132.000000	59.000000	7.000000	9.000000
1.840000	102.600000	50.720000	0.000000	0.000000	134.000000	58.000000	0.000000	0.000000
1.850000	102.480000	50.720000	0.000000	0.000000	136.000000	58.000000	-12.000000	0.000000
1.860000	102.390000	50.720000	0.000000	0.000000	136.000000	58.000000	-9.000000	0.000000
1.870000	102.390000	50.720000	0.000000	0.000000	136.000000	58.000000	0.000000	0.000000
1.880000	102.390000	50.720000	0.000000	0.000000	139.000000	58.000000	0.000000	0.000000
1.890000	102.390000	50.720000	0.000000	0.000000	139.000000	58.000000	0.000000	0.000000
1.900000	102.390000	50.720000	0.000000	0.000000	139.000000	58.000000	0.000000	0.000000
1.910000	102.640000	50.720000	0.000000	0.000000	141.000000	59.000000	25.000000	0.000000
1.920000	102.800000	50.720000	0.000000	0.000000	142.000000	58.000000	16.000000	0.000000
1.930000	102.920000	50.770000	0.000000	0.000000	143.000000	59.000000	12.000000	5.000000
1.940000	103.010000	50.770000	0.000000	0.000000	143.000000	59.000000	9.000000	0.000000
1.950000	103.200000	50.770000	0.000000	0.000000	145.000000	59.000000	19.000000	0.000000
1.960000	103.200000	50.770000	46.000000	1.000000	145.000000	59.000000	0.000000	0.000000
1.970000	103.570000	50.770000	120.000000	0.000000	145.000000	59.000000	37.000000	0.000000
1.980000	103.660000	50.890000	149.000000	0.000000	145.000000	59.000000	9.000000	12.000000
1.990000	103.660000	50.980000	173.000000	0.000000	147.000000	59.000000	0.000000	9.000000
2.000000	103.720000	51.030000	205.000000	0.000000	147.000000	59.000000	6.000000	5.000000
2.010000	103.720000	51.080000	223.000000	0.000000	147.000000	59.000000	0.000000	5.000000
2.020000	103.630000	51.160000	316.000000	0.000000	147.000000	59.000000	-9.000000	8.000000
2.030000	103.460000	51.260000	341.000000	0.000000	147.000000	59.000000	-17.000000	10.000000
2.040000	103.130000	51.350000	363.000000	0.000000	147.000000	59.000000	-33.000000	9.000000
2.050000	102.680000	51.400000	371.000000	0.000000	147.000000	59.000000	-45.000000	5.000000
2.060000	101.970000	51.400000	381.000000	0.000000	147.000000	59.000000	-71.000000	0.000000
2.070000	101.140000	51.310000	379.000000	0.000000	146.000000	58.000000	-83.000000	-9.000000
2.080000	100.230000	51.220000	377.000000	0.000000	146.000000	58.000000	-91.000000	-9.000000
2.090000	98.960000	51.060000	387.000000	0.000000	146.000000	58.000000	-127.000000	-16.000000
2.100000	97.660000	50.890000	414.000000	0.000000	146.000000	57.000000	-130.000000	-17.000000
2.110000	96.340000	50.720000	458.000000	0.000000	146.000000	57.000000	-132.000000	-17.000000
2.120000	95.160000	50.500000	495.000000	0.000000	146.000000	57.000000	-118.000000	-22.000000
2.130000	93.970000	50.240000	510.000000	0.000000	144.000000	57.000000	-119.000000	-26.000000
2.140000	92.810000	49.910000	522.000000	0.000000	144.000000	57.000000	-116.000000	-33.000000
2.150000	91.860000	49.570000	527.000000	0.000000	145.000000	56.000000	-95.000000	-34.000000
2.160000	91.020000	49.240000	540.000000	0.000000	144.000000	56.000000	-84.000000	-33.000000
2.170000	90.470000	48.980000	536.000000	0.000000	144.000000	56.000000	-55.000000	-26.000000
2.180000	90.170000	48.750000	536.000000	0.000000	144.000000	56.000000	-30.000000	-23.000000
2.190000	90.040000	48.640000	536.000000	0.000000	144.000000	56.000000	-13.000000	-11.000000
2.200000	90.130000	48.520000	546.000000	0.000000	143.000000	56.000000	9.000000	-12.000000
