t	x	y	pressure	penup	azimuth	inclination	v_x	v_y
0.000000	54.690000	47.580000	108.000000	1.000000	134.000000	61.000000	0.000000	0.000000
0.010000	54.690000	47.580000	139.000000	0.000000	134.000000	61.000000	0.000000	0.000000
0.020000	54.690000	47.580000	200.000000	0.000000	134.000000	61.000000	0.000000	0.000000
0.030000	54.690000	47.580000	275.000000	0.000000	134.000000	61.000000	0.000000	0.000000
0.040000	54.690000	47.580000	324.000000	0.000000	134.000000	61.000000	0.000000	0.000000
0.050000	54.980000	47.800000	343.000000	0.000000	134.000000	61.000000	29.000000	22.000000
0.060000	55.050000	47.910000	381.000000	0.000000	134.000000	61.000000	7.000000	11.000000
0.070000	55.160000	48.090000	398.000000	0.000000	135.000000	62.000000	11.000000	18.000000
0.080000	55.310000	48.320000	399.000000	0.000000	135.000000	62.000000	15.000000	23.000000
0.090000	55.500000	48.580000	402.000000	0.000000	135.000000	62.000000	19.000000	26.000000
0.100000	55.710000	48.930000	420.000000	0.000000	135.000000	62.000000	21.000000	35.000000
0.110000	55.920000	49.340000	423.000000	0.000000	136.000000	61.000000	21.000000	41.000000
0.120000	56.140000	49.820000	415.000000	0.000000	136.000000	61.000000	22.000000	48.000000
0.130000	56.350000	50.390000	405.000000	0.000000	138.000000	61.000000	21.000000	57.000000
0.140000	56.490000	51.010000	404.000000	0.000000	139.000000	61.000000	14.000000	62.000000
0.150000	56.570000	51.640000	392.000000	0.000000	139.000000	61.000000	8.000000	63.000000
0.160000	56.650000	52.270000	394.000000	0.000000	141.000000	60.000000	8.000000	63.000000
0.170000	56.650000	52.910000	397.000000	0.000000	141.000000	60.000000	0.000000	64.000000
0.180000	56.650000	53.380000	400.000000	0.000000	141.000000	60.000000	0.000000	47.000000
0.190000	56.560000	53.680000	400.000000	0.000000	142.000000	59.000000	-9.000000	30.000000
0.200000	56.510000	53.870000	407.000000	0.000000	142.000000	59.000000	-5.000000	19.000000
0.210000	56.510000	53.870000	413.000000	0.000000	142.000000	59.000000	0.000000	0.000000
0.220000	56.510000	53.870000	425.000000	0.000000	143.000000	59.000000	0.000000	0.000000
0.230000	56.580000	53.620000	415.000000	0.000000	143.000000	59.000000	7.000000	-25.000000
0.240000	56.670000	53.280000	417.000000	0.000000	143.000000	59.000000	9.000000	-34.000000
0.250000	56.870000	52.830000	418.000000	0.000000	143.000000	59.000000	20.000000	-45.000000
0.260000	57.140000	52.350000	428.000000	0.000000	143.000000	59.000000	27.000000	-48.000000
0.270000	57.450000	51.790000	443.000000	0.000000	143.000000	59.000000	31.000000	-56.000000
0.280000	57.760000	51.240000	453.000000	0.000000	145.000000	59.000000	31.000000	-55.000000
0.290000	57.990000	50.720000	474.000000	0.000000	145.000000	59.000000	23.000000	-52.000000
0.300000	58.170000	50.210000	475.000000	0.000000	145.000000	59.000000	18.000000	-51.000000
0.310000	58.340000	49.730000	480.000000	0.000000	144.000000	60.000000	17.000000	-48.000000
0.320000	58.440000	49.350000	490.000000	0.000000	142.000000	59.000000	10.000000	-38.000000
0.330000	58.490000	49.030000	496.000000	0.000000	142.000000	59.000000	5.000000	-32.000000
0.340000	58.550000	48.780000	488.000000	0.000000	139.000000	60.000000	6.000000	-25.000000
0.350000	58.600000	48.620000	488.000000	0.000000	139.000000	60.000000	5.000000	-16.000000
0.360000	58.600000	48.530000	494.000000	0.000000	138.000000	59.000000	0.000000	-9.000000
0.370000	58.600000	48.530000	509.000000	0.000000	136.000000	60.000000	0.000000	0.000000
0.380000	58.600000	48.580000	519.000000	0.000000	136.000000	60.000000	0.000000	5.000000
0.390000	58.600000	48.650000	519.000000	0.000000	136.000000	60.000000	0.000000	7.000000
0.400000	58.510000	48.900000	512.000000	0.000000	136.000000	60.000000	-9.000000	25.000000
0.410000	58.410000	49.220000	513.000000	0.000000	136.000000	60.000000	-10.000000	32.000000
0.420000	58.280000	49.590000	520.000000	0.000000	136.000000	60.000000	-13.000000	37.000000
0.430000	58.080000	49.950000	515.000000	0.000000	136.000000	60.000000	-20.000000	36.000000
0.440000	57.840000	50.290000	515.000000	0.000000	136.000000	60.000000	-24.000000	34.000000
0.450000	57.560000	50.620000	516.000000	0.000000	138.000000	59.000000	-28.000000	33.000000
0.460000	57.280000	50.910000	519.000000	0.000000	139.000000	60.000000	-28.000000	29.000000
0.470000	57.010000	51.140000	526.000000	0.000000	139.000000	60.000000	-27.000000	23.000000
0.480000	56.760000	51.280000	530.000000	0.000000	141.000000	59.000000	-25.000000	14.000000
0.490000	56.540000	51.350000	535.000000	0.000000	141.000000	59.000000	-22.000000	7.000000
0.500000	56.380000	51.350000	538.000000	0.000000	142.000000	59.000000	-16.000000	0.000000
0.510000	56.310000	51.350000	537.000000	0.000000	142.000000	59.000000	-7.000000	0.000000
0.520000	56.250000	51.350000	538.000000	0.000000	142.000000	59.000000	-6.000000	0.000000
0.530000	56.200000	51.300000	532.000000	0.000000	143.000000	59.000000	-5.000000	-5.000000
0.540000	56.200000	51.300000	527.000000	0.000000	143.000000	59.000000	0.000000	0.000000
0.550000	56.200000	51.250000	524.000000	0.000000	143.000000	59.000000	0.000000	-5.000000
0.560000	56.200000	51.250000	527.000000	0.000000	142.000000	58.000000	0.000000	0.000000
0.570000	56.280000	51.190000	535.000000	0.000000	142.000000	58.000000	8.000000	-6.000000
0.580000	56.360000	51.130000	532.000000	0.000000	142.000000	58.000000	8.000000	-6.000000
0.590000	56.460000	51.060000	537.000000	0.000000	142.000000	58.000000	10.000000	-7.000000
0.600000	56.580000	51.010000	544.000000	0.000000	142.000000	58.000000	12.000000	-5.000000
0.610000	56.750000	51.010000	546.000000	0.000000	143.000000	59.000000	17.000000	0.000000
0.620000	57.030000	50.950000	546.000000	0.000000	143.000000	59.000000	28.000000	-6.000000
0.630000	57.370000	50.950000	537.000000	0.000000	143.000000	59.000000	34.000000	0.000000
0.640000	57.790000	50.880000	536.000000	0.000000	143.000000	59.000000	42.000000	-7.000000
0.650000	58.230000	50.880000	546.000000	0.000000	143.000000	59.000000	44.000000	0.000000
0.660000	58.650000	50.780000	544.000000	0.000000	143.000000	59.000000	42.000000	-10.000000
0.670000	58.980000	50.780000	544.000000	0.000000	143.000000	59.000000	33.000000	0.000000
0.680000	59.270000	50.700000	546.000000	0.000000	142.000000	58.000000	29.000000	-8.000000
0.690000	59.380000	50.700000	537.000000	0.000000	142.000000	58.000000	11.000000	0.000000
0.700000	59.460000	50.700000	536.000000	0.000000	142.000000	58.000000	8.000000	0.000000
0.710000	59.510000	50.700000	546.000000	0.000000	142.000000	58.000000	5.000000	0.000000
0.720000	59.510000	50.650000	536.000000	0.000000	142.000000	58.000000	0.000000	-5.000000
0.730000	59.510000	50.650000	546.000000	0.000000	142.000000	58.000000	0.000000	0.000000
0.740000	59.510000	50.650000	536.000000	0.000000	142.000000	58.000000	0.000000	0.000000
0.750000	59.510000	50.650000	546.000000	0.000000	142.000000	58.000000	0.000000	0.000000
0.760000	59.510000	50.650000	536.000000	0.000000	142.000000	58.000000	0.000000	0.000000
0.770000	59.510000	50.650000	544.000000	0.000000	142.000000	58.000000	0.000000	0.000000
0.780000	59.510000	50.650000	537.000000	0.000000	142.000000	58.000000	0.000000	0.000000
0.790000	59.510000	50.650000	538.000000	0.000000	142.000000	58.000000	0.000000	0.000000
0.800000	59.510000	50.590000	543.000000	0.000000	140.000000	58.000000	0.000000	-6.000000
0.810000	59.510000	50.590000	544.000000	0.000000	140.000000	58.000000	0.000000	0.000000
0.820000	59.510000	50.520000	546.000000	0.000000	140.000000	58.000000	0.000000	-7.000000
0.830000	59.510000	50.470000	544.000000	0.000000	140.000000	58.000000	0.000000	-5.000000
0.840000	59.510000	50.400000	544.000000	0.000000	140.000000	58.000000	0.000000	-7.000000
0.850000	59.570000	50.280000	545.000000	0.000000	140.000000	58.000000	6.000000	-12.000000
0.860000	59.640000	50.110000	548.000000	0.000000	139.000000	58.000000	7.000000	-17.000000
0.870000	59.730000	49.890000	556.000000	0.000000	139.000000	58.000000	9.000000	-22.000000
0.880000	59.810000	49.660000	565.000000	0.000000	141.000000	59.000000	8.000000	-23.000000
0.890000	59.890000	49.420000	565.000000	0.000000	141.000000	59.000000	8.000000	-24.000000
0.900000	60.010000	49.180000	570.000000	0.000000	139.000000	60.000000	12.000000	-24.000000
0.910000	60.010000	49.180000	561.000000	0.000000	139.000000	60.000000	0.000000	0.000000
0.920000	60.260000	48.800000	560.000000	0.000000	139.000000	60.000000	25.000000	-38.000000
0.930000	60.420000	48.670000	560.000000	0.000000	139.000000	60.000000	16.000000	-13.000000
0.940000	60.520000	48.570000	561.000000	0.000000	139.000000	60.000000	10.000000	-10.000000
0.950000	60.590000	48.510000	564.000000	0.000000	138.000000	60.000000	7.000000	-6.000000
0.960000	60.590000	48.510000	565.000000	0.000000	138.000000	60.000000	0.000000	0.000000
0.970000	60.650000	48.510000	568.000000	0.000000	138.000000	60.000000	6.000000	0.000000
0.980000	60.650000	48.590000	568.000000	0.000000	138.000000	60.000000	0.000000	8.000000
0.990000	60.720000	48.730000	565.000000	0.000000	138.000000	60.000000	7.000000	14.000000
1.000000	60.720000	48.930000	564.000000	0.000000	138.000000	60.000000	0.000000	20.000000
1.010000	60.790000	49.240000	551.000000	0.000000	138.000000	60.000000	7.000000	31.000000
1.020000	60.790000	49.550000	542.000000	0.000000	138.000000	60.000000	0.000000	31.000000
1.030000	60.790000	49.860000	539.000000	0.000000	138.000000	60.000000	0.000000	31.000000
1.040000	60.790000	50.060000	536.000000	0.000000	138.000000	60.000000	0.000000	20.000000
1.050000	60.790000	50.240000	546.000000	0.000000	141.000000	60.000000	0.000000	18.000000
1.060000	60.790000	50.400000	546.000000	0.000000	141.000000	60.000000	0.000000	16.000000
1.070000	60.790000	50.520000	537.000000	0.000000	141.000000	60.000000	0.000000	12.000000
1.080000	60.790000	50.520000	542.000000	0.000000	142.000000	59.000000	0.000000	0.000000
1.090000	60.790000	50.520000	546.000000	0.000000	142.000000	59.000000	0.000000	0.000000
1.100000	60.790000	50.520000	545.000000	0.000000	144.000000	60.000000	0.000000	0.000000
1.110000	60.790000	50.520000	551.000000	0.000000	144.000000	60.000000	0.000000	0.000000
1.120000	60.790000	50.140000	553.000000	0.000000	145.000000	59.000000	0.000000	-38.000000
1.130000	60.930000	49.900000	562.000000	0.000000	145.000000	59.000000	14.000000	-24.000000
1.140000	61.000000	49.680000	570.000000	0.000000	144.000000	60.000000	7.000000	-22.000000
1.150000	61.050000	49.470000	567.000000	0.000000	144.000000	60.000000	5.000000	-21.000000
1.160000	61.260000	49.280000	572.000000	0.000000	144.000000	60.000000	21.000000	-19.000000
1.170000	61.440000	49.100000	575.000000	0.000000	142.000000	59.000000	18.000000	-18.000000
1.180000	61.600000	48.960000	578.000000	0.000000	141.000000	60.000000	16.000000	-14.000000
1.190000	61.790000	48.860000	570.000000	0.000000	141.000000	60.000000	19.000000	-10.000000
1.200000	61.970000	48.780000	570.000000	0.000000	141.000000	60.000000	18.000000	-8.000000
1.210000	62.120000	48.780000	537.000000	0.000000	141.000000	60.000000	15.000000	0.000000
1.220000	62.230000	48.780000	520.000000	0.000000	141.000000	60.000000	11.000000	0.000000
1.230000	62.340000	48.780000	440.000000	0.000000	141.000000	60.000000	11.000000	0.000000
1.240000	62.470000	48.840000	327.000000	0.000000	141.000000	60.000000	13.000000	6.000000
1.250000	62.580000	48.960000	205.000000	0.000000	141.000000	60.000000	11.000000	12.000000
1.260000	62.690000	49.140000	88.000000	0.000000	141.000000	60.000000	11.000000	18.000000
1.270000	62.800000	49.330000	49.000000	0.000000	142.000000	61.000000	11.000000	19.000000
1.280000	62.930000	49.520000	22.000000	0.000000	142.000000	61.000000	13.000000	19.000000
1.290000	63.060000	49.690000	36.000000	0.000000	142.000000	61.000000	13.000000	17.000000
1.300000	63.170000	49.840000	85.000000	0.000000	142.000000	61.000000	11.000000	15.000000
1.310000	63.230000	49.990000	153.000000	0.000000	142.000000	61.000000	6.000000	15.000000
1.320000	63.230000	50.090000	228.000000	0.000000	142.000000	61.000000	0.000000	10.000000
1.330000	63.290000	50.190000	282.000000	0.000000	142.000000	61.000000	6.000000	10.000000
1.340000	63.290000	50.260000	361.000000	0.000000	142.000000	61.000000	0.000000	7.000000
1.350000	63.180000	50.260000	410.000000	0.000000	144.000000	60.000000	-11.000000	0.000000
1.360000	63.130000	50.310000	455.000000	0.000000	144.000000	60.000000	-5.000000	5.000000
1.370000	63.020000	50.310000	488.000000	0.000000	144.000000	60.000000	-11.000000	0.000000
1.380000	62.860000	50.310000	492.000000	0.000000	144.000000	60.000000	-16.000000	0.000000
1.390000	62.720000	50.160000	522.000000	0.000000	144.000000	60.000000	-14.000000	-15.000000
1.400000	62.550000	49.990000	518.000000	0.000000	145.000000	59.000000	-17.000000	-17.000000
1.410000	62.350000	49.790000	521.000000	0.000000	145.000000	59.000000	-20.000000	-20.000000
1.420000	62.350000	49.790000	526.000000	0.000000	144.000000	60.000000	0.000000	0.000000
1.430000	62.250000	49.400000	526.000000	0.000000	144.000000	60.000000	-10.000000	-39.000000
1.440000	62.250000	49.280000	537.000000	0.000000	144.000000	60.000000	0.000000	-12.000000
1.450000	62.360000	49.200000	546.000000	0.000000	144.000000	60.000000	11.000000	-8.000000
1.460000	62.620000	49.150000	536.000000	0.000000	142.000000	59.000000	26.000000	-5.000000
1.470000	62.950000	49.150000	544.000000	0.000000	141.000000	60.000000	33.000000	0.000000
1.480000	63.250000	49.290000	537.000000	0.000000	141.000000	60.000000	30.000000	14.000000
1.490000	63.560000	49.390000	540.000000	0.000000	141.000000	60.000000	31.000000	10.000000
1.500000	63.750000	49.470000	541.000000	0.000000	141.000000	60.000000	19.000000	8.000000
1.510000	63.860000	49.470000	543.000000	0.000000	142.000000	61.000000	11.000000	0.000000
1.520000	63.980000	49.470000	570.000000	0.000000	142.000000	61.000000	12.000000	0.000000
1.530000	64.120000	49.370000	578.000000	0.000000	142.000000	61.000000	14.000000	-10.000000
1.540000	64.260000	49.220000	594.000000	0.000000	144.000000	61.000000	14.000000	-15.000000
1.550000	64.400000	49.090000	614.000000	0.000000	144.000000	61.000000	14.000000	-13.000000
1.560000	64.590000	48.970000	620.000000	0.000000	144.000000	61.000000	19.000000	-12.000000
1.570000	64.800000	48.910000	614.000000	0.000000	144.000000	61.000000	21.000000	-6.000000
1.580000	65.010000	48.910000	606.000000	0.000000	144.000000	61.000000	21.000000	0.000000
1.590000	65.160000	48.910000	577.000000	0.000000	144.000000	61.000000	15.000000	0.000000
1.600000	65.270000	48.910000	521.000000	0.000000	144.000000	61.000000	11.000000	0.000000
1.610000	65.350000	48.910000	449.000000	0.000000	144.000000	61.000000	8.000000	0.000000
1.620000	65.350000	48.910000	309.000000	0.000000	144.000000	61.000000	0.000000	0.000000
1.630000	65.350000	48.990000	54.000000	0.000000	144.000000	61.000000	0.000000	8.000000
1.640000	65.350000	48.990000	0.000000	1.000000	144.000000	61.000000	0.000000	0.000000
1.650000	65.070000	49.160000	0.000000	0.000000	144.000000	61.000000	-28.000000	17.000000
1.660000	64.890000	49.220000	0.000000	0.000000	144.000000	61.000000	-18.000000	6.000000
1.670000	64.760000	49.290000	0.000000	0.000000	144.000000	61.000000	-13.000000	7.000000
1.680000	64.640000	49.350000	0.000000	0.000000	144.000000	61.000000	-12.000000	6.000000
1.690000	64.530000	49.420000	0.000000	0.000000	144.000000	61.000000	-11.000000	7.000000
1.700000	64.470000	49.420000	0.000000	0.000000	144.000000	61.000000	-6.000000	0.000000
1.710000	64.380000	49.420000	0.000000	0.000000	144.000000	61.000000	-9.000000	0.000000
1.720000	64.260000	49.420000	0.000000	0.000000	142.000000	61.000000	-12.000000	0.000000
1.730000	64.180000	49.420000	0.000000	0.000000	142.000000	61.000000	-8.000000	0.000000
1.740000	64.080000	49.360000	0.000000	0.000000	142.000000	61.000000	-10.000000	-6.000000
1.750000	63.950000	49.360000	0.000000	0.000000	142.000000	61.000000	-13.000000	0.000000
1.760000	63.800000	49.360000	0.000000	0.000000	142.000000	61.000000	-15.000000	0.000000
1.770000	63.670000	49.360000	0.000000	0.000000	142.000000	61.000000	-13.000000	0.000000
1.780000	63.560000	49.360000	0.000000	0.000000	142.000000	61.000000	-11.000000	0.000000
1.790000	63.480000	49.410000	0.000000	0.000000	142.000000	61.000000	-8.000000	5.000000
1.800000	63.420000	49.470000	0.000000	0.000000	142.000000	61.000000	-6.000000	6.000000
1.810000	63.420000	49.470000	0.000000	0.000000	142.000000	61.000000	0.000000	0.000000
1.820000	63.340000	49.590000	0.000000	0.000000	142.000000	61.000000	-8.000000	12.000000
1.830000	63.260000	49.700000	0.000000	0.000000	142.000000	61.000000	-8.000000	11.000000
1.840000	63.160000	49.820000	0.000000	0.000000	142.000000	61.000000	-10.000000	12.000000
1.850000	63.070000	49.940000	0.000000	0.000000	142.000000	61.000000	-9.000000	12.000000
1.860000	62.970000	50.110000	0.000000	0.000000	142.000000	61.000000	-10.000000	17.000000
1.870000	62.850000	50.310000	0.000000	0.000000	142.000000	61.000000	-12.000000	20.000000
1.880000	62.730000	50.560000	0.000000	0.000000	144.000000	60.000000	-12.000000	25.000000
1.890000	62.570000	50.870000	0.000000	0.000000	144.000000	60.000000	-16.000000	31.000000
1.900000	62.400000	51.220000	0.000000	0.000000	144.000000	60.000000	-17.000000	35.000000
1.910000	62.230000	51.560000	0.000000	0.000000	144.000000	60.000000	-17.000000	34.000000
1.920000	62.060000	51.940000	0.000000	0.000000	144.000000	60.000000	-17.000000	38.000000
1.930000	61.870000	52.360000	0.000000	0.000000	145.000000	59.000000	-19.000000	42.000000
1.940000	61.680000	52.820000	0.000000	0.000000	146.000000	60.000000	-19.000000	46.000000
1.950000	61.470000	53.300000	0.000000	0.000000	146.000000	60.000000	-21.000000	48.000000
1.960000	61.320000	53.800000	0.000000	0.000000	147.000000	59.000000	-15.000000	50.000000
1.970000	61.170000	54.210000	0.000000	0.000000	147.000000	59.000000	-15.000000	41.000000
1.980000	61.060000	54.570000	0.000000	0.000000	147.000000	59.000000	-11.000000	36.000000
1.990000	60.980000	54.850000	0.000000	0.000000	147.000000	59.000000	-8.000000	28.000000
2.000000	60.980000	55.080000	0.000000	0.000000	149.000000	59.000000	0.000000	23.000000
2.010000	60.920000	55.290000	0.000000	0.000000	149.000000	59.000000	-6.000000	21.000000
2.020000	60.920000	55.290000	5.000000	0.000000	149.000000	59.000000	0.000000	0.000000
2.030000	60.850000	55.660000	56.000000	1.000000	148.000000	60.000000	0.000000	0.000000
2.040000	60.790000	55.820000	110.000000	0.000000	148.000000	60.000000	-6.000000	16.000000
2.050000	60.720000	55.970000	168.000000	0.000000	148.000000	60.000000	-7.000000	15.000000
2.060000	60.640000	56.090000	214.000000	0.000000	148.000000	60.000000	-8.000000	12.000000
2.070000	60.560000	56.090000	269.000000	0.000000	148.000000	60.000000	-8.000000	0.000000
2.080000	60.490000	56.090000	282.000000	0.000000	148.000000	60.000000	-7.000000	0.000000
2.090000	60.440000	56.090000	289.000000	0.000000	148.000000	60.000000	-5.000000	0.000000
2.100000	60.440000	55.820000	307.000000	0.000000	148.000000	60.000000	0.000000	-27.000000
2.110000	60.440000	55.480000	344.000000	0.000000	148.000000	60.000000	0.000000	-34.000000
2.120000	60.540000	54.900000	367.000000	0.000000	148.000000	60.000000	10.000000	-58.000000
2.130000	60.780000	54.030000	420.000000	0.000000	148.000000	60.000000	24.000000	-87.000000
2.140000	61.040000	52.960000	456.000000	0.000000	148.000000	60.000000	26.000000	-107.000000
2.150000	61.300000	51.930000	485.000000	0.000000	148.000000	60.000000	26.000000	-103.000000
2.160000	61.660000	50.890000	501.000000	0.000000	148.000000	60.000000	36.000000	-104.000000
2.170000	61.980000	49.960000	512.000000	0.000000	146.000000	60.000000	32.000000	-93.000000
2.180000	62.280000	49.100000	518.000000	0.000000	146.000000	60.000000	30.000000	-86.000000
2.190000	62.560000	48.330000	530.000000	0.000000	146.000000	60.000000	28.000000	-77.000000
2.200000	62.880000	47.700000	540.000000	0.000000	144.000000	60.000000	32.000000	-63.000000
2.210000	63.140000	47.170000	537.000000	0.000000	142.000000	61.000000	26.000000	-53.000000
2.220000	63.280000	46.820000	542.000000	0.000000	141.000000	61.000000	14.000000	-35.000000
