t	x	y	pressure	penup	azimuth	inclination	v_x	v_y
0.000000	15.100000	44.790000	589.000000	1.000000	148.000000	65.000000	0.000000	0.000000
0.010000	14.820000	44.020000	656.000000	0.000000	151.000000	66.000000	-28.000000	-77.000000
0.020000	14.730000	44.020000	655.000000	0.000000	151.000000	68.000000	-9.000000	0.000000
0.030000	14.730000	44.100000	673.000000	0.000000	152.000000	70.000000	0.000000	8.000000
0.040000	14.830000	44.300000	760.000000	0.000000	150.000000	71.000000	10.000000	20.000000
0.050000	14.940000	44.610000	809.000000	0.000000	148.000000	71.000000	11.000000	31.000000
0.060000	15.070000	45.010000	817.000000	0.000000	146.000000	71.000000	13.000000	40.000000
0.070000	15.370000	45.560000	837.000000	0.000000	144.000000	72.000000	30.000000	55.000000
0.080000	15.770000	46.220000	860.000000	0.000000	142.000000	71.000000	40.000000	66.000000
0.090000	16.230000	47.110000	875.000000	0.000000	142.000000	71.000000	46.000000	89.000000
0.100000	16.690000	48.170000	885.000000	0.000000	139.000000	71.000000	46.000000	106.000000
0.110000	17.160000	49.350000	905.000000	0.000000	141.000000	70.000000	47.000000	118.000000
0.120000	17.640000	50.470000	903.000000	0.000000	141.000000	70.000000	48.000000	112.000000
0.130000	18.090000	51.590000	896.000000	0.000000	141.000000	68.000000	45.000000	112.000000
0.140000	18.570000	52.740000	912.000000	0.000000	141.000000	68.000000	48.000000	115.000000
0.150000	18.920000	53.910000	939.000000	0.000000	142.000000	68.000000	35.000000	117.000000
0.160000	19.200000	54.650000	952.000000	0.000000	146.000000	67.000000	28.000000	74.000000
0.170000	19.310000	54.970000	974.000000	0.000000	146.000000	67.000000	11.000000	32.000000
0.180000	19.310000	54.970000	982.000000	0.000000	148.000000	67.000000	0.000000	0.000000
0.190000	19.310000	54.970000	983.000000	0.000000	150.000000	67.000000	0.000000	0.000000
0.200000	19.210000	54.680000	985.000000	0.000000	150.000000	67.000000	-10.000000	-29.000000
0.210000	19.150000	54.250000	985.000000	0.000000	151.000000	66.000000	-6.000000	-43.000000
0.220000	19.090000	53.320000	994.000000	0.000000	151.000000	66.000000	-6.000000	-93.000000
0.230000	19.030000	52.120000	999.000000	0.000000	151.000000	66.000000	-6.000000	-120.000000
0.240000	19.030000	50.730000	1005.000000	0.000000	151.000000	66.000000	0.000000	-139.000000
0.250000	18.870000	49.310000	1005.000000	0.000000	152.000000	65.000000	-16.000000	-142.000000
0.260000	18.650000	48.140000	1009.000000	0.000000	151.000000	66.000000	-22.000000	-117.000000
0.270000	18.530000	47.130000	999.000000	0.000000	151.000000	66.000000	-12.000000	-101.000000
0.280000	18.450000	46.580000	997.000000	0.000000	150.000000	67.000000	-8.000000	-55.000000
0.290000	18.450000	46.360000	981.000000	0.000000	146.000000	67.000000	0.000000	-22.000000
0.300000	18.450000	46.360000	991.000000	0.000000	147.000000	69.000000	0.000000	0.000000
0.310000	18.220000	46.360000	951.000000	0.000000	145.000000	70.000000	-23.000000	0.000000
0.320000	17.890000	46.520000	927.000000	0.000000	145.000000	70.000000	-33.000000	16.000000
0.330000	17.370000	46.690000	933.000000	0.000000	143.000000	70.000000	-52.000000	17.000000
0.340000	16.810000	46.840000	911.000000	0.000000	143.000000	70.000000	-56.000000	15.000000
0.350000	16.210000	46.960000	926.000000	0.000000	143.000000	70.000000	-60.000000	12.000000
0.360000	15.810000	47.060000	939.000000	0.000000	143.000000	70.000000	-40.000000	10.000000
0.370000	15.460000	47.120000	949.000000	0.000000	143.000000	70.000000	-35.000000	6.000000
0.380000	15.360000	47.120000	965.000000	0.000000	143.000000	70.000000	-10.000000	0.000000
0.390000	15.420000	47.120000	976.000000	0.000000	143.000000	70.000000	6.000000	0.000000
0.400000	15.520000	47.120000	994.000000	0.000000	146.000000	71.000000	10.000000	0.000000
0.410000	15.670000	47.060000	988.000000	0.000000	148.000000	70.000000	15.000000	-6.000000
0.420000	16.090000	46.980000	991.000000	0.000000	148.000000	70.000000	42.000000	-8.000000
0.430000	16.670000	46.900000	993.000000	0.000000	148.000000	70.000000	58.000000	-8.000000
0.440000	17.320000	46.900000	985.000000	0.000000	148.000000	70.000000	65.000000	0.000000
0.450000	17.900000	47.020000	996.000000	0.000000	145.000000	70.000000	58.000000	12.000000
0.460000	18.440000	47.240000	996.000000	0.000000	145.000000	70.000000	54.000000	22.000000
0.470000	19.000000	47.590000	991.000000	0.000000	145.000000	70.000000	56.000000	35.000000
0.480000	19.570000	48.030000	994.000000	0.000000	145.000000	70.000000	57.000000	44.000000
0.490000	19.950000	48.580000	996.000000	0.000000	145.000000	70.000000	38.000000	55.000000
0.500000	20.200000	49.080000	1000.000000	0.000000	143.000000	69.000000	25.000000	50.000000
0.510000	20.360000	49.480000	1005.000000	0.000000	143.000000	69.000000	16.000000	40.000000
0.520000	20.430000	49.770000	1023.000000	0.000000	145.000000	70.000000	7.000000	29.000000
0.530000	20.430000	50.000000	1023.000000	0.000000	147.000000	69.000000	0.000000	23.000000
0.540000	20.430000	50.000000	1023.000000	0.000000	147.000000	69.000000	0.000000	0.000000
0.550000	20.430000	50.000000	1023.000000	0.000000	147.000000	69.000000	0.000000	0.000000
0.560000	20.380000	50.000000	1023.000000	0.000000	148.000000	68.000000	-5.000000	0.000000
0.570000	20.300000	49.800000	1023.000000	0.000000	148.000000	68.000000	-8.000000	-20.000000
0.580000	20.180000	49.530000	1023.000000	0.000000	148.000000	68.000000	-12.000000	-27.000000
0.590000	19.990000	48.760000	1023.000000	0.000000	148.000000	68.000000	-19.000000	-77.000000
0.600000	19.780000	47.970000	1023.000000	0.000000	148.000000	68.000000	-21.000000	-79.000000
0.610000	19.560000	47.350000	1023.000000	0.000000	148.000000	68.000000	-22.000000	-62.000000
0.620000	19.560000	46.840000	1023.000000	0.000000	147.000000	69.000000	0.000000	-51.000000
0.630000	19.620000	46.590000	1023.000000	0.000000	147.000000	69.000000	6.000000	-25.000000
0.640000	19.790000	46.440000	1023.000000	0.000000	145.000000	70.000000	17.000000	-15.000000
0.650000	19.940000	46.370000	1023.000000	0.000000	145.000000	70.000000	15.000000	-7.000000
0.660000	20.270000	46.450000	1023.000000	0.000000	143.000000	70.000000	33.000000	8.000000
0.670000	20.720000	46.860000	1017.000000	0.000000	143.000000	70.000000	45.000000	41.000000
0.680000	21.230000	47.480000	1015.000000	0.000000	143.000000	70.000000	51.000000	62.000000
0.690000	21.740000	48.250000	1018.000000	0.000000	143.000000	70.000000	51.000000	77.000000
0.700000	22.140000	49.010000	1018.000000	0.000000	143.000000	70.000000	40.000000	76.000000
0.710000	22.460000	49.480000	1023.000000	0.000000	141.000000	70.000000	32.000000	47.000000
0.720000	22.610000	49.770000	1023.000000	0.000000	141.000000	70.000000	15.000000	29.000000
0.730000	22.610000	49.770000	1023.000000	0.000000	143.000000	69.000000	0.000000	0.000000
0.740000	22.610000	49.770000	1023.000000	0.000000	143.000000	69.000000	0.000000	0.000000
0.750000	22.520000	49.660000	1023.000000	0.000000	145.000000	68.000000	-9.000000	-11.000000
0.760000	22.460000	49.270000	1023.000000	0.000000	142.000000	68.000000	-6.000000	-39.000000
0.770000	22.250000	48.680000	1023.000000	0.000000	142.000000	68.000000	-21.000000	-59.000000
0.780000	21.930000	47.900000	1023.000000	0.000000	145.000000	68.000000	-32.000000	-78.000000
0.790000	21.780000	47.330000	1023.000000	0.000000	145.000000	68.000000	-15.000000	-57.000000
0.800000	21.680000	46.900000	1023.000000	0.000000	145.000000	68.000000	-10.000000	-43.000000
0.810000	21.680000	46.640000	979.000000	0.000000	143.000000	69.000000	0.000000	-26.000000
0.820000	21.770000	46.530000	897.000000	0.000000	143.000000	69.000000	9.000000	-11.000000
0.830000	21.940000	46.530000	821.000000	0.000000	141.000000	70.000000	17.000000	0.000000
0.840000	22.400000	46.660000	685.000000	0.000000	143.000000	70.000000	46.000000	13.000000
0.850000	23.050000	46.900000	636.000000	0.000000	142.000000	71.000000	65.000000	24.000000
0.860000	23.550000	47.200000	630.000000	0.000000	142.000000	71.000000	50.000000	30.000000
0.870000	23.890000	47.290000	643.000000	0.000000	142.000000	71.000000	34.000000	9.000000
0.880000	24.110000	47.350000	682.000000	0.000000	142.000000	71.000000	22.000000	6.000000
0.890000	24.280000	47.350000	731.000000	0.000000	142.000000	71.000000	17.000000	0.000000
0.900000	24.420000	47.350000	771.000000	0.000000	142.000000	71.000000	14.000000	0.000000
0.910000	24.530000	47.350000	805.000000	0.000000	142.000000	71.000000	11.000000	0.000000
0.920000	24.620000	47.350000	827.000000	0.000000	143.000000	70.000000	9.000000	0.000000
0.930000	24.710000	47.350000	824.000000	0.000000	143.000000	70.000000	9.000000	0.000000
0.940000	24.790000	47.350000	825.000000	0.000000	143.000000	70.000000	8.000000	0.000000
0.950000	24.920000	47.350000	828.000000	0.000000	143.000000	70.000000	13.000000	0.000000
0.960000	25.050000	47.350000	833.000000	0.000000	143.000000	70.000000	13.000000	0.000000
0.970000	25.180000	47.420000	842.000000	0.000000	146.000000	71.000000	13.000000	7.000000
0.980000	25.270000	47.510000	848.000000	0.000000	146.000000	71.000000	9.000000	9.000000
0.990000	25.340000	47.780000	853.000000	0.000000	146.000000	71.000000	7.000000	27.000000
1.000000	25.560000	48.160000	860.000000	0.000000	146.000000	71.000000	22.000000	38.000000
1.010000	25.700000	48.570000	870.000000	0.000000	148.000000	71.000000	14.000000	41.000000
1.020000	25.780000	48.980000	896.000000	0.000000	150.000000	71.000000	8.000000	41.000000
1.030000	25.780000	49.360000	896.000000	0.000000	150.000000	71.000000	0.000000	38.000000
1.040000	25.830000	49.690000	933.000000	0.000000	150.000000	71.000000	5.000000	33.000000
1.050000	25.830000	49.950000	950.000000	0.000000	150.000000	71.000000	0.000000	26.000000
1.060000	25.740000	50.090000	979.000000	0.000000	150.000000	71.000000	-9.000000	14.000000
1.070000	25.560000	50.140000	991.000000	0.000000	150.000000	71.000000	-18.000000	5.000000
1.080000	25.300000	50.140000	994.000000	0.000000	152.000000	70.000000	-26.000000	0.000000
1.090000	24.850000	49.860000	1023.000000	0.000000	152.000000	70.000000	-45.000000	-28.000000
1.100000	24.270000	49.430000	1023.000000	0.000000	152.000000	70.000000	-58.000000	-43.000000
1.110000	23.860000	48.820000	1023.000000	0.000000	153.000000	69.000000	-41.000000	-61.000000
1.120000	23.460000	48.160000	1023.000000	0.000000	149.000000	69.000000	-40.000000	-66.000000
1.130000	23.060000	47.740000	1023.000000	0.000000	149.000000	69.000000	-40.000000	-42.000000
1.140000	23.060000	47.490000	1023.000000	0.000000	149.000000	69.000000	0.000000	-25.000000
1.150000	23.120000	47.400000	1023.000000	0.000000	145.000000	70.000000	6.000000	-9.000000
1.160000	23.370000	47.310000	1023.000000	0.000000	145.000000	70.000000	25.000000	-9.000000
1.170000	23.740000	47.310000	1023.000000	0.000000	145.000000	70.000000	37.000000	0.000000
1.180000	24.380000	47.490000	1023.000000	0.000000	145.000000	70.000000	64.000000	18.000000
1.190000	25.040000	47.820000	1023.000000	0.000000	145.000000	70.000000	66.000000	33.000000
1.200000	25.750000	48.270000	1023.000000	0.000000	148.000000	70.000000	71.000000	45.000000
1.210000	26.150000	48.440000	1023.000000	0.000000	148.000000	70.000000	40.000000	17.000000
1.220000	26.360000	48.440000	1023.000000	0.000000	150.000000	71.000000	21.000000	0.000000
1.230000	26.360000	48.370000	1023.000000	0.000000	150.000000	71.000000	0.000000	-7.000000
1.240000	26.360000	48.100000	1023.000000	0.000000	153.000000	71.000000	0.000000	-27.000000
1.250000	26.360000	47.680000	1023.000000	0.000000	155.000000	71.000000	0.000000	-42.000000
1.260000	26.360000	47.200000	1023.000000	0.000000	154.000000	72.000000	0.000000	-48.000000
1.270000	26.360000	46.730000	1023.000000	0.000000	157.000000	73.000000	0.000000	-47.000000
1.280000	26.520000	46.450000	968.000000	0.000000	157.000000	73.000000	16.000000	-28.000000
1.290000	26.860000	46.310000	788.000000	0.000000	155.000000	74.000000	34.000000	-14.000000
1.300000	27.320000	46.160000	287.000000	0.000000	155.000000	74.000000	46.000000	-15.000000
1.310000	27.320000	46.160000	0.000000	1.000000	152.000000	73.000000	0.000000	0.000000
1.320000	28.120000	45.750000	0.000000	0.000000	151.000000	74.000000	80.000000	-41.000000
1.330000	28.310000	45.500000	0.000000	0.000000	148.000000	74.000000	19.000000	-25.000000
1.340000	28.310000	45.250000	0.000000	0.000000	145.000000	73.000000	0.000000	-25.000000
1.350000	28.260000	45.130000	0.000000	0.000000	142.000000	72.000000	-5.000000	-12.000000
1.360000	28.110000	45.180000	0.000000	0.000000	139.000000	71.000000	-15.000000	5.000000
1.370000	28.000000	45.350000	0.000000	0.000000	139.000000	69.000000	-11.000000	17.000000
1.380000	27.740000	45.590000	0.000000	0.000000	139.000000	68.000000	-26.000000	24.000000
1.390000	27.380000	45.870000	0.000000	0.000000	139.000000	67.000000	-36.000000	28.000000
1.400000	26.940000	46.170000	0.000000	0.000000	138.000000	65.000000	-44.000000	30.000000
1.410000	26.510000	46.260000	0.000000	0.000000	138.000000	64.000000	-43.000000	9.000000
1.420000	25.930000	46.350000	0.000000	0.000000	141.000000	64.000000	-58.000000	9.000000
1.430000	25.230000	46.450000	0.000000	0.000000	145.000000	64.000000	-70.000000	10.000000
1.440000	24.420000	46.320000	0.000000	0.000000	148.000000	63.000000	-81.000000	-13.000000
1.450000	23.590000	46.130000	0.000000	0.000000	151.000000	64.000000	-83.000000	-19.000000
1.460000	22.740000	45.860000	0.000000	0.000000	154.000000	64.000000	-85.000000	-27.000000
1.470000	22.000000	45.560000	0.000000	0.000000	156.000000	64.000000	-74.000000	-30.000000
1.480000	21.370000	45.260000	0.000000	0.000000	160.000000	66.000000	-63.000000	-30.000000
1.490000	21.370000	45.260000	758.000000	1.000000	160.000000	66.000000	0.000000	0.000000
1.500000	20.480000	44.720000	791.000000	0.000000	159.000000	67.000000	-89.000000	-54.000000
1.510000	20.410000	44.780000	797.000000	0.000000	156.000000	68.000000	-7.000000	6.000000
1.520000	20.510000	44.780000	828.000000	0.000000	153.000000	69.000000	10.000000	0.000000
1.530000	20.930000	44.780000	917.000000	0.000000	152.000000	70.000000	42.000000	0.000000
1.540000	21.380000	45.090000	950.000000	0.000000	150.000000	71.000000	45.000000	31.000000
1.550000	21.910000	45.520000	977.000000	0.000000	150.000000	71.000000	53.000000	43.000000
1.560000	22.560000	46.130000	977.000000	0.000000	148.000000	71.000000	65.000000	61.000000
1.570000	23.270000	46.900000	996.000000	0.000000	148.000000	71.000000	71.000000	77.000000
1.580000	23.830000	47.790000	1023.000000	0.000000	148.000000	71.000000	56.000000	89.000000
1.590000	24.290000	48.810000	1023.000000	0.000000	148.000000	71.000000	46.000000	102.000000
1.600000	24.670000	49.900000	1023.000000	0.000000	150.000000	71.000000	38.000000	109.000000
1.610000	24.990000	51.050000	1023.000000	0.000000	153.000000	71.000000	32.000000	115.000000
1.620000	25.190000	52.260000	997.000000	0.000000	154.000000	70.000000	20.000000	121.000000
1.630000	25.300000	53.440000	984.000000	0.000000	154.000000	70.000000	11.000000	118.000000
1.640000	25.250000	54.560000	1006.000000	0.000000	155.000000	69.000000	-5.000000	112.000000
1.650000	25.190000	55.140000	1023.000000	0.000000	159.000000	69.000000	-6.000000	58.000000
1.660000	25.130000	55.360000	1023.000000	0.000000	160.000000	68.000000	-6.000000	22.000000
1.670000	25.130000	55.360000	1023.000000	0.000000	160.000000	68.000000	0.000000	0.000000
1.680000	25.050000	55.070000	1023.000000	0.000000	160.000000	68.000000	-8.000000	-29.000000
1.690000	24.860000	54.610000	1023.000000	0.000000	161.000000	67.000000	-19.000000	-46.000000
1.700000	24.570000	53.420000	1023.000000	0.000000	161.000000	67.000000	-29.000000	-119.000000
1.710000	24.260000	51.720000	1023.000000	0.000000	161.000000	67.000000	-31.000000	-170.000000
1.720000	23.970000	49.680000	1023.000000	0.000000	161.000000	67.000000	-29.000000	-204.000000
1.730000	23.700000	47.280000	1023.000000	0.000000	161.000000	67.000000	-27.000000	-240.000000
1.740000	23.480000	45.280000	1023.000000	0.000000	163.000000	67.000000	-22.000000	-200.000000
1.750000	23.320000	43.560000	1023.000000	0.000000	162.000000	68.000000	-16.000000	-172.000000
1.760000	23.320000	42.630000	1023.000000	0.000000	164.000000	69.000000	0.000000	-93.000000
1.770000	23.320000	42.180000	1023.000000	0.000000	164.000000	69.000000	0.000000	-45.000000
1.780000	23.320000	42.040000	899.000000	0.000000	163.000000	70.000000	0.000000	-14.000000
1.790000	23.320000	42.040000	548.000000	0.000000	162.000000	71.000000	0.000000	0.000000
1.800000	23.320000	42.040000	0.000000	1.000000	161.000000	72.000000	0.000000	0.000000
1.810000	23.160000	42.930000	0.000000	0.000000	161.000000	72.000000	-16.000000	89.000000
1.820000	22.810000	43.900000	0.000000	0.000000	158.000000	72.000000	-35.000000	97.000000
1.830000	22.280000	44.840000	0.000000	0.000000	158.000000	72.000000	-53.000000	94.000000
1.840000	21.790000	45.520000	0.000000	0.000000	158.000000	72.000000	-49.000000	68.000000
1.850000	21.410000	46.050000	0.000000	0.000000	155.000000	71.000000	-38.000000	53.000000
1.860000	21.110000	46.430000	0.000000	0.000000	157.000000	71.000000	-30.000000	38.000000
1.870000	20.820000	46.770000	0.000000	0.000000	158.000000	70.000000	-29.000000	34.000000
1.880000	20.570000	46.890000	0.000000	0.000000	156.000000	68.000000	-25.000000	12.000000
1.890000	20.410000	46.890000	0.000000	0.000000	158.000000	67.000000	-16.000000	0.000000
1.900000	20.300000	46.700000	0.000000	0.000000	158.000000	67.000000	-11.000000	-19.000000
1.910000	20.300000	46.700000	485.000000	1.000000	158.000000	67.000000	0.000000	0.000000
1.920000	20.250000	46.400000	633.000000	0.000000	158.000000	67.000000	-5.000000	-30.000000
1.930000	20.250000	46.400000	653.000000	0.000000	159.000000	69.000000	0.000000	0.000000
1.940000	20.250000	46.400000	719.000000	0.000000	159.000000	69.000000	0.000000	0.000000
1.950000	20.420000	46.540000	836.000000	0.000000	158.000000	70.000000	17.000000	14.000000
1.960000	20.790000	46.750000	905.000000	0.000000	157.000000	71.000000	37.000000	21.000000
1.970000	21.260000	47.010000	906.000000	0.000000	155.000000	71.000000	47.000000	26.000000
1.980000	22.100000	47.520000	917.000000	0.000000	155.000000	71.000000	84.000000	51.000000
1.990000	22.950000	48.210000	955.000000	0.000000	155.000000	71.000000	85.000000	69.000000
2.000000	23.800000	49.070000	989.000000	0.000000	155.000000	71.000000	85.000000	86.000000
2.010000	24.430000	49.940000	984.000000	0.000000	157.000000	71.000000	63.000000	87.000000
2.020000	24.930000	50.830000	1000.000000	0.000000	157.000000	71.000000	50.000000	89.000000
2.030000	25.170000	51.480000	1009.000000	0.000000	158.000000	70.000000	24.000000	65.000000
2.040000	25.100000	52.130000	1009.000000	0.000000	158.000000	70.000000	-7.000000	65.000000
2.050000	24.810000	52.620000	996.000000	0.000000	159.000000	69.000000	-29.000000	49.000000
2.060000	24.070000	53.000000	1008.000000	0.000000	158.000000	67.000000	-74.000000	38.000000
2.070000	22.910000	53.280000	1023.000000	0.000000	158.000000	67.000000	-116.000000	28.000000
2.080000	21.460000	53.360000	1023.000000	0.000000	158.000000	67.000000	-145.000000	8.000000
2.090000	19.960000	53.360000	1023.000000	0.000000	159.000000	67.000000	-150.000000	0.000000
2.100000	18.470000	52.980000	1023.000000	0.000000	159.000000	67.000000	-149.000000	-38.000000
2.110000	16.990000	52.390000	1023.000000	0.000000	156.000000	66.000000	-148.000000	-59.000000
2.120000	15.510000	51.640000	1023.000000	0.000000	159.000000	67.000000	-148.000000	-75.000000
2.130000	14.550000	50.720000	1023.000000	0.000000	160.000000	66.000000	-96.000000	-92.000000
2.140000	13.930000	49.870000	1023.000000	0.000000	159.000000	67.000000	-62.000000	-85.000000
2.150000	13.930000	49.070000	1023.000000	0.000000	159.000000	67.000000	0.000000	-80.000000
2.160000	14.410000	48.550000	1023.000000	0.000000	159.000000	67.000000	48.000000	-52.000000
2.170000	15.230000	48.080000	1023.000000	0.000000	158.000000	67.000000	82.000000	-47.000000
2.180000	16.660000	47.640000	1023.000000	0.000000	158.000000	67.000000	143.000000	-44.000000
2.190000	18.330000	47.560000	1023.000000	0.000000	156.000000	68.000000	167.000000	-8.000000
