t	x	y	pressure	penup	azimuth	inclination	v_x	v_y
0.000000	90.610000	9.740000	10.000000	1.000000	165.000000	56.000000	0.000000	0.000000
0.010000	91.110000	9.680000	47.000000	1.000000	165.000000	56.000000	0.000000	0.000000
0.020000	91.280000	9.550000	103.000000	0.000000	166.000000	56.000000	17.000000	-13.000000
0.030000	91.400000	9.290000	142.000000	0.000000	166.000000	56.000000	12.000000	-26.000000
0.040000	91.400000	8.950000	203.000000	0.000000	166.000000	56.000000	0.000000	-34.000000
0.050000	91.240000	8.400000	282.000000	0.000000	166.000000	56.000000	-16.000000	-55.000000
0.060000	90.940000	7.830000	359.000000	0.000000	166.000000	56.000000	-30.000000	-57.000000
0.070000	90.550000	7.270000	415.000000	0.000000	166.000000	56.000000	-39.000000	-56.000000
0.080000	90.130000	6.860000	514.000000	0.000000	166.000000	56.000000	-42.000000	-41.000000
0.090000	89.690000	6.530000	562.000000	0.000000	166.000000	56.000000	-44.000000	-33.000000
0.100000	89.280000	6.530000	589.000000	0.000000	167.000000	55.000000	-41.000000	0.000000
0.110000	88.840000	6.530000	610.000000	0.000000	167.000000	55.000000	-44.000000	0.000000
0.120000	88.310000	6.710000	616.000000	0.000000	167.000000	55.000000	-53.000000	18.000000
0.130000	87.740000	7.090000	619.000000	0.000000	167.000000	54.000000	-57.000000	38.000000
0.140000	87.080000	7.630000	603.000000	0.000000	167.000000	54.000000	-66.000000	54.000000
0.150000	86.440000	8.270000	608.000000	0.000000	166.000000	54.000000	-64.000000	64.000000
0.160000	85.860000	8.730000	606.000000	0.000000	164.000000	55.000000	-58.000000	46.000000
0.170000	85.450000	9.130000	603.000000	0.000000	163.000000	55.000000	-41.000000	40.000000
0.180000	85.150000	9.410000	605.000000	0.000000	161.000000	55.000000	-30.000000	28.000000
0.190000	84.910000	9.710000	603.000000	0.000000	160.000000	55.000000	-24.000000	30.000000
0.200000	84.740000	10.030000	589.000000	0.000000	159.000000	55.000000	-17.000000	32.000000
0.210000	84.690000	10.470000	561.000000	0.000000	158.000000	55.000000	-5.000000	44.000000
0.220000	84.690000	11.190000	513.000000	0.000000	155.000000	55.000000	0.000000	72.000000
0.230000	84.980000	12.100000	483.000000	0.000000	155.000000	55.000000	29.000000	91.000000
0.240000	85.350000	13.160000	460.000000	0.000000	154.000000	56.000000	37.000000	106.000000
0.250000	85.770000	13.860000	458.000000	0.000000	153.000000	56.000000	42.000000	70.000000
0.260000	86.200000	14.330000	460.000000	0.000000	153.000000	56.000000	43.000000	47.000000
0.270000	86.640000	14.600000	469.000000	0.000000	153.000000	56.000000	44.000000	27.000000
0.280000	87.000000	14.830000	483.000000	0.000000	153.000000	56.000000	36.000000	23.000000
0.290000	87.300000	14.980000	492.000000	0.000000	154.000000	55.000000	30.000000	15.000000
0.300000	87.620000	15.090000	521.000000	0.000000	155.000000	55.000000	32.000000	11.000000
0.310000	87.940000	15.160000	541.000000	0.000000	155.000000	55.000000	32.000000	7.000000
0.320000	88.260000	15.060000	561.000000	0.000000	155.000000	55.000000	32.000000	-10.000000
0.330000	88.560000	14.870000	564.000000	0.000000	156.000000	55.000000	30.000000	-19.000000
0.340000	88.860000	14.530000	584.000000	0.000000	158.000000	55.000000	30.000000	-34.000000
0.350000	89.150000	14.120000	594.000000	0.000000	158.000000	55.000000	29.000000	-41.000000
0.360000	89.400000	13.590000	597.000000	0.000000	158.000000	55.000000	25.000000	-53.000000
0.370000	89.610000	12.970000	597.000000	0.000000	156.000000	55.000000	21.000000	-62.000000
0.380000	89.760000	12.190000	602.000000	0.000000	156.000000	55.000000	15.000000	-78.000000
0.390000	89.850000	11.300000	605.000000	0.000000	155.000000	54.000000	9.000000	-89.000000
0.400000	89.900000	10.740000	606.000000	0.000000	154.000000	55.000000	5.000000	-56.000000
0.410000	89.900000	10.300000	617.000000	0.000000	153.000000	55.000000	0.000000	-44.000000
0.420000	89.960000	9.940000	617.000000	0.000000	153.000000	55.000000	6.000000	-36.000000
0.430000	89.960000	9.680000	636.000000	0.000000	151.000000	54.000000	0.000000	-26.000000
0.440000	89.910000	9.510000	658.000000	0.000000	151.000000	54.000000	-5.000000	-17.000000
0.450000	89.910000	9.390000	669.000000	0.000000	150.000000	54.000000	0.000000	-12.000000
0.460000	89.860000	9.390000	690.000000	0.000000	150.000000	54.000000	-5.000000	0.000000
0.470000	89.860000	9.390000	724.000000	0.000000	150.000000	54.000000	0.000000	0.000000
0.480000	89.860000	9.390000	727.000000	0.000000	149.000000	53.000000	0.000000	0.000000
0.490000	89.860000	9.460000	733.000000	0.000000	149.000000	53.000000	0.000000	7.000000
0.500000	89.860000	9.630000	725.000000	0.000000	149.000000	53.000000	0.000000	17.000000
0.510000	89.860000	9.880000	725.000000	0.000000	149.000000	53.000000	0.000000	25.000000
0.520000	89.910000	10.220000	708.000000	0.000000	149.000000	53.000000	5.000000	34.000000
0.530000	89.910000	10.520000	691.000000	0.000000	149.000000	53.000000	0.000000	30.000000
0.540000	90.010000	10.730000	690.000000	0.000000	150.000000	54.000000	10.000000	21.000000
0.550000	90.080000	10.880000	700.000000	0.000000	150.000000	54.000000	7.000000	15.000000
0.560000	90.190000	11.040000	700.000000	0.000000	150.000000	54.000000	11.000000	16.000000
0.570000	90.310000	11.220000	684.000000	0.000000	151.000000	54.000000	12.000000	18.000000
0.580000	90.440000	11.410000	675.000000	0.000000	151.000000	54.000000	13.000000	19.000000
0.590000	90.580000	11.560000	673.000000	0.000000	151.000000	54.000000	14.000000	15.000000
0.600000	90.740000	11.690000	662.000000	0.000000	151.000000	54.000000	16.000000	13.000000
0.610000	90.920000	11.640000	653.000000	0.000000	153.000000	55.000000	18.000000	-5.000000
0.620000	90.920000	11.640000	646.000000	0.000000	153.000000	55.000000	0.000000	0.000000
0.630000	91.180000	11.190000	643.000000	0.000000	153.000000	55.000000	26.000000	-45.000000
0.640000	91.270000	10.930000	644.000000	0.000000	153.000000	55.000000	9.000000	-26.000000
0.650000	91.340000	10.660000	655.000000	0.000000	154.000000	55.000000	7.000000	-27.000000
0.660000	91.400000	10.370000	665.000000	0.000000	155.000000	54.000000	6.000000	-29.000000
0.670000	91.400000	10.120000	676.000000	0.000000	155.000000	54.000000	0.000000	-25.000000
0.680000	91.400000	9.900000	691.000000	0.000000	155.000000	54.000000	0.000000	-22.000000
0.690000	91.330000	9.780000	691.000000	0.000000	155.000000	54.000000	-7.000000	-12.000000
0.700000	91.330000	9.730000	705.000000	0.000000	155.000000	54.000000	0.000000	-5.000000
0.710000	91.330000	9.730000	719.000000	0.000000	155.000000	54.000000	0.000000	0.000000
0.720000	91.330000	9.730000	710.000000	0.000000	153.000000	54.000000	0.000000	0.000000
0.730000	91.330000	10.010000	699.000000	0.000000	153.000000	54.000000	0.000000	28.000000
0.740000	91.450000	10.420000	691.000000	0.000000	153.000000	54.000000	12.000000	41.000000
0.750000	91.530000	10.720000	685.000000	0.000000	153.000000	54.000000	8.000000	30.000000
0.760000	91.640000	10.880000	679.000000	0.000000	153.000000	54.000000	11.000000	16.000000
0.770000	91.750000	10.960000	675.000000	0.000000	153.000000	54.000000	11.000000	8.000000
0.780000	91.860000	10.900000	673.000000	0.000000	153.000000	54.000000	11.000000	-6.000000
0.790000	91.980000	10.770000	675.000000	0.000000	155.000000	54.000000	12.000000	-13.000000
0.800000	92.150000	10.530000	675.000000	0.000000	155.000000	54.000000	17.000000	-24.000000
0.810000	92.270000	10.250000	685.000000	0.000000	155.000000	54.000000	12.000000	-28.000000
0.820000	92.370000	9.980000	685.000000	0.000000	155.000000	54.000000	10.000000	-27.000000
0.830000	92.370000	9.740000	687.000000	0.000000	155.000000	54.000000	0.000000	-24.000000
0.840000	92.450000	9.620000	682.000000	0.000000	156.000000	55.000000	8.000000	-12.000000
0.850000	92.450000	9.620000	666.000000	0.000000	156.000000	55.000000	0.000000	0.000000
0.860000	92.450000	9.620000	606.000000	0.000000	156.000000	55.000000	0.000000	0.000000
0.870000	92.450000	9.620000	433.000000	0.000000	156.000000	55.000000	0.000000	0.000000
0.880000	92.450000	9.680000	78.000000	0.000000	158.000000	55.000000	0.000000	6.000000
0.890000	92.450000	9.680000	0.000000	1.000000	158.000000	55.000000	0.000000	0.000000
0.900000	92.790000	9.920000	0.000000	0.000000	160.000000	54.000000	34.000000	24.000000
0.910000	93.010000	10.100000	0.000000	0.000000	160.000000	54.000000	22.000000	18.000000
0.920000	93.370000	10.290000	0.000000	0.000000	161.000000	55.000000	36.000000	19.000000
0.930000	93.820000	10.510000	0.000000	0.000000	161.000000	55.000000	45.000000	22.000000
0.940000	94.290000	10.760000	0.000000	0.000000	163.000000	55.000000	47.000000	25.000000
0.950000	94.740000	10.970000	0.000000	0.000000	163.000000	55.000000	45.000000	21.000000
0.960000	95.030000	11.130000	0.000000	0.000000	163.000000	54.000000	29.000000	16.000000
0.970000	95.030000	11.130000	95.000000	1.000000	163.000000	54.000000	0.000000	0.000000
0.980000	95.320000	11.210000	276.000000	0.000000	163.000000	54.000000	29.000000	8.000000
0.990000	95.320000	11.380000	417.000000	0.000000	162.000000	54.000000	0.000000	17.000000
1.000000	95.160000	11.560000	491.000000	0.000000	162.000000	54.000000	-16.000000	18.000000
1.010000	95.030000	11.730000	556.000000	0.000000	163.000000	54.000000	-13.000000	17.000000
1.020000	94.910000	11.930000	575.000000	0.000000	163.000000	55.000000	-12.000000	20.000000
1.030000	94.720000	12.140000	592.000000	0.000000	163.000000	55.000000	-19.000000	21.000000
1.040000	94.480000	12.330000	589.000000	0.000000	163.000000	55.000000	-24.000000	19.000000
1.050000	94.190000	12.400000	595.000000	0.000000	163.000000	55.000000	-29.000000	7.000000
1.060000	93.910000	12.400000	609.000000	0.000000	163.000000	55.000000	-28.000000	0.000000
1.070000	93.660000	12.280000	614.000000	0.000000	163.000000	55.000000	-25.000000	-12.000000
1.080000	93.430000	12.170000	642.000000	0.000000	161.000000	55.000000	-23.000000	-11.000000
1.090000	93.200000	12.040000	644.000000	0.000000	161.000000	55.000000	-23.000000	-13.000000
1.100000	93.050000	11.920000	652.000000	0.000000	159.000000	55.000000	-15.000000	-12.000000
1.110000	92.940000	11.740000	661.000000	0.000000	159.000000	55.000000	-11.000000	-18.000000
1.120000	92.860000	11.560000	663.000000	0.000000	158.000000	55.000000	-8.000000	-18.000000
1.130000	92.920000	11.400000	678.000000	0.000000	158.000000	55.000000	6.000000	-16.000000
1.140000	93.040000	11.250000	699.000000	0.000000	158.000000	55.000000	12.000000	-15.000000
1.150000	93.260000	11.150000	721.000000	0.000000	156.000000	55.000000	22.000000	-10.000000
1.160000	93.590000	11.070000	725.000000	0.000000	158.000000	55.000000	33.000000	-8.000000
1.170000	94.030000	11.070000	733.000000	0.000000	158.000000	55.000000	44.000000	0.000000
1.180000	94.350000	11.070000	731.000000	0.000000	158.000000	55.000000	32.000000	0.000000
1.190000	94.590000	11.070000	720.000000	0.000000	159.000000	55.000000	24.000000	0.000000
1.200000	94.740000	11.070000	690.000000	0.000000	159.000000	55.000000	15.000000	0.000000
1.210000	94.820000	11.010000	646.000000	0.000000	160.000000	55.000000	8.000000	-6.000000
1.220000	94.820000	11.010000	530.000000	0.000000	160.000000	55.000000	0.000000	0.000000
1.230000	94.940000	10.920000	317.000000	0.000000	163.000000	55.000000	12.000000	-9.000000
1.240000	94.940000	10.920000	25.000000	0.000000	164.000000	55.000000	0.000000	0.000000
1.250000	94.940000	10.920000	0.000000	1.000000	164.000000	55.000000	0.000000	0.000000
1.260000	94.740000	10.780000	0.000000	0.000000	164.000000	55.000000	-20.000000	-14.000000
1.270000	94.510000	10.680000	0.000000	0.000000	164.000000	55.000000	-23.000000	-10.000000
1.280000	94.210000	10.560000	0.000000	0.000000	164.000000	55.000000	-30.000000	-12.000000
1.290000	94.210000	10.560000	75.000000	1.000000	164.000000	55.000000	0.000000	0.000000
1.300000	93.500000	10.340000	218.000000	0.000000	164.000000	55.000000	-71.000000	-22.000000
1.310000	93.190000	10.270000	333.000000	0.000000	164.000000	55.000000	-31.000000	-7.000000
1.320000	93.120000	10.220000	439.000000	0.000000	164.000000	55.000000	-7.000000	-5.000000
1.330000	93.190000	10.220000	491.000000	0.000000	164.000000	55.000000	7.000000	0.000000
1.340000	93.350000	10.170000	543.000000	0.000000	163.000000	55.000000	16.000000	-5.000000
1.350000	93.700000	10.170000	566.000000	0.000000	163.000000	55.000000	35.000000	0.000000
1.360000	94.180000	10.170000	591.000000	0.000000	163.000000	55.000000	48.000000	0.000000
1.370000	94.560000	10.250000	594.000000	0.000000	163.000000	55.000000	38.000000	8.000000
1.380000	94.770000	10.250000	566.000000	0.000000	161.000000	55.000000	21.000000	0.000000
1.390000	94.860000	10.250000	480.000000	0.000000	163.000000	55.000000	9.000000	0.000000
1.400000	94.960000	10.250000	279.000000	0.000000	163.000000	55.000000	10.000000	0.000000
1.410000	94.960000	10.250000	0.000000	1.000000	163.000000	55.000000	0.000000	0.000000
1.420000	95.020000	10.200000	0.000000	0.000000	164.000000	55.000000	6.000000	-5.000000
1.430000	95.170000	10.200000	0.000000	0.000000	164.000000	55.000000	15.000000	0.000000
1.440000	95.330000	10.400000	0.000000	0.000000	164.000000	55.000000	16.000000	20.000000
1.450000	95.640000	10.650000	0.000000	0.000000	164.000000	54.000000	31.000000	25.000000
1.460000	96.030000	10.920000	0.000000	0.000000	164.000000	54.000000	39.000000	27.000000
1.470000	96.350000	11.200000	0.000000	0.000000	164.000000	53.000000	32.000000	28.000000
1.480000	96.540000	11.410000	0.000000	0.000000	164.000000	53.000000	19.000000	21.000000
1.490000	96.640000	11.610000	0.000000	0.000000	164.000000	52.000000	10.000000	20.000000
1.500000	96.530000	11.780000	0.000000	0.000000	163.000000	52.000000	-11.000000	17.000000
1.510000	96.400000	11.930000	0.000000	0.000000	164.000000	51.000000	-13.000000	15.000000
1.520000	96.400000	11.930000	37.000000	1.000000	164.000000	51.000000	0.000000	0.000000
1.530000	96.260000	12.580000	139.000000	0.000000	164.000000	52.000000	-14.000000	65.000000
1.540000	96.200000	12.980000	241.000000	0.000000	164.000000	52.000000	-6.000000	40.000000
1.550000	96.200000	13.180000	311.000000	0.000000	164.000000	52.000000	0.000000	20.000000
1.560000	96.200000	13.240000	344.000000	0.000000	165.000000	53.000000	0.000000	6.000000
1.570000	96.270000	13.080000	359.000000	0.000000	165.000000	53.000000	7.000000	-16.000000
1.580000	96.400000	12.600000	388.000000	0.000000	164.000000	54.000000	13.000000	-48.000000
1.590000	96.510000	11.910000	418.000000	0.000000	166.000000	54.000000	11.000000	-69.000000
1.600000	96.570000	11.040000	489.000000	0.000000	166.000000	54.000000	6.000000	-87.000000
1.610000	96.570000	10.350000	570.000000	0.000000	167.000000	54.000000	0.000000	-69.000000
1.620000	96.690000	9.770000	617.000000	0.000000	167.000000	54.000000	12.000000	-58.000000
1.630000	96.740000	9.340000	662.000000	0.000000	167.000000	54.000000	5.000000	-43.000000
1.640000	96.740000	9.100000	666.000000	0.000000	169.000000	54.000000	0.000000	-24.000000
1.650000	96.810000	8.980000	678.000000	0.000000	169.000000	54.000000	7.000000	-12.000000
1.660000	96.810000	8.980000	669.000000	0.000000	169.000000	54.000000	0.000000	0.000000
1.670000	96.880000	9.130000	603.000000	0.000000	169.000000	54.000000	7.000000	15.000000
1.680000	96.960000	9.330000	377.000000	0.000000	169.000000	54.000000	8.000000	20.000000
1.690000	96.960000	9.330000	0.000000	1.000000	169.000000	54.000000	0.000000	0.000000
1.700000	97.210000	9.980000	0.000000	0.000000	169.000000	53.000000	25.000000	65.000000
1.710000	97.300000	10.220000	0.000000	0.000000	169.000000	53.000000	9.000000	24.000000
1.720000	97.360000	10.430000	0.000000	0.000000	169.000000	53.000000	6.000000	21.000000
1.730000	97.540000	10.600000	0.000000	0.000000	169.000000	53.000000	18.000000	17.000000
1.740000	97.690000	10.760000	0.000000	0.000000	168.000000	52.000000	15.000000	16.000000
1.750000	97.690000	10.900000	0.000000	0.000000	169.000000	51.000000	0.000000	14.000000
1.760000	97.690000	11.030000	0.000000	0.000000	169.000000	50.000000	0.000000	13.000000
1.770000	97.590000	11.140000	0.000000	0.000000	169.000000	50.000000	-10.000000	11.000000
1.780000	97.420000	11.260000	0.000000	0.000000	169.000000	47.000000	-17.000000	12.000000
1.790000	97.200000	11.350000	0.000000	0.000000	169.000000	46.000000	-22.000000	9.000000
1.800000	96.880000	11.430000	0.000000	0.000000	170.000000	46.000000	-32.000000	8.000000
1.810000	96.560000	11.430000	0.000000	0.000000	170.000000	45.000000	-32.000000	0.000000
1.820000	96.180000	11.490000	0.000000	0.000000	169.000000	44.000000	-38.000000	6.000000
1.830000	95.750000	11.490000	0.000000	0.000000	169.000000	44.000000	-43.000000	0.000000
1.840000	95.260000	11.490000	0.000000	0.000000	168.000000	44.000000	-49.000000	0.000000
1.850000	94.670000	11.490000	0.000000	0.000000	168.000000	45.000000	-59.000000	0.000000
1.860000	94.000000	11.570000	0.000000	0.000000	167.000000	46.000000	-67.000000	8.000000
1.870000	93.330000	11.670000	0.000000	0.000000	166.000000	47.000000	-67.000000	10.000000
1.880000	93.330000	11.670000	287.000000	1.000000	165.000000	48.000000	0.000000	0.000000
1.890000	92.120000	12.160000	404.000000	0.000000	164.000000	50.000000	-121.000000	49.000000
1.900000	91.740000	12.780000	519.000000	0.000000	164.000000	51.000000	-38.000000	62.000000
1.910000	91.510000	13.370000	548.000000	0.000000	163.000000	52.000000	-23.000000	59.000000
1.920000	91.400000	14.040000	564.000000	0.000000	162.000000	53.000000	-11.000000	67.000000
1.930000	91.560000	14.770000	572.000000	0.000000	160.000000	53.000000	16.000000	73.000000
1.940000	91.900000	15.470000	572.000000	0.000000	160.000000	53.000000	34.000000	70.000000
1.950000	92.490000	16.160000	570.000000	0.000000	159.000000	53.000000	59.000000	69.000000
1.960000	93.300000	16.630000	570.000000	0.000000	160.000000	52.000000	81.000000	47.000000
1.970000	94.250000	16.960000	561.000000	0.000000	160.000000	52.000000	95.000000	33.000000
1.980000	95.310000	17.130000	564.000000	0.000000	162.000000	51.000000	106.000000	17.000000
1.990000	96.370000	16.910000	540.000000	0.000000	164.000000	50.000000	106.000000	-22.000000
2.000000	97.320000	16.420000	543.000000	0.000000	166.000000	49.000000	95.000000	-49.000000
2.010000	98.190000	15.610000	516.000000	0.000000	167.000000	49.000000	87.000000	-81.000000
2.020000	98.820000	14.760000	499.000000	0.000000	169.000000	48.000000	63.000000	-85.000000
2.030000	99.250000	13.930000	489.000000	0.000000	171.000000	49.000000	43.000000	-83.000000
2.040000	99.540000	13.130000	493.000000	0.000000	172.000000	50.000000	29.000000	-80.000000
2.050000	99.410000	12.500000	492.000000	0.000000	173.000000	50.000000	-13.000000	-63.000000
2.060000	98.950000	12.070000	512.000000	0.000000	174.000000	50.000000	-46.000000	-43.000000
2.070000	98.280000	11.780000	537.000000	0.000000	174.000000	51.000000	-67.000000	-29.000000
2.080000	97.540000	11.780000	561.000000	0.000000	174.000000	52.000000	-74.000000	0.000000
2.090000	96.730000	11.920000	594.000000	0.000000	173.000000	53.000000	-81.000000	14.000000
2.100000	95.860000	12.170000	602.000000	0.000000	173.000000	53.000000	-87.000000	25.000000
2.110000	95.380000	12.500000	592.000000	0.000000	172.000000	54.000000	-48.000000	33.000000
2.120000	95.250000	12.770000	562.000000	0.000000	170.000000	54.000000	-13.000000	27.000000
2.130000	95.340000	12.950000	512.000000	0.000000	169.000000	54.000000	9.000000	18.000000
2.140000	95.730000	13.070000	443.000000	0.000000	169.000000	54.000000	39.000000	12.000000
2.150000	96.430000	13.070000	309.000000	0.000000	169.000000	54.000000	70.000000	0.000000
2.160000	97.340000	13.010000	139.000000	0.000000	167.000000	54.000000	91.000000	-6.000000
2.170000	97.340000	13.010000	0.000000	1.000000	169.000000	54.000000	0.000000	0.000000
2.180000	99.000000	12.470000	0.000000	0.000000	169.000000	54.000000	166.000000	-54.000000
2.190000	99.670000	12.310000	0.000000	0.000000	169.000000	53.000000	67.000000	-16.000000
2.200000	100.210000	12.210000	0.000000	0.000000	169.000000	53.000000	54.000000	-10.000000
2.210000	100.570000	12.150000	0.000000	0.000000	170.000000	52.000000	36.000000	-6.000000
2.220000	100.810000	11.890000	0.000000	0.000000	170.000000	51.000000	24.000000	-26.000000
