t	x	y	pressure	penup	azimuth	inclination	v_x	v_y
0.000000	46.760000	27.310000	103.000000	1.000000	122.000000	60.000000	0.000000	0.000000
0.010000	46.760000	27.310000	170.000000	0.000000	122.000000	60.000000	0.000000	0.000000
0.020000	46.760000	27.310000	254.000000	0.000000	122.000000	60.000000	0.000000	0.000000
0.030000	47.010000	27.770000	335.000000	0.000000	122.000000	60.000000	25.000000	46.000000
0.040000	47.180000	28.040000	423.000000	0.000000	122.000000	60.000000	17.000000	27.000000
0.050000	47.480000	28.420000	473.000000	0.000000	122.000000	60.000000	30.000000	38.000000
0.060000	47.840000	28.880000	516.000000	0.000000	122.000000	60.000000	36.000000	46.000000
0.070000	48.160000	29.400000	564.000000	0.000000	124.000000	60.000000	32.000000	52.000000
0.080000	48.430000	29.870000	581.000000	0.000000	123.000000	59.000000	27.000000	47.000000
0.090000	48.670000	30.280000	611.000000	0.000000	124.000000	58.000000	24.000000	41.000000
0.100000	48.760000	30.450000	668.000000	0.000000	123.000000	58.000000	9.000000	17.000000
0.110000	48.760000	30.450000	690.000000	0.000000	123.000000	58.000000	0.000000	0.000000
0.120000	48.760000	30.450000	700.000000	0.000000	124.000000	57.000000	0.000000	0.000000
0.130000	48.660000	30.320000	719.000000	0.000000	123.000000	56.000000	-10.000000	-13.000000
0.140000	48.530000	30.000000	714.000000	0.000000	123.000000	56.000000	-13.000000	-32.000000
0.150000	48.370000	29.560000	716.000000	0.000000	123.000000	56.000000	-16.000000	-44.000000
0.160000	48.270000	28.970000	707.000000	0.000000	123.000000	56.000000	-10.000000	-59.000000
0.170000	48.220000	28.480000	707.000000	0.000000	123.000000	56.000000	-5.000000	-49.000000
0.180000	48.280000	28.070000	691.000000	0.000000	123.000000	56.000000	6.000000	-41.000000
0.190000	48.400000	27.760000	663.000000	0.000000	122.000000	57.000000	12.000000	-31.000000
0.200000	48.540000	27.580000	662.000000	0.000000	122.000000	57.000000	14.000000	-18.000000
0.210000	48.740000	27.490000	673.000000	0.000000	122.000000	57.000000	20.000000	-9.000000
0.220000	48.990000	27.560000	673.000000	0.000000	120.000000	57.000000	25.000000	7.000000
0.230000	49.260000	27.780000	664.000000	0.000000	120.000000	57.000000	27.000000	22.000000
0.240000	49.520000	28.090000	675.000000	0.000000	120.000000	57.000000	26.000000	31.000000
0.250000	49.780000	28.500000	687.000000	0.000000	120.000000	57.000000	26.000000	41.000000
0.260000	49.970000	28.900000	687.000000	0.000000	120.000000	57.000000	19.000000	40.000000
0.270000	50.100000	29.290000	702.000000	0.000000	120.000000	57.000000	13.000000	39.000000
0.280000	50.210000	29.540000	691.000000	0.000000	122.000000	57.000000	11.000000	25.000000
0.290000	50.460000	29.700000	716.000000	0.000000	122.000000	57.000000	25.000000	16.000000
0.300000	50.460000	29.750000	722.000000	0.000000	122.000000	57.000000	0.000000	5.000000
0.310000	50.130000	29.750000	716.000000	0.000000	123.000000	56.000000	-33.000000	0.000000
0.320000	50.130000	29.750000	716.000000	0.000000	123.000000	56.000000	0.000000	0.000000
0.330000	50.130000	29.700000	716.000000	0.000000	123.000000	56.000000	0.000000	-5.000000
0.340000	50.130000	29.500000	721.000000	0.000000	123.000000	56.000000	0.000000	-20.000000
0.350000	50.210000	29.250000	722.000000	0.000000	125.000000	56.000000	8.000000	-25.000000
0.360000	50.290000	28.990000	728.000000	0.000000	123.000000	56.000000	8.000000	-26.000000
0.370000	50.410000	28.740000	728.000000	0.000000	123.000000	56.000000	12.000000	-25.000000
0.380000	50.540000	28.450000	727.000000	0.000000	124.000000	57.000000	13.000000	-29.000000
0.390000	50.660000	28.270000	724.000000	0.000000	124.000000	57.000000	12.000000	-18.000000
0.400000	50.780000	28.160000	705.000000	0.000000	124.000000	57.000000	12.000000	-11.000000
0.410000	50.990000	28.160000	710.000000	0.000000	124.000000	57.000000	21.000000	0.000000
0.420000	51.230000	28.310000	717.000000	0.000000	124.000000	57.000000	24.000000	15.000000
0.430000	51.550000	28.560000	722.000000	0.000000	124.000000	57.000000	32.000000	25.000000
0.440000	51.890000	29.020000	727.000000	0.000000	124.000000	57.000000	34.000000	46.000000
0.450000	52.230000	29.510000	733.000000	0.000000	124.000000	57.000000	34.000000	49.000000
0.460000	52.430000	30.010000	728.000000	0.000000	124.000000	57.000000	20.000000	50.000000
0.470000	52.530000	30.290000	734.000000	0.000000	124.000000	57.000000	10.000000	28.000000
0.480000	52.530000	30.510000	758.000000	0.000000	124.000000	57.000000	0.000000	22.000000
0.490000	52.530000	30.560000	762.000000	0.000000	124.000000	57.000000	0.000000	5.000000
0.500000	52.530000	30.510000	771.000000	0.000000	124.000000	57.000000	0.000000	-5.000000
0.510000	52.530000	30.430000	785.000000	0.000000	126.000000	58.000000	0.000000	-8.000000
0.520000	52.480000	30.170000	794.000000	0.000000	126.000000	58.000000	-5.000000	-26.000000
0.530000	52.480000	29.790000	799.000000	0.000000	127.000000	57.000000	0.000000	-38.000000
0.540000	52.480000	29.430000	805.000000	0.000000	127.000000	57.000000	0.000000	-36.000000
0.550000	52.620000	29.100000	808.000000	0.000000	127.000000	57.000000	14.000000	-33.000000
0.560000	52.730000	28.800000	812.000000	0.000000	126.000000	58.000000	11.000000	-30.000000
0.570000	52.870000	28.610000	797.000000	0.000000	126.000000	58.000000	14.000000	-19.000000
0.580000	53.050000	28.540000	788.000000	0.000000	126.000000	58.000000	18.000000	-7.000000
0.590000	53.270000	28.540000	768.000000	0.000000	126.000000	58.000000	22.000000	0.000000
0.600000	53.500000	28.700000	705.000000	0.000000	126.000000	58.000000	23.000000	16.000000
0.610000	53.720000	28.950000	569.000000	0.000000	126.000000	58.000000	22.000000	25.000000
0.620000	53.940000	29.280000	117.000000	0.000000	126.000000	58.000000	22.000000	33.000000
0.630000	53.940000	29.280000	0.000000	1.000000	126.000000	58.000000	0.000000	0.000000
0.640000	54.230000	29.870000	0.000000	0.000000	126.000000	58.000000	29.000000	59.000000
0.650000	54.230000	30.290000	0.000000	0.000000	126.000000	58.000000	0.000000	42.000000
0.660000	54.230000	30.840000	0.000000	0.000000	126.000000	58.000000	0.000000	55.000000
0.670000	54.230000	31.100000	0.000000	0.000000	126.000000	58.000000	0.000000	26.000000
0.680000	54.320000	31.210000	0.000000	0.000000	126.000000	58.000000	9.000000	11.000000
0.690000	54.430000	31.210000	0.000000	0.000000	126.000000	58.000000	11.000000	0.000000
0.700000	54.560000	31.210000	0.000000	0.000000	127.000000	57.000000	13.000000	0.000000
0.710000	54.700000	31.210000	0.000000	0.000000	127.000000	57.000000	14.000000	0.000000
0.720000	54.840000	31.300000	0.000000	0.000000	127.000000	57.000000	14.000000	9.000000
0.730000	54.970000	31.400000	0.000000	0.000000	127.000000	57.000000	13.000000	10.000000
0.740000	55.100000	31.530000	0.000000	0.000000	127.000000	57.000000	13.000000	13.000000
0.750000	55.220000	31.690000	0.000000	0.000000	128.000000	57.000000	12.000000	16.000000
0.760000	55.390000	31.920000	0.000000	0.000000	128.000000	57.000000	17.000000	23.000000
0.770000	55.570000	32.160000	0.000000	0.000000	127.000000	57.000000	18.000000	24.000000
0.780000	55.730000	32.400000	0.000000	0.000000	127.000000	57.000000	16.000000	24.000000
0.790000	55.840000	32.560000	0.000000	0.000000	128.000000	58.000000	11.000000	16.000000
0.800000	55.910000	32.690000	0.000000	0.000000	128.000000	58.000000	7.000000	13.000000
0.810000	55.910000	32.690000	175.000000	1.000000	128.000000	58.000000	0.000000	0.000000
0.820000	55.910000	32.690000	273.000000	0.000000	128.000000	58.000000	0.000000	0.000000
0.830000	55.910000	32.690000	366.000000	0.000000	129.000000	59.000000	0.000000	0.000000
0.840000	55.600000	32.800000	497.000000	0.000000	129.000000	59.000000	-31.000000	11.000000
0.850000	55.460000	32.800000	556.000000	0.000000	129.000000	59.000000	-14.000000	0.000000
0.860000	55.320000	32.800000	589.000000	0.000000	129.000000	59.000000	-14.000000	0.000000
0.870000	55.150000	32.680000	611.000000	0.000000	128.000000	58.000000	-17.000000	-12.000000
0.880000	55.000000	32.550000	625.000000	0.000000	128.000000	58.000000	-15.000000	-13.000000
0.890000	54.900000	32.400000	636.000000	0.000000	128.000000	58.000000	-10.000000	-15.000000
0.900000	54.850000	32.230000	640.000000	0.000000	128.000000	58.000000	-5.000000	-17.000000
0.910000	54.850000	32.000000	663.000000	0.000000	128.000000	58.000000	0.000000	-23.000000
0.920000	54.850000	31.640000	675.000000	0.000000	128.000000	58.000000	0.000000	-36.000000
0.930000	54.960000	31.400000	685.000000	0.000000	128.000000	58.000000	11.000000	-24.000000
0.940000	55.080000	31.260000	697.000000	0.000000	128.000000	58.000000	12.000000	-14.000000
0.950000	55.270000	31.170000	727.000000	0.000000	128.000000	58.000000	19.000000	-9.000000
0.960000	55.480000	31.170000	746.000000	0.000000	128.000000	58.000000	21.000000	0.000000
0.970000	55.700000	31.230000	754.000000	0.000000	128.000000	58.000000	22.000000	6.000000
0.980000	55.900000	31.340000	773.000000	0.000000	128.000000	58.000000	20.000000	11.000000
0.990000	56.110000	31.530000	791.000000	0.000000	128.000000	58.000000	21.000000	19.000000
1.000000	56.360000	31.780000	783.000000	0.000000	130.000000	58.000000	25.000000	25.000000
1.010000	56.470000	31.940000	790.000000	0.000000	128.000000	58.000000	11.000000	16.000000
1.020000	56.470000	31.940000	790.000000	0.000000	129.000000	59.000000	0.000000	0.000000
1.030000	56.470000	31.940000	796.000000	0.000000	129.000000	59.000000	0.000000	0.000000
1.040000	56.470000	31.890000	773.000000	0.000000	129.000000	59.000000	0.000000	-5.000000
1.050000	56.470000	31.810000	761.000000	0.000000	129.000000	59.000000	0.000000	-8.000000
1.060000	56.470000	31.810000	705.000000	0.000000	129.000000	59.000000	0.000000	0.000000
1.070000	56.470000	31.420000	580.000000	0.000000	129.000000	59.000000	0.000000	-39.000000
1.080000	56.470000	31.240000	387.000000	0.000000	129.000000	59.000000	0.000000	-18.000000
1.090000	56.620000	31.110000	61.000000	0.000000	129.000000	59.000000	15.000000	-13.000000
1.100000	56.620000	31.110000	0.000000	1.000000	129.000000	59.000000	0.000000	0.000000
1.110000	56.940000	31.110000	0.000000	0.000000	129.000000	59.000000	32.000000	0.000000
1.120000	56.940000	31.160000	0.000000	0.000000	129.000000	59.000000	0.000000	5.000000
1.130000	56.870000	31.160000	0.000000	0.000000	129.000000	59.000000	-7.000000	0.000000
1.140000	56.810000	31.230000	0.000000	0.000000	132.000000	59.000000	-6.000000	7.000000
1.150000	56.670000	31.140000	0.000000	0.000000	132.000000	59.000000	-14.000000	-9.000000
1.160000	56.470000	30.970000	0.000000	0.000000	131.000000	60.000000	-20.000000	-17.000000
1.170000	56.250000	30.710000	0.000000	0.000000	131.000000	60.000000	-22.000000	-26.000000
1.180000	56.040000	30.440000	0.000000	0.000000	131.000000	60.000000	-21.000000	-27.000000
1.190000	55.850000	30.180000	0.000000	0.000000	131.000000	60.000000	-19.000000	-26.000000
1.200000	55.710000	30.010000	0.000000	0.000000	131.000000	60.000000	-14.000000	-17.000000
1.210000	55.650000	29.890000	0.000000	0.000000	131.000000	60.000000	-6.000000	-12.000000
1.220000	55.650000	29.820000	0.000000	0.000000	129.000000	60.000000	0.000000	-7.000000
1.230000	55.650000	29.820000	399.000000	1.000000	129.000000	60.000000	0.000000	0.000000
1.240000	55.650000	29.820000	529.000000	0.000000	128.000000	59.000000	0.000000	0.000000
1.250000	55.650000	29.820000	594.000000	0.000000	128.000000	59.000000	0.000000	0.000000
1.260000	55.650000	29.820000	658.000000	0.000000	128.000000	59.000000	0.000000	0.000000
1.270000	55.650000	29.820000	702.000000	0.000000	128.000000	59.000000	0.000000	0.000000
1.280000	55.650000	29.820000	717.000000	0.000000	127.000000	59.000000	0.000000	0.000000
1.290000	56.030000	30.140000	724.000000	0.000000	127.000000	59.000000	38.000000	32.000000
1.300000	56.350000	30.240000	699.000000	0.000000	128.000000	58.000000	32.000000	10.000000
1.310000	56.770000	30.330000	644.000000	0.000000	129.000000	59.000000	42.000000	9.000000
1.320000	57.260000	30.420000	341.000000	0.000000	129.000000	59.000000	49.000000	9.000000
1.330000	57.260000	30.420000	0.000000	1.000000	129.000000	59.000000	0.000000	0.000000
1.340000	58.290000	30.500000	0.000000	0.000000	129.000000	59.000000	103.000000	8.000000
1.350000	58.490000	30.500000	0.000000	0.000000	129.000000	59.000000	20.000000	0.000000
1.360000	58.490000	30.500000	0.000000	0.000000	128.000000	59.000000	0.000000	0.000000
1.370000	58.490000	30.400000	0.000000	0.000000	128.000000	59.000000	0.000000	-10.000000
1.380000	58.490000	30.300000	0.000000	0.000000	127.000000	59.000000	0.000000	-10.000000
1.390000	58.490000	30.120000	0.000000	0.000000	126.000000	58.000000	0.000000	-18.000000
1.400000	58.640000	30.120000	0.000000	0.000000	124.000000	57.000000	15.000000	0.000000
1.410000	58.870000	30.260000	0.000000	0.000000	123.000000	56.000000	23.000000	14.000000
1.420000	59.370000	30.260000	0.000000	0.000000	120.000000	55.000000	50.000000	0.000000
1.430000	60.040000	30.350000	0.000000	0.000000	118.000000	54.000000	67.000000	9.000000
1.440000	60.800000	30.420000	0.000000	0.000000	116.000000	52.000000	76.000000	7.000000
1.450000	61.680000	30.570000	0.000000	0.000000	115.000000	51.000000	88.000000	15.000000
1.460000	62.740000	30.750000	0.000000	0.000000	115.000000	50.000000	106.000000	18.000000
1.470000	63.870000	30.980000	0.000000	0.000000	116.000000	50.000000	113.000000	23.000000
1.480000	64.720000	31.250000	0.000000	0.000000	117.000000	52.000000	85.000000	27.000000
1.490000	65.430000	31.620000	0.000000	0.000000	121.000000	53.000000	71.000000	37.000000
1.500000	66.050000	32.070000	0.000000	0.000000	124.000000	54.000000	62.000000	45.000000
1.510000	66.720000	32.220000	0.000000	0.000000	129.000000	56.000000	67.000000	15.000000
1.520000	67.190000	32.320000	0.000000	0.000000	134.000000	57.000000	47.000000	10.000000
1.530000	67.520000	32.400000	0.000000	0.000000	139.000000	58.000000	33.000000	8.000000
1.540000	67.520000	32.250000	0.000000	0.000000	143.000000	59.000000	0.000000	-15.000000
1.550000	67.360000	32.100000	0.000000	0.000000	146.000000	60.000000	-16.000000	-15.000000
1.560000	67.080000	31.950000	0.000000	0.000000	148.000000	60.000000	-28.000000	-15.000000
1.570000	66.740000	31.800000	0.000000	0.000000	151.000000	60.000000	-34.000000	-15.000000
1.580000	66.220000	31.660000	0.000000	0.000000	150.000000	60.000000	-52.000000	-14.000000
1.590000	65.570000	31.520000	0.000000	0.000000	148.000000	60.000000	-65.000000	-14.000000
1.600000	64.970000	31.310000	0.000000	0.000000	148.000000	60.000000	-60.000000	-21.000000
1.610000	64.370000	31.140000	0.000000	0.000000	145.000000	59.000000	-60.000000	-17.000000
1.620000	63.890000	31.010000	0.000000	0.000000	143.000000	59.000000	-48.000000	-13.000000
1.630000	63.480000	30.900000	0.000000	0.000000	139.000000	58.000000	-41.000000	-11.000000
1.640000	63.610000	30.900000	0.000000	0.000000	136.000000	57.000000	13.000000	0.000000
1.650000	63.200000	30.900000	0.000000	0.000000	135.000000	57.000000	-41.000000	0.000000
1.660000	62.440000	30.950000	0.000000	0.000000	134.000000	56.000000	-76.000000	5.000000
1.670000	62.100000	31.030000	0.000000	0.000000	132.000000	55.000000	-34.000000	8.000000
1.680000	61.860000	31.140000	0.000000	0.000000	131.000000	55.000000	-24.000000	11.000000
1.690000	61.680000	31.270000	0.000000	0.000000	131.000000	55.000000	-18.000000	13.000000
1.700000	61.590000	31.380000	0.000000	0.000000	130.000000	54.000000	-9.000000	11.000000
1.710000	61.520000	31.480000	0.000000	0.000000	130.000000	54.000000	-7.000000	10.000000
1.720000	61.520000	31.590000	0.000000	0.000000	130.000000	54.000000	0.000000	11.000000
1.730000	61.520000	31.700000	0.000000	0.000000	131.000000	54.000000	0.000000	11.000000
1.740000	61.520000	31.800000	0.000000	0.000000	131.000000	54.000000	0.000000	10.000000
1.750000	61.450000	31.900000	0.000000	0.000000	131.000000	54.000000	-7.000000	10.000000
1.760000	61.450000	32.010000	0.000000	0.000000	133.000000	54.000000	0.000000	11.000000
1.770000	61.360000	32.130000	0.000000	0.000000	133.000000	54.000000	-9.000000	12.000000
1.780000	61.300000	32.240000	0.000000	0.000000	134.000000	54.000000	-6.000000	11.000000
1.790000	61.230000	32.380000	0.000000	0.000000	133.000000	54.000000	-7.000000	14.000000
1.800000	61.150000	32.530000	0.000000	0.000000	133.000000	54.000000	-8.000000	15.000000
1.810000	61.100000	32.690000	0.000000	0.000000	134.000000	55.000000	-5.000000	16.000000
1.820000	61.040000	32.860000	0.000000	0.000000	134.000000	55.000000	-6.000000	17.000000
1.830000	60.970000	33.020000	0.000000	0.000000	134.000000	55.000000	-7.000000	16.000000
1.840000	60.970000	33.180000	0.000000	0.000000	135.000000	55.000000	0.000000	16.000000
1.850000	61.060000	33.310000	0.000000	0.000000	135.000000	55.000000	9.000000	13.000000
1.860000	61.140000	33.480000	0.000000	0.000000	135.000000	55.000000	8.000000	17.000000
1.870000	61.260000	33.670000	0.000000	0.000000	135.000000	57.000000	12.000000	19.000000
1.880000	61.260000	33.670000	203.000000	1.000000	135.000000	57.000000	0.000000	0.000000
1.890000	61.410000	34.090000	299.000000	0.000000	135.000000	57.000000	15.000000	42.000000
1.900000	61.410000	34.350000	404.000000	0.000000	134.000000	57.000000	0.000000	26.000000
1.910000	61.410000	34.550000	513.000000	0.000000	134.000000	57.000000	0.000000	20.000000
1.920000	61.410000	34.690000	570.000000	0.000000	134.000000	57.000000	0.000000	14.000000
1.930000	61.480000	34.690000	611.000000	0.000000	134.000000	57.000000	7.000000	0.000000
1.940000	61.480000	34.630000	685.000000	0.000000	134.000000	57.000000	0.000000	-6.000000
1.950000	61.650000	34.230000	745.000000	0.000000	132.000000	57.000000	17.000000	-40.000000
1.960000	61.800000	33.600000	788.000000	0.000000	132.000000	57.000000	15.000000	-63.000000
1.970000	61.900000	32.590000	831.000000	0.000000	132.000000	57.000000	10.000000	-101.000000
1.980000	61.900000	31.540000	861.000000	0.000000	132.000000	57.000000	0.000000	-105.000000
1.990000	61.950000	30.530000	884.000000	0.000000	132.000000	57.000000	5.000000	-101.000000
2.000000	61.950000	29.580000	896.000000	0.000000	132.000000	57.000000	0.000000	-95.000000
2.010000	61.950000	28.810000	909.000000	0.000000	134.000000	56.000000	0.000000	-77.000000
2.020000	61.950000	28.180000	918.000000	0.000000	134.000000	56.000000	0.000000	-63.000000
2.030000	62.010000	27.640000	915.000000	0.000000	132.000000	57.000000	6.000000	-54.000000
2.040000	62.070000	27.290000	914.000000	0.000000	132.000000	57.000000	6.000000	-35.000000
2.050000	62.130000	27.090000	908.000000	0.000000	131.000000	57.000000	6.000000	-20.000000
2.060000	62.190000	26.990000	888.000000	0.000000	130.000000	58.000000	6.000000	-10.000000
2.070000	62.190000	26.990000	878.000000	0.000000	130.000000	58.000000	0.000000	0.000000
2.080000	62.190000	27.170000	821.000000	0.000000	127.000000	57.000000	0.000000	18.000000
2.090000	62.190000	27.370000	800.000000	0.000000	127.000000	57.000000	0.000000	20.000000
2.100000	62.190000	27.930000	753.000000	0.000000	127.000000	57.000000	0.000000	56.000000
2.110000	62.120000	28.560000	700.000000	0.000000	127.000000	57.000000	-7.000000	63.000000
2.120000	62.070000	29.230000	663.000000	0.000000	127.000000	57.000000	-5.000000	67.000000
2.130000	62.000000	30.020000	653.000000	0.000000	127.000000	57.000000	-7.000000	79.000000
2.140000	62.000000	30.790000	644.000000	0.000000	128.000000	57.000000	0.000000	77.000000
2.150000	62.000000	31.550000	644.000000	0.000000	130.000000	56.000000	0.000000	76.000000
2.160000	61.950000	32.290000	650.000000	0.000000	130.000000	56.000000	-5.000000	74.000000
2.170000	61.950000	32.900000	659.000000	0.000000	131.000000	56.000000	0.000000	61.000000
2.180000	62.010000	33.430000	687.000000	0.000000	131.000000	56.000000	6.000000	53.000000
2.190000	62.130000	33.820000	705.000000	0.000000	134.000000	56.000000	12.000000	39.000000
2.200000	62.400000	34.160000	731.000000	0.000000	134.000000	56.000000	27.000000	34.000000
2.210000	62.750000	34.430000	763.000000	0.000000	132.000000	57.000000	35.000000	27.000000
2.220000	63.080000	34.590000	805.000000	0.000000	132.000000	57.000000	33.000000	16.000000
2.230000	63.530000	34.670000	834.000000	0.000000	132.000000	57.000000	45.000000	8.000000
