t	x	y	pressure	penup	azimuth	inclination	v_x	v_y
0.000000	14.930000	44.730000	13.000000	1.000000	136.000000	58.000000	0.000000	0.000000
0.010000	14.590000	43.570000	90.000000	1.000000	135.000000	59.000000	0.000000	0.000000
0.020000	14.240000	43.030000	206.000000	0.000000	135.000000	59.000000	-35.000000	-54.000000
0.030000	13.790000	42.610000	285.000000	0.000000	135.000000	59.000000	-45.000000	-42.000000
0.040000	13.280000	42.270000	342.000000	0.000000	135.000000	59.000000	-51.000000	-34.000000
0.050000	12.640000	42.040000	394.000000	0.000000	135.000000	59.000000	-64.000000	-23.000000
0.060000	11.930000	42.040000	428.000000	0.000000	134.000000	58.000000	-71.000000	0.000000
0.070000	11.160000	42.130000	450.000000	0.000000	134.000000	58.000000	-77.000000	9.000000
0.080000	10.210000	42.470000	471.000000	0.000000	132.000000	58.000000	-95.000000	34.000000
0.090000	9.260000	43.070000	495.000000	0.000000	134.000000	57.000000	-95.000000	60.000000
0.100000	8.340000	43.840000	509.000000	0.000000	132.000000	57.000000	-92.000000	77.000000
0.110000	7.470000	44.590000	536.000000	0.000000	131.000000	57.000000	-87.000000	75.000000
0.120000	6.890000	45.290000	561.000000	0.000000	131.000000	57.000000	-58.000000	70.000000
0.130000	6.500000	45.900000	566.000000	0.000000	130.000000	56.000000	-39.000000	61.000000
0.140000	6.290000	46.500000	566.000000	0.000000	131.000000	57.000000	-21.000000	60.000000
0.150000	6.130000	47.090000	570.000000	0.000000	131.000000	57.000000	-16.000000	59.000000
0.160000	6.180000	47.820000	553.000000	0.000000	131.000000	57.000000	5.000000	73.000000
0.170000	6.360000	48.640000	537.000000	0.000000	131.000000	57.000000	18.000000	82.000000
0.180000	6.660000	49.490000	535.000000	0.000000	131.000000	57.000000	30.000000	85.000000
0.190000	7.130000	50.280000	521.000000	0.000000	132.000000	57.000000	47.000000	79.000000
0.200000	7.710000	51.030000	519.000000	0.000000	134.000000	56.000000	58.000000	75.000000
0.210000	8.270000	51.500000	521.000000	0.000000	135.000000	55.000000	56.000000	47.000000
0.220000	8.740000	51.760000	521.000000	0.000000	134.000000	55.000000	47.000000	26.000000
0.230000	9.150000	51.890000	526.000000	0.000000	135.000000	54.000000	41.000000	13.000000
0.240000	9.550000	51.970000	538.000000	0.000000	134.000000	54.000000	40.000000	8.000000
0.250000	9.960000	51.890000	536.000000	0.000000	135.000000	53.000000	41.000000	-8.000000
0.260000	10.370000	51.710000	543.000000	0.000000	134.000000	52.000000	41.000000	-18.000000
0.270000	10.810000	51.460000	561.000000	0.000000	134.000000	52.000000	44.000000	-25.000000
0.280000	11.210000	51.090000	570.000000	0.000000	134.000000	52.000000	40.000000	-37.000000
0.290000	11.570000	50.650000	574.000000	0.000000	133.000000	52.000000	36.000000	-44.000000
0.300000	11.810000	50.120000	591.000000	0.000000	133.000000	52.000000	24.000000	-53.000000
0.310000	12.050000	49.560000	600.000000	0.000000	133.000000	52.000000	24.000000	-56.000000
0.320000	12.290000	49.030000	616.000000	0.000000	134.000000	52.000000	24.000000	-53.000000
0.330000	12.450000	48.520000	634.000000	0.000000	133.000000	53.000000	16.000000	-51.000000
0.340000	12.550000	47.930000	647.000000	0.000000	133.000000	53.000000	10.000000	-59.000000
0.350000	12.550000	47.410000	656.000000	0.000000	134.000000	54.000000	0.000000	-52.000000
0.360000	12.490000	46.940000	661.000000	0.000000	133.000000	54.000000	-6.000000	-47.000000
0.370000	12.400000	46.550000	670.000000	0.000000	133.000000	54.000000	-9.000000	-39.000000
0.380000	12.400000	46.300000	664.000000	0.000000	131.000000	55.000000	0.000000	-25.000000
0.390000	12.400000	46.140000	675.000000	0.000000	130.000000	55.000000	0.000000	-16.000000
0.400000	12.340000	46.140000	697.000000	0.000000	130.000000	55.000000	-6.000000	0.000000
0.410000	12.340000	46.140000	697.000000	0.000000	129.000000	56.000000	0.000000	0.000000
0.420000	12.340000	46.210000	721.000000	0.000000	129.000000	56.000000	0.000000	7.000000
0.430000	12.340000	46.280000	722.000000	0.000000	129.000000	56.000000	0.000000	7.000000
0.440000	12.290000	46.450000	707.000000	0.000000	129.000000	56.000000	-5.000000	17.000000
0.450000	12.290000	46.700000	694.000000	0.000000	129.000000	56.000000	0.000000	25.000000
0.460000	12.290000	46.980000	675.000000	0.000000	129.000000	56.000000	0.000000	28.000000
0.470000	12.360000	47.260000	667.000000	0.000000	129.000000	56.000000	7.000000	28.000000
0.480000	12.410000	47.550000	650.000000	0.000000	129.000000	56.000000	5.000000	29.000000
0.490000	12.520000	47.860000	614.000000	0.000000	130.000000	55.000000	11.000000	31.000000
0.500000	12.640000	48.170000	603.000000	0.000000	130.000000	55.000000	12.000000	31.000000
0.510000	12.780000	48.470000	594.000000	0.000000	131.000000	55.000000	14.000000	30.000000
0.520000	12.920000	48.600000	581.000000	0.000000	131.000000	55.000000	14.000000	13.000000
0.530000	13.060000	48.600000	581.000000	0.000000	131.000000	55.000000	14.000000	0.000000
0.540000	13.200000	48.490000	588.000000	0.000000	133.000000	54.000000	14.000000	-11.000000
0.550000	13.330000	48.190000	588.000000	0.000000	134.000000	55.000000	13.000000	-30.000000
0.560000	13.410000	47.770000	602.000000	0.000000	134.000000	55.000000	8.000000	-42.000000
0.570000	13.470000	47.310000	614.000000	0.000000	134.000000	55.000000	6.000000	-46.000000
0.580000	13.520000	46.930000	633.000000	0.000000	132.000000	55.000000	5.000000	-38.000000
0.590000	13.520000	46.660000	650.000000	0.000000	132.000000	55.000000	0.000000	-27.000000
0.600000	13.520000	46.450000	667.000000	0.000000	132.000000	55.000000	0.000000	-21.000000
0.610000	13.520000	46.400000	667.000000	0.000000	131.000000	56.000000	0.000000	-5.000000
0.620000	13.520000	46.400000	684.000000	0.000000	131.000000	56.000000	0.000000	0.000000
0.630000	13.520000	46.500000	664.000000	0.000000	131.000000	56.000000	0.000000	10.000000
0.640000	13.520000	46.780000	652.000000	0.000000	131.000000	56.000000	0.000000	28.000000
0.650000	13.610000	47.220000	634.000000	0.000000	131.000000	56.000000	9.000000	44.000000
0.660000	13.770000	47.770000	613.000000	0.000000	131.000000	56.000000	16.000000	55.000000
0.670000	13.930000	48.050000	613.000000	0.000000	132.000000	57.000000	16.000000	28.000000
0.680000	14.070000	48.170000	605.000000	0.000000	132.000000	57.000000	14.000000	12.000000
0.690000	14.200000	48.170000	609.000000	0.000000	132.000000	57.000000	13.000000	0.000000
0.700000	14.300000	48.030000	613.000000	0.000000	134.000000	56.000000	10.000000	-14.000000
0.710000	14.400000	47.830000	647.000000	0.000000	134.000000	56.000000	10.000000	-20.000000
0.720000	14.460000	47.520000	655.000000	0.000000	135.000000	57.000000	6.000000	-31.000000
0.730000	14.460000	47.160000	661.000000	0.000000	135.000000	57.000000	0.000000	-36.000000
0.740000	14.530000	46.940000	665.000000	0.000000	135.000000	57.000000	7.000000	-22.000000
0.750000	14.530000	46.810000	656.000000	0.000000	135.000000	57.000000	0.000000	-13.000000
0.760000	14.640000	46.730000	620.000000	0.000000	135.000000	57.000000	11.000000	-8.000000
0.770000	14.640000	46.730000	554.000000	0.000000	136.000000	57.000000	0.000000	0.000000
0.780000	14.640000	46.730000	396.000000	0.000000	135.000000	58.000000	0.000000	0.000000
0.790000	14.640000	46.730000	107.000000	0.000000	135.000000	58.000000	0.000000	0.000000
0.800000	14.640000	46.730000	0.000000	1.000000	135.000000	58.000000	0.000000	0.000000
0.810000	14.640000	46.730000	0.000000	0.000000	135.000000	58.000000	0.000000	0.000000
0.820000	14.960000	46.800000	0.000000	0.000000	135.000000	58.000000	32.000000	7.000000
0.830000	15.270000	46.940000	0.000000	0.000000	135.000000	58.000000	31.000000	14.000000
0.840000	15.750000	47.210000	0.000000	0.000000	135.000000	58.000000	48.000000	27.000000
0.850000	16.270000	47.530000	0.000000	0.000000	135.000000	58.000000	52.000000	32.000000
0.860000	16.810000	47.880000	0.000000	0.000000	135.000000	58.000000	54.000000	35.000000
0.870000	17.310000	48.110000	0.000000	0.000000	135.000000	58.000000	50.000000	23.000000
0.880000	17.310000	48.110000	244.000000	1.000000	135.000000	58.000000	0.000000	0.000000
0.890000	17.530000	48.500000	404.000000	0.000000	134.000000	57.000000	22.000000	39.000000
0.900000	17.530000	48.660000	512.000000	0.000000	135.000000	57.000000	0.000000	16.000000
0.910000	17.370000	48.840000	595.000000	0.000000	135.000000	57.000000	-16.000000	18.000000
0.920000	17.230000	49.030000	620.000000	0.000000	135.000000	57.000000	-14.000000	19.000000
0.930000	17.060000	49.140000	647.000000	0.000000	136.000000	56.000000	-17.000000	11.000000
0.940000	16.870000	49.220000	641.000000	0.000000	136.000000	56.000000	-19.000000	8.000000
0.950000	16.670000	49.220000	643.000000	0.000000	136.000000	56.000000	-20.000000	0.000000
0.960000	16.560000	49.270000	644.000000	0.000000	138.000000	55.000000	-11.000000	5.000000
0.970000	16.420000	49.270000	653.000000	0.000000	138.000000	55.000000	-14.000000	0.000000
0.980000	16.250000	49.270000	670.000000	0.000000	138.000000	55.000000	-17.000000	0.000000
0.990000	16.200000	49.180000	667.000000	0.000000	138.000000	55.000000	-5.000000	-9.000000
1.000000	16.130000	49.120000	681.000000	0.000000	138.000000	55.000000	-7.000000	-6.000000
1.010000	16.040000	49.030000	682.000000	0.000000	138.000000	55.000000	-9.000000	-9.000000
1.020000	16.040000	48.910000	681.000000	0.000000	139.000000	55.000000	0.000000	-12.000000
1.030000	15.990000	48.730000	684.000000	0.000000	139.000000	55.000000	-5.000000	-18.000000
1.040000	15.990000	48.600000	690.000000	0.000000	138.000000	55.000000	0.000000	-13.000000
1.050000	16.130000	48.510000	696.000000	0.000000	138.000000	55.000000	14.000000	-9.000000
1.060000	16.220000	48.510000	710.000000	0.000000	138.000000	55.000000	9.000000	0.000000
1.070000	16.400000	48.400000	716.000000	0.000000	138.000000	55.000000	18.000000	-11.000000
1.080000	16.670000	48.310000	717.000000	0.000000	138.000000	55.000000	27.000000	-9.000000
1.090000	16.900000	48.200000	711.000000	0.000000	136.000000	56.000000	23.000000	-11.000000
1.100000	17.060000	48.150000	691.000000	0.000000	136.000000	56.000000	16.000000	-5.000000
1.110000	17.180000	48.150000	633.000000	0.000000	136.000000	56.000000	12.000000	0.000000
1.120000	17.310000	48.070000	515.000000	0.000000	136.000000	56.000000	13.000000	-8.000000
1.130000	17.390000	48.070000	210.000000	0.000000	136.000000	56.000000	8.000000	0.000000
1.140000	17.390000	48.070000	0.000000	1.000000	136.000000	56.000000	0.000000	0.000000
1.150000	17.340000	47.950000	0.000000	0.000000	136.000000	56.000000	-5.000000	-12.000000
1.160000	17.160000	47.880000	0.000000	0.000000	136.000000	56.000000	-18.000000	-7.000000
1.170000	16.970000	47.810000	0.000000	0.000000	136.000000	56.000000	-19.000000	-7.000000
1.180000	16.780000	47.660000	0.000000	0.000000	136.000000	56.000000	-19.000000	-15.000000
1.190000	16.610000	47.500000	0.000000	0.000000	136.000000	56.000000	-17.000000	-16.000000
1.200000	16.610000	47.500000	139.000000	1.000000	135.000000	57.000000	0.000000	0.000000
1.210000	16.300000	47.240000	292.000000	0.000000	135.000000	57.000000	-31.000000	-26.000000
1.220000	16.240000	47.240000	397.000000	0.000000	135.000000	57.000000	-6.000000	0.000000
1.230000	16.240000	47.240000	488.000000	0.000000	134.000000	57.000000	0.000000	0.000000
1.240000	16.370000	47.190000	554.000000	0.000000	134.000000	57.000000	13.000000	-5.000000
1.250000	16.520000	47.140000	585.000000	0.000000	134.000000	57.000000	15.000000	-5.000000
1.260000	16.720000	47.140000	603.000000	0.000000	134.000000	57.000000	20.000000	0.000000
1.270000	16.920000	47.060000	597.000000	0.000000	134.000000	57.000000	20.000000	-8.000000
1.280000	17.110000	47.060000	546.000000	0.000000	134.000000	57.000000	19.000000	0.000000
1.290000	17.360000	47.060000	444.000000	0.000000	134.000000	57.000000	25.000000	0.000000
1.300000	17.700000	47.060000	191.000000	0.000000	134.000000	57.000000	34.000000	0.000000
1.310000	17.700000	47.060000	0.000000	1.000000	134.000000	57.000000	0.000000	0.000000
1.320000	18.400000	47.450000	0.000000	0.000000	135.000000	58.000000	70.000000	39.000000
1.330000	18.640000	47.860000	0.000000	0.000000	135.000000	58.000000	24.000000	41.000000
1.340000	18.840000	48.310000	0.000000	0.000000	135.000000	58.000000	20.000000	45.000000
1.350000	19.000000	48.790000	0.000000	0.000000	135.000000	58.000000	16.000000	48.000000
1.360000	19.080000	49.120000	0.000000	0.000000	136.000000	57.000000	8.000000	33.000000
1.370000	19.080000	49.420000	0.000000	0.000000	136.000000	57.000000	0.000000	30.000000
1.380000	19.080000	49.640000	0.000000	0.000000	135.000000	57.000000	0.000000	22.000000
1.390000	18.960000	49.830000	0.000000	0.000000	135.000000	57.000000	-12.000000	19.000000
1.400000	18.960000	49.830000	58.000000	1.000000	136.000000	56.000000	0.000000	0.000000
1.410000	18.720000	50.140000	139.000000	0.000000	136.000000	56.000000	-24.000000	31.000000
1.420000	18.660000	50.220000	222.000000	0.000000	135.000000	55.000000	-6.000000	8.000000
1.430000	18.660000	50.220000	247.000000	0.000000	136.000000	55.000000	0.000000	0.000000
1.440000	18.720000	50.070000	304.000000	0.000000	136.000000	55.000000	6.000000	-15.000000
1.450000	18.830000	49.780000	348.000000	0.000000	136.000000	55.000000	11.000000	-29.000000
1.460000	18.970000	49.160000	405.000000	0.000000	137.000000	54.000000	14.000000	-62.000000
1.470000	19.070000	48.500000	485.000000	0.000000	138.000000	55.000000	10.000000	-66.000000
1.480000	19.140000	47.840000	560.000000	0.000000	138.000000	55.000000	7.000000	-66.000000
1.490000	19.230000	47.250000	633.000000	0.000000	138.000000	55.000000	9.000000	-59.000000
1.500000	19.230000	46.880000	670.000000	0.000000	136.000000	56.000000	0.000000	-37.000000
1.510000	19.230000	46.620000	707.000000	0.000000	138.000000	57.000000	0.000000	-26.000000
1.520000	19.230000	46.560000	721.000000	0.000000	136.000000	57.000000	0.000000	-6.000000
1.530000	19.230000	46.560000	720.000000	0.000000	136.000000	57.000000	0.000000	0.000000
1.540000	19.230000	46.630000	681.000000	0.000000	135.000000	58.000000	0.000000	7.000000
1.550000	19.230000	46.760000	535.000000	0.000000	135.000000	58.000000	0.000000	13.000000
1.560000	19.230000	47.010000	149.000000	0.000000	135.000000	58.000000	0.000000	25.000000
1.570000	19.230000	47.010000	0.000000	1.000000	135.000000	58.000000	0.000000	0.000000
1.580000	19.590000	47.620000	0.000000	0.000000	135.000000	58.000000	36.000000	61.000000
1.590000	19.800000	47.890000	0.000000	0.000000	135.000000	58.000000	21.000000	27.000000
1.600000	20.090000	48.150000	0.000000	0.000000	136.000000	57.000000	29.000000	26.000000
1.610000	20.340000	48.310000	0.000000	0.000000	136.000000	57.000000	25.000000	16.000000
1.620000	20.450000	48.400000	0.000000	0.000000	135.000000	57.000000	11.000000	9.000000
1.630000	20.450000	48.500000	0.000000	0.000000	135.000000	57.000000	0.000000	10.000000
1.640000	20.560000	48.630000	0.000000	0.000000	134.000000	56.000000	11.000000	13.000000
1.650000	20.560000	48.770000	0.000000	0.000000	134.000000	56.000000	0.000000	14.000000
1.660000	20.450000	48.820000	0.000000	0.000000	131.000000	56.000000	-11.000000	5.000000
1.670000	20.170000	48.820000	0.000000	0.000000	131.000000	56.000000	-28.000000	0.000000
1.680000	19.770000	48.710000	0.000000	0.000000	130.000000	55.000000	-40.000000	-11.000000
1.690000	19.300000	48.610000	0.000000	0.000000	130.000000	55.000000	-47.000000	-10.000000
1.700000	18.710000	48.500000	0.000000	0.000000	130.000000	55.000000	-59.000000	-11.000000
1.710000	17.980000	48.370000	0.000000	0.000000	130.000000	55.000000	-73.000000	-13.000000
1.720000	17.980000	48.370000	61.000000	1.000000	131.000000	56.000000	0.000000	0.000000
1.730000	16.280000	48.440000	187.000000	0.000000	131.000000	56.000000	-170.000000	7.000000
1.740000	15.520000	48.920000	226.000000	0.000000	132.000000	57.000000	-76.000000	48.000000
1.750000	15.150000	49.470000	253.000000	0.000000	134.000000	57.000000	-37.000000	55.000000
1.760000	14.980000	50.080000	262.000000	0.000000	136.000000	57.000000	-17.000000	61.000000
1.770000	15.100000	50.820000	255.000000	0.000000	136.000000	57.000000	12.000000	74.000000
1.780000	15.550000	51.550000	247.000000	0.000000	138.000000	57.000000	45.000000	73.000000
1.790000	16.210000	52.280000	251.000000	0.000000	139.000000	57.000000	66.000000	73.000000
1.800000	17.060000	52.830000	244.000000	0.000000	140.000000	56.000000	85.000000	55.000000
1.810000	17.930000	53.190000	265.000000	0.000000	140.000000	56.000000	87.000000	36.000000
1.820000	18.830000	53.430000	277.000000	0.000000	141.000000	56.000000	90.000000	24.000000
1.830000	19.750000	53.430000	287.000000	0.000000	141.000000	56.000000	92.000000	0.000000
1.840000	20.540000	53.150000	287.000000	0.000000	141.000000	55.000000	79.000000	-28.000000
1.850000	21.240000	52.710000	292.000000	0.000000	141.000000	55.000000	70.000000	-44.000000
1.860000	21.850000	52.120000	309.000000	0.000000	141.000000	55.000000	61.000000	-59.000000
1.870000	22.250000	51.530000	335.000000	0.000000	142.000000	54.000000	40.000000	-59.000000
1.880000	22.510000	50.940000	388.000000	0.000000	144.000000	54.000000	26.000000	-59.000000
1.890000	22.510000	50.580000	448.000000	0.000000	144.000000	54.000000	0.000000	-36.000000
1.900000	22.140000	50.360000	496.000000	0.000000	144.000000	54.000000	-37.000000	-22.000000
1.910000	21.580000	50.220000	546.000000	0.000000	144.000000	54.000000	-56.000000	-14.000000
1.920000	20.740000	50.220000	556.000000	0.000000	144.000000	54.000000	-84.000000	0.000000
1.930000	19.780000	50.220000	559.000000	0.000000	144.000000	54.000000	-96.000000	0.000000
1.940000	18.750000	50.300000	570.000000	0.000000	144.000000	54.000000	-103.000000	8.000000
1.950000	18.130000	50.410000	572.000000	0.000000	144.000000	54.000000	-62.000000	11.000000
1.960000	17.940000	50.550000	554.000000	0.000000	144.000000	54.000000	-19.000000	14.000000
1.970000	18.040000	50.550000	530.000000	0.000000	144.000000	54.000000	10.000000	0.000000
1.980000	18.280000	50.550000	494.000000	0.000000	144.000000	54.000000	24.000000	0.000000
1.990000	18.860000	50.440000	447.000000	0.000000	144.000000	54.000000	58.000000	-11.000000
2.000000	19.670000	50.320000	373.000000	0.000000	142.000000	54.000000	81.000000	-12.000000
2.010000	20.630000	50.220000	247.000000	0.000000	142.000000	54.000000	96.000000	-10.000000
2.020000	20.630000	50.220000	0.000000	1.000000	141.000000	55.000000	0.000000	0.000000
2.030000	22.170000	50.000000	0.000000	0.000000	141.000000	55.000000	154.000000	-22.000000
2.040000	22.390000	49.890000	0.000000	0.000000	141.000000	55.000000	22.000000	-11.000000
2.050000	22.480000	49.780000	0.000000	0.000000	141.000000	55.000000	9.000000	-11.000000
2.060000	22.480000	49.650000	0.000000	0.000000	140.000000	55.000000	0.000000	-13.000000
2.070000	22.480000	49.370000	0.000000	0.000000	140.000000	55.000000	0.000000	-28.000000
2.080000	22.380000	49.000000	0.000000	0.000000	139.000000	55.000000	-10.000000	-37.000000
2.090000	22.290000	48.830000	0.000000	0.000000	138.000000	55.000000	-9.000000	-17.000000
2.100000	22.220000	48.550000	0.000000	0.000000	135.000000	55.000000	-7.000000	-28.000000
2.110000	22.150000	48.210000	0.000000	0.000000	135.000000	55.000000	-7.000000	-34.000000
2.120000	22.100000	48.010000	0.000000	0.000000	135.000000	55.000000	-5.000000	-20.000000
2.130000	22.050000	47.780000	0.000000	0.000000	132.000000	55.000000	-5.000000	-23.000000
2.140000	21.990000	47.680000	0.000000	0.000000	134.000000	56.000000	-6.000000	-10.000000
2.150000	21.990000	47.680000	0.000000	0.000000	134.000000	56.000000	0.000000	0.000000
2.160000	21.990000	47.730000	0.000000	0.000000	134.000000	56.000000	0.000000	5.000000
2.170000	22.090000	47.780000	0.000000	0.000000	135.000000	57.000000	10.000000	5.000000
2.180000	22.160000	47.830000	0.000000	0.000000	135.000000	57.000000	7.000000	5.000000
2.190000	22.160000	47.830000	63.000000	1.000000	135.000000	57.000000	0.000000	0.000000
2.200000	22.160000	47.830000	160.000000	0.000000	136.000000	57.000000	0.000000	0.000000
2.210000	22.280000	48.090000	241.000000	0.000000	136.000000	57.000000	12.000000	26.000000
2.220000	22.280000	48.270000	314.000000	0.000000	136.000000	57.000000	0.000000	18.000000
