t	x	y	pressure	penup	azimuth	inclination	v_x	v_y
0.000000	15.220000	28.920000	3.000000	1.000000	144.000000	61.000000	0.000000	0.000000
0.010000	15.560000	28.350000	61.000000	1.000000	146.000000	62.000000	0.000000	0.000000
0.020000	15.560000	28.030000	132.000000	0.000000	144.000000	62.000000	0.000000	-32.000000
0.030000	15.470000	27.540000	218.000000	0.000000	144.000000	62.000000	-9.000000	-49.000000
0.040000	15.260000	26.940000	301.000000	0.000000	146.000000	63.000000	-21.000000	-60.000000
0.050000	14.970000	26.480000	364.000000	0.000000	146.000000	63.000000	-29.000000	-46.000000
0.060000	14.510000	26.110000	430.000000	0.000000	148.000000	63.000000	-46.000000	-37.000000
0.070000	13.960000	25.810000	481.000000	0.000000	148.000000	63.000000	-55.000000	-30.000000
0.080000	13.350000	25.600000	529.000000	0.000000	148.000000	63.000000	-61.000000	-21.000000
0.090000	12.540000	25.550000	546.000000	0.000000	148.000000	63.000000	-81.000000	-5.000000
0.100000	11.600000	25.610000	588.000000	0.000000	148.000000	63.000000	-94.000000	6.000000
0.110000	10.580000	25.850000	599.000000	0.000000	145.000000	64.000000	-102.000000	24.000000
0.120000	9.600000	26.240000	617.000000	0.000000	145.000000	64.000000	-98.000000	39.000000
0.130000	8.620000	26.720000	638.000000	0.000000	143.000000	63.000000	-98.000000	48.000000
0.140000	7.790000	27.430000	644.000000	0.000000	141.000000	63.000000	-83.000000	71.000000
0.150000	7.050000	28.120000	641.000000	0.000000	140.000000	62.000000	-74.000000	69.000000
0.160000	6.560000	28.810000	644.000000	0.000000	141.000000	61.000000	-49.000000	69.000000
0.170000	6.110000	29.400000	640.000000	0.000000	141.000000	61.000000	-45.000000	59.000000
0.180000	6.010000	29.990000	636.000000	0.000000	141.000000	60.000000	-10.000000	59.000000
0.190000	6.120000	30.690000	638.000000	0.000000	141.000000	60.000000	11.000000	70.000000
0.200000	6.460000	31.460000	636.000000	0.000000	142.000000	59.000000	34.000000	77.000000
0.210000	6.930000	32.200000	630.000000	0.000000	142.000000	59.000000	47.000000	74.000000
0.220000	7.490000	32.940000	636.000000	0.000000	143.000000	59.000000	56.000000	74.000000
0.230000	8.070000	33.630000	636.000000	0.000000	142.000000	58.000000	58.000000	69.000000
0.240000	8.590000	34.060000	634.000000	0.000000	140.000000	58.000000	52.000000	43.000000
0.250000	9.030000	34.350000	633.000000	0.000000	142.000000	57.000000	44.000000	29.000000
0.260000	9.430000	34.600000	630.000000	0.000000	140.000000	56.000000	40.000000	25.000000
0.270000	9.720000	34.700000	628.000000	0.000000	139.000000	56.000000	29.000000	10.000000
0.280000	10.010000	34.700000	622.000000	0.000000	138.000000	55.000000	29.000000	0.000000
0.290000	10.320000	34.650000	628.000000	0.000000	138.000000	55.000000	31.000000	-5.000000
0.300000	10.660000	34.550000	628.000000	0.000000	138.000000	55.000000	34.000000	-10.000000
0.310000	11.040000	34.350000	631.000000	0.000000	136.000000	55.000000	38.000000	-20.000000
0.320000	11.430000	34.080000	631.000000	0.000000	136.000000	55.000000	39.000000	-27.000000
0.330000	11.730000	33.710000	636.000000	0.000000	136.000000	55.000000	30.000000	-37.000000
0.340000	11.960000	33.260000	637.000000	0.000000	136.000000	55.000000	23.000000	-45.000000
0.350000	12.130000	32.690000	640.000000	0.000000	136.000000	55.000000	17.000000	-57.000000
0.360000	12.240000	32.050000	649.000000	0.000000	136.000000	55.000000	11.000000	-64.000000
0.370000	12.320000	31.440000	665.000000	0.000000	138.000000	55.000000	8.000000	-61.000000
0.380000	12.370000	30.930000	675.000000	0.000000	138.000000	55.000000	5.000000	-51.000000
0.390000	12.430000	30.500000	694.000000	0.000000	138.000000	55.000000	6.000000	-43.000000
0.400000	12.480000	30.250000	693.000000	0.000000	139.000000	56.000000	5.000000	-25.000000
0.410000	12.480000	30.070000	705.000000	0.000000	139.000000	56.000000	0.000000	-18.000000
0.420000	12.540000	29.940000	707.000000	0.000000	139.000000	56.000000	6.000000	-13.000000
0.430000	12.540000	29.940000	716.000000	0.000000	139.000000	56.000000	0.000000	0.000000
0.440000	12.540000	29.940000	724.000000	0.000000	139.000000	56.000000	0.000000	0.000000
0.450000	12.540000	29.940000	733.000000	0.000000	139.000000	56.000000	0.000000	0.000000
0.460000	12.540000	29.940000	725.000000	0.000000	139.000000	56.000000	0.000000	0.000000
0.470000	12.540000	29.990000	728.000000	0.000000	139.000000	56.000000	0.000000	5.000000
0.480000	12.540000	30.090000	724.000000	0.000000	139.000000	56.000000	0.000000	10.000000
0.490000	12.480000	30.310000	711.000000	0.000000	138.000000	57.000000	-6.000000	22.000000
0.500000	12.480000	30.580000	691.000000	0.000000	138.000000	57.000000	0.000000	27.000000
0.510000	12.420000	30.890000	653.000000	0.000000	138.000000	57.000000	-6.000000	31.000000
0.520000	12.420000	31.210000	647.000000	0.000000	138.000000	57.000000	0.000000	32.000000
0.530000	12.470000	31.520000	619.000000	0.000000	138.000000	57.000000	5.000000	31.000000
0.540000	12.570000	31.780000	611.000000	0.000000	138.000000	57.000000	10.000000	26.000000
0.550000	12.680000	31.910000	603.000000	0.000000	138.000000	57.000000	11.000000	13.000000
0.560000	12.790000	31.970000	589.000000	0.000000	138.000000	57.000000	11.000000	6.000000
0.570000	12.920000	32.030000	574.000000	0.000000	138.000000	57.000000	13.000000	6.000000
0.580000	13.060000	31.940000	572.000000	0.000000	138.000000	57.000000	14.000000	-9.000000
0.590000	13.200000	31.760000	574.000000	0.000000	138.000000	57.000000	14.000000	-18.000000
0.600000	13.360000	31.530000	575.000000	0.000000	138.000000	57.000000	16.000000	-23.000000
0.610000	13.510000	31.280000	586.000000	0.000000	138.000000	57.000000	15.000000	-25.000000
0.620000	13.650000	31.030000	594.000000	0.000000	139.000000	57.000000	14.000000	-25.000000
0.630000	13.750000	30.760000	603.000000	0.000000	139.000000	57.000000	10.000000	-27.000000
0.640000	13.750000	30.760000	627.000000	0.000000	139.000000	57.000000	0.000000	0.000000
0.650000	13.820000	30.400000	646.000000	0.000000	140.000000	58.000000	7.000000	-36.000000
0.660000	13.820000	30.350000	669.000000	0.000000	140.000000	58.000000	0.000000	-5.000000
0.670000	13.820000	30.350000	693.000000	0.000000	142.000000	58.000000	0.000000	0.000000
0.680000	13.820000	30.350000	690.000000	0.000000	142.000000	58.000000	0.000000	0.000000
0.690000	13.820000	30.400000	690.000000	0.000000	142.000000	58.000000	0.000000	5.000000
0.700000	13.770000	30.520000	673.000000	0.000000	142.000000	58.000000	-5.000000	12.000000
0.710000	13.770000	30.710000	630.000000	0.000000	142.000000	58.000000	0.000000	19.000000
0.720000	13.770000	30.970000	614.000000	0.000000	142.000000	58.000000	0.000000	26.000000
0.730000	13.770000	31.220000	585.000000	0.000000	142.000000	58.000000	0.000000	25.000000
0.740000	13.970000	31.420000	567.000000	0.000000	142.000000	58.000000	20.000000	20.000000
0.750000	14.240000	31.620000	556.000000	0.000000	140.000000	58.000000	27.000000	20.000000
0.760000	14.430000	31.620000	546.000000	0.000000	140.000000	58.000000	19.000000	0.000000
0.770000	14.630000	31.470000	556.000000	0.000000	142.000000	58.000000	20.000000	-15.000000
0.780000	14.760000	31.260000	569.000000	0.000000	142.000000	58.000000	13.000000	-21.000000
0.790000	14.830000	31.020000	600.000000	0.000000	142.000000	58.000000	7.000000	-24.000000
0.800000	14.880000	30.760000	611.000000	0.000000	143.000000	59.000000	5.000000	-26.000000
0.810000	14.880000	30.590000	627.000000	0.000000	143.000000	59.000000	0.000000	-17.000000
0.820000	14.810000	30.450000	619.000000	0.000000	145.000000	59.000000	-7.000000	-14.000000
0.830000	14.810000	30.340000	603.000000	0.000000	146.000000	60.000000	0.000000	-11.000000
0.840000	14.810000	30.340000	551.000000	0.000000	146.000000	60.000000	0.000000	0.000000
0.850000	14.810000	30.280000	431.000000	0.000000	146.000000	60.000000	0.000000	-6.000000
0.860000	14.910000	30.280000	254.000000	0.000000	145.000000	60.000000	10.000000	0.000000
0.870000	14.910000	30.280000	0.000000	1.000000	145.000000	60.000000	0.000000	0.000000
0.880000	15.260000	30.270000	0.000000	0.000000	145.000000	60.000000	35.000000	-1.000000
0.890000	15.560000	30.400000	0.000000	0.000000	145.000000	60.000000	30.000000	13.000000
0.900000	15.840000	30.650000	0.000000	0.000000	145.000000	60.000000	28.000000	25.000000
0.910000	16.160000	30.950000	0.000000	0.000000	145.000000	60.000000	32.000000	30.000000
0.920000	16.540000	31.290000	0.000000	0.000000	144.000000	60.000000	38.000000	34.000000
0.930000	16.920000	31.450000	0.000000	0.000000	141.000000	59.000000	38.000000	16.000000
0.940000	17.230000	31.590000	0.000000	0.000000	140.000000	58.000000	31.000000	14.000000
0.950000	17.490000	31.680000	0.000000	0.000000	139.000000	57.000000	26.000000	9.000000
0.960000	17.490000	31.680000	182.000000	1.000000	139.000000	56.000000	0.000000	0.000000
0.970000	17.490000	31.680000	299.000000	0.000000	139.000000	56.000000	0.000000	0.000000
0.980000	17.580000	32.010000	397.000000	0.000000	138.000000	55.000000	9.000000	33.000000
0.990000	17.500000	32.210000	465.000000	0.000000	139.000000	55.000000	-8.000000	20.000000
1.000000	17.420000	32.460000	492.000000	0.000000	139.000000	55.000000	-8.000000	25.000000
1.010000	17.300000	32.680000	529.000000	0.000000	139.000000	55.000000	-12.000000	22.000000
1.020000	17.150000	32.890000	550.000000	0.000000	140.000000	55.000000	-15.000000	21.000000
1.030000	17.020000	33.030000	577.000000	0.000000	140.000000	55.000000	-13.000000	14.000000
1.040000	16.880000	33.140000	585.000000	0.000000	141.000000	56.000000	-14.000000	11.000000
1.050000	16.720000	33.140000	600.000000	0.000000	141.000000	56.000000	-16.000000	0.000000
1.060000	16.530000	33.140000	614.000000	0.000000	141.000000	56.000000	-19.000000	0.000000
1.070000	16.360000	33.140000	616.000000	0.000000	141.000000	56.000000	-17.000000	0.000000
1.080000	16.200000	32.970000	617.000000	0.000000	143.000000	56.000000	-16.000000	-17.000000
1.090000	16.040000	32.770000	622.000000	0.000000	142.000000	57.000000	-16.000000	-20.000000
1.100000	15.850000	32.510000	620.000000	0.000000	142.000000	57.000000	-19.000000	-26.000000
1.110000	15.740000	32.320000	630.000000	0.000000	143.000000	57.000000	-11.000000	-19.000000
1.120000	15.740000	32.190000	642.000000	0.000000	143.000000	57.000000	0.000000	-13.000000
1.130000	15.810000	32.050000	641.000000	0.000000	144.000000	58.000000	7.000000	-14.000000
1.140000	15.810000	32.050000	646.000000	0.000000	144.000000	58.000000	0.000000	0.000000
1.150000	15.810000	32.050000	658.000000	0.000000	143.000000	59.000000	0.000000	0.000000
1.160000	16.220000	31.920000	664.000000	0.000000	143.000000	59.000000	41.000000	-13.000000
1.170000	16.550000	31.920000	664.000000	0.000000	143.000000	59.000000	33.000000	0.000000
1.180000	16.870000	31.920000	662.000000	0.000000	143.000000	59.000000	32.000000	0.000000
1.190000	17.150000	31.920000	668.000000	0.000000	143.000000	57.000000	28.000000	0.000000
1.200000	17.320000	31.920000	636.000000	0.000000	143.000000	57.000000	17.000000	0.000000
1.210000	17.420000	31.830000	560.000000	0.000000	142.000000	57.000000	10.000000	-9.000000
1.220000	17.420000	31.780000	456.000000	0.000000	143.000000	56.000000	0.000000	-5.000000
1.230000	17.370000	31.710000	287.000000	0.000000	141.000000	56.000000	-5.000000	-7.000000
1.240000	17.370000	31.710000	0.000000	1.000000	141.000000	56.000000	0.000000	0.000000
1.250000	17.070000	31.230000	0.000000	0.000000	143.000000	55.000000	-30.000000	-48.000000
1.260000	16.900000	31.230000	0.000000	0.000000	141.000000	55.000000	-17.000000	0.000000
1.270000	16.770000	31.230000	0.000000	0.000000	141.000000	55.000000	-13.000000	0.000000
1.280000	16.650000	31.160000	0.000000	0.000000	141.000000	55.000000	-12.000000	-7.000000
1.290000	16.490000	31.020000	0.000000	0.000000	140.000000	55.000000	-16.000000	-14.000000
1.300000	16.490000	31.020000	117.000000	1.000000	140.000000	55.000000	0.000000	0.000000
1.310000	16.200000	30.760000	228.000000	0.000000	140.000000	55.000000	-29.000000	-26.000000
1.320000	16.130000	30.710000	312.000000	0.000000	140.000000	56.000000	-7.000000	-5.000000
1.330000	16.130000	30.710000	377.000000	0.000000	140.000000	56.000000	0.000000	0.000000
1.340000	16.130000	30.600000	407.000000	0.000000	140.000000	58.000000	0.000000	-11.000000
1.350000	16.270000	30.600000	414.000000	0.000000	142.000000	58.000000	14.000000	0.000000
1.360000	16.500000	30.530000	422.000000	0.000000	142.000000	58.000000	23.000000	-7.000000
1.370000	16.760000	30.530000	425.000000	0.000000	142.000000	58.000000	26.000000	0.000000
1.380000	17.010000	30.530000	366.000000	0.000000	142.000000	58.000000	25.000000	0.000000
1.390000	17.240000	30.600000	137.000000	0.000000	142.000000	58.000000	23.000000	7.000000
1.400000	17.240000	30.600000	0.000000	1.000000	143.000000	57.000000	0.000000	0.000000
1.410000	17.550000	30.750000	0.000000	0.000000	142.000000	57.000000	31.000000	15.000000
1.420000	17.550000	30.860000	0.000000	0.000000	142.000000	57.000000	0.000000	11.000000
1.430000	17.710000	31.010000	0.000000	0.000000	140.000000	56.000000	16.000000	15.000000
1.440000	17.880000	31.130000	0.000000	0.000000	141.000000	56.000000	17.000000	12.000000
1.450000	18.090000	31.300000	0.000000	0.000000	141.000000	56.000000	21.000000	17.000000
1.460000	18.330000	31.500000	0.000000	0.000000	141.000000	56.000000	24.000000	20.000000
1.470000	18.550000	31.710000	0.000000	0.000000	141.000000	56.000000	22.000000	21.000000
1.480000	18.700000	31.920000	0.000000	0.000000	141.000000	56.000000	15.000000	21.000000
1.490000	18.810000	32.100000	0.000000	0.000000	140.000000	55.000000	11.000000	18.000000
1.500000	18.810000	32.260000	0.000000	0.000000	141.000000	55.000000	0.000000	16.000000
1.510000	18.700000	32.440000	0.000000	0.000000	141.000000	55.000000	-11.000000	18.000000
1.520000	18.610000	32.660000	0.000000	0.000000	141.000000	55.000000	-9.000000	22.000000
1.530000	18.610000	32.900000	0.000000	0.000000	140.000000	55.000000	0.000000	24.000000
1.540000	18.680000	33.170000	0.000000	0.000000	139.000000	55.000000	7.000000	27.000000
1.550000	18.680000	33.170000	101.000000	1.000000	139.000000	55.000000	0.000000	0.000000
1.560000	18.840000	33.660000	218.000000	0.000000	139.000000	56.000000	16.000000	49.000000
1.570000	18.900000	33.740000	280.000000	0.000000	139.000000	56.000000	6.000000	8.000000
1.580000	18.900000	33.740000	305.000000	0.000000	139.000000	56.000000	0.000000	0.000000
1.590000	18.950000	33.570000	334.000000	0.000000	139.000000	56.000000	5.000000	-17.000000
1.600000	18.950000	33.090000	389.000000	0.000000	139.000000	56.000000	0.000000	-48.000000
1.610000	18.950000	32.370000	420.000000	0.000000	140.000000	56.000000	0.000000	-72.000000
1.620000	18.900000	31.710000	475.000000	0.000000	140.000000	56.000000	-5.000000	-66.000000
1.630000	18.900000	31.050000	542.000000	0.000000	140.000000	56.000000	0.000000	-66.000000
1.640000	18.980000	30.540000	595.000000	0.000000	140.000000	56.000000	8.000000	-51.000000
1.650000	19.120000	30.150000	619.000000	0.000000	141.000000	56.000000	14.000000	-39.000000
1.660000	19.180000	29.940000	641.000000	0.000000	141.000000	56.000000	6.000000	-21.000000
1.670000	19.180000	29.890000	646.000000	0.000000	141.000000	56.000000	0.000000	-5.000000
1.680000	19.180000	29.950000	643.000000	0.000000	141.000000	56.000000	0.000000	6.000000
1.690000	19.180000	30.040000	557.000000	0.000000	141.000000	56.000000	0.000000	9.000000
1.700000	19.100000	30.230000	317.000000	0.000000	143.000000	56.000000	-8.000000	19.000000
1.710000	19.100000	30.230000	0.000000	1.000000	143.000000	56.000000	0.000000	0.000000
1.720000	18.980000	30.690000	0.000000	0.000000	143.000000	56.000000	-12.000000	46.000000
1.730000	18.980000	30.690000	0.000000	0.000000	143.000000	56.000000	0.000000	0.000000
1.740000	19.120000	31.090000	0.000000	0.000000	141.000000	56.000000	14.000000	40.000000
1.750000	19.390000	31.280000	0.000000	0.000000	141.000000	56.000000	27.000000	19.000000
1.760000	19.690000	31.440000	0.000000	0.000000	141.000000	56.000000	30.000000	16.000000
1.770000	19.990000	31.590000	0.000000	0.000000	140.000000	55.000000	30.000000	15.000000
1.780000	20.220000	31.740000	0.000000	0.000000	139.000000	55.000000	23.000000	15.000000
1.790000	20.390000	31.850000	0.000000	0.000000	140.000000	54.000000	17.000000	11.000000
1.800000	20.390000	31.910000	0.000000	0.000000	139.000000	54.000000	0.000000	6.000000
1.810000	20.190000	31.910000	0.000000	0.000000	137.000000	53.000000	-20.000000	0.000000
1.820000	19.850000	31.910000	0.000000	0.000000	139.000000	52.000000	-34.000000	0.000000
1.830000	19.390000	31.850000	0.000000	0.000000	139.000000	52.000000	-46.000000	-6.000000
1.840000	18.850000	31.850000	0.000000	0.000000	137.000000	52.000000	-54.000000	0.000000
1.850000	18.260000	31.790000	0.000000	0.000000	139.000000	52.000000	-59.000000	-6.000000
1.860000	17.640000	31.790000	0.000000	0.000000	139.000000	52.000000	-62.000000	0.000000
1.870000	17.020000	31.790000	0.000000	0.000000	139.000000	54.000000	-62.000000	0.000000
1.880000	16.400000	31.840000	0.000000	0.000000	139.000000	54.000000	-62.000000	5.000000
1.890000	16.400000	31.840000	90.000000	1.000000	140.000000	54.000000	0.000000	0.000000
1.900000	15.210000	31.940000	284.000000	0.000000	140.000000	55.000000	-119.000000	10.000000
1.910000	14.850000	32.260000	342.000000	0.000000	143.000000	56.000000	-36.000000	32.000000
1.920000	14.620000	32.760000	381.000000	0.000000	143.000000	57.000000	-23.000000	50.000000
1.930000	14.530000	33.300000	396.000000	0.000000	143.000000	57.000000	-9.000000	54.000000
1.940000	14.480000	33.940000	381.000000	0.000000	144.000000	58.000000	-5.000000	64.000000
1.950000	14.740000	34.650000	373.000000	0.000000	145.000000	59.000000	26.000000	71.000000
1.960000	15.180000	35.300000	349.000000	0.000000	145.000000	59.000000	44.000000	65.000000
1.970000	15.980000	35.920000	333.000000	0.000000	145.000000	59.000000	80.000000	62.000000
1.980000	16.930000	36.510000	334.000000	0.000000	146.000000	58.000000	95.000000	59.000000
1.990000	17.990000	36.850000	344.000000	0.000000	144.000000	58.000000	106.000000	34.000000
2.000000	19.010000	37.020000	351.000000	0.000000	144.000000	58.000000	102.000000	17.000000
2.010000	20.030000	37.020000	351.000000	0.000000	146.000000	57.000000	102.000000	0.000000
2.020000	21.040000	36.820000	354.000000	0.000000	144.000000	57.000000	101.000000	-20.000000
2.030000	21.800000	36.470000	356.000000	0.000000	144.000000	57.000000	76.000000	-35.000000
2.040000	22.380000	35.890000	359.000000	0.000000	144.000000	57.000000	58.000000	-58.000000
2.050000	22.650000	35.300000	361.000000	0.000000	144.000000	57.000000	27.000000	-59.000000
2.060000	22.590000	34.680000	398.000000	0.000000	144.000000	57.000000	-6.000000	-62.000000
2.070000	22.300000	34.160000	433.000000	0.000000	144.000000	57.000000	-29.000000	-52.000000
2.080000	21.790000	33.710000	458.000000	0.000000	144.000000	57.000000	-51.000000	-45.000000
2.090000	21.140000	33.420000	494.000000	0.000000	144.000000	57.000000	-65.000000	-29.000000
2.100000	20.390000	33.230000	527.000000	0.000000	144.000000	57.000000	-75.000000	-19.000000
2.110000	19.720000	33.100000	543.000000	0.000000	144.000000	57.000000	-67.000000	-13.000000
2.120000	19.120000	33.160000	556.000000	0.000000	144.000000	57.000000	-60.000000	6.000000
2.130000	18.650000	33.250000	561.000000	0.000000	144.000000	57.000000	-47.000000	9.000000
2.140000	18.440000	33.360000	545.000000	0.000000	144.000000	57.000000	-21.000000	11.000000
2.150000	18.440000	33.460000	519.000000	0.000000	144.000000	57.000000	0.000000	10.000000
2.160000	18.440000	33.540000	490.000000	0.000000	144.000000	57.000000	0.000000	8.000000
2.170000	18.620000	33.540000	445.000000	0.000000	144.000000	57.000000	18.000000	0.000000
2.180000	18.980000	33.610000	394.000000	0.000000	143.000000	56.000000	36.000000	7.000000
2.190000	19.470000	33.610000	299.000000	0.000000	143.000000	56.000000	49.000000	0.000000
2.200000	20.190000	33.610000	98.000000	0.000000	143.000000	56.000000	72.000000	0.000000
2.210000	20.190000	33.610000	0.000000	1.000000	143.000000	56.000000	0.000000	0.000000
2.220000	21.890000	33.610000	0.000000	0.000000	143.000000	56.000000	170.000000	0.000000
