t	x	y	pressure	penup	azimuth	inclination	v_x	v_y
0.000000	89.050000	79.750000	160.000000	1.000000	150.000000	57.000000	0.000000	0.000000
0.010000	89.210000	80.350000	202.000000	0.000000	148.000000	57.000000	16.000000	60.000000
0.020000	89.120000	80.350000	246.000000	0.000000	148.000000	57.000000	-9.000000	0.000000
0.030000	89.120000	80.170000	340.000000	0.000000	147.000000	56.000000	0.000000	-18.000000
0.040000	89.120000	79.250000	423.000000	0.000000	147.000000	56.000000	0.000000	-92.000000
0.050000	89.220000	78.090000	499.000000	0.000000	145.000000	56.000000	10.000000	-116.000000
0.060000	89.270000	76.770000	544.000000	0.000000	145.000000	56.000000	5.000000	-132.000000
0.070000	89.380000	75.800000	563.000000	0.000000	144.000000	57.000000	11.000000	-97.000000
0.080000	89.540000	75.100000	600.000000	0.000000	143.000000	56.000000	16.000000	-70.000000
0.090000	89.700000	74.590000	647.000000	0.000000	143.000000	56.000000	16.000000	-51.000000
0.100000	89.700000	74.390000	697.000000	0.000000	143.000000	56.000000	0.000000	-20.000000
0.110000	89.700000	74.390000	763.000000	0.000000	141.000000	56.000000	0.000000	0.000000
0.120000	89.700000	74.590000	777.000000	0.000000	141.000000	56.000000	0.000000	20.000000
0.130000	89.640000	75.090000	790.000000	0.000000	141.000000	56.000000	-6.000000	50.000000
0.140000	89.570000	75.970000	787.000000	0.000000	140.000000	55.000000	-7.000000	88.000000
0.150000	89.350000	77.100000	777.000000	0.000000	140.000000	55.000000	-22.000000	113.000000
0.160000	89.180000	78.570000	771.000000	0.000000	139.000000	55.000000	-17.000000	147.000000
0.170000	89.040000	79.930000	779.000000	0.000000	140.000000	55.000000	-14.000000	136.000000
0.180000	89.040000	81.230000	777.000000	0.000000	140.000000	55.000000	0.000000	130.000000
0.190000	89.040000	81.400000	756.000000	0.000000	140.000000	55.000000	0.000000	17.000000
0.200000	89.090000	81.200000	767.000000	0.000000	141.000000	55.000000	5.000000	-20.000000
0.210000	89.360000	80.760000	777.000000	0.000000	141.000000	55.000000	27.000000	-44.000000
0.220000	89.800000	79.620000	785.000000	0.000000	141.000000	55.000000	44.000000	-114.000000
0.230000	90.130000	78.420000	788.000000	0.000000	141.000000	55.000000	33.000000	-120.000000
0.240000	90.460000	77.140000	800.000000	0.000000	141.000000	55.000000	33.000000	-128.000000
0.250000	90.910000	76.220000	809.000000	0.000000	141.000000	55.000000	45.000000	-92.000000
0.260000	91.430000	75.540000	818.000000	0.000000	140.000000	55.000000	52.000000	-68.000000
0.270000	91.930000	75.110000	854.000000	0.000000	140.000000	55.000000	50.000000	-43.000000
0.280000	92.300000	75.110000	892.000000	0.000000	140.000000	55.000000	37.000000	0.000000
0.290000	92.590000	75.350000	935.000000	0.000000	139.000000	56.000000	29.000000	24.000000
0.300000	92.800000	76.030000	933.000000	0.000000	139.000000	56.000000	21.000000	68.000000
0.310000	92.850000	77.190000	935.000000	0.000000	139.000000	56.000000	5.000000	116.000000
0.320000	92.780000	78.670000	933.000000	0.000000	139.000000	56.000000	-7.000000	148.000000
0.330000	92.460000	80.700000	947.000000	0.000000	139.000000	56.000000	-32.000000	203.000000
0.340000	92.150000	82.190000	929.000000	0.000000	141.000000	56.000000	-31.000000	149.000000
0.350000	92.080000	83.320000	873.000000	0.000000	141.000000	56.000000	-7.000000	113.000000
0.360000	92.150000	83.620000	742.000000	0.000000	141.000000	56.000000	7.000000	30.000000
0.370000	92.310000	83.540000	638.000000	0.000000	143.000000	55.000000	16.000000	-8.000000
0.380000	92.510000	83.220000	514.000000	0.000000	143.000000	55.000000	20.000000	-32.000000
0.390000	92.760000	82.360000	222.000000	0.000000	144.000000	54.000000	25.000000	-86.000000
0.400000	92.760000	82.360000	0.000000	1.000000	144.000000	54.000000	0.000000	0.000000
0.410000	93.280000	80.040000	0.000000	0.000000	146.000000	54.000000	52.000000	-232.000000
0.420000	93.440000	78.820000	0.000000	0.000000	145.000000	55.000000	16.000000	-122.000000
0.430000	93.540000	78.060000	0.000000	0.000000	145.000000	55.000000	10.000000	-76.000000
0.440000	93.810000	77.620000	0.000000	0.000000	146.000000	55.000000	27.000000	-44.000000
0.450000	94.110000	77.290000	0.000000	0.000000	145.000000	56.000000	30.000000	-33.000000
0.460000	94.450000	77.230000	0.000000	0.000000	147.000000	56.000000	34.000000	-6.000000
0.470000	94.450000	77.230000	185.000000	1.000000	146.000000	57.000000	0.000000	0.000000
0.480000	95.010000	77.690000	277.000000	0.000000	146.000000	57.000000	56.000000	46.000000
0.490000	95.010000	78.070000	415.000000	0.000000	146.000000	57.000000	0.000000	38.000000
0.500000	95.010000	78.490000	567.000000	0.000000	146.000000	57.000000	0.000000	42.000000
0.510000	94.930000	78.790000	659.000000	0.000000	146.000000	57.000000	-8.000000	30.000000
0.520000	94.710000	78.790000	721.000000	0.000000	146.000000	57.000000	-22.000000	0.000000
0.530000	94.420000	78.670000	782.000000	0.000000	147.000000	56.000000	-29.000000	-12.000000
0.540000	94.070000	78.270000	820.000000	0.000000	145.000000	56.000000	-35.000000	-40.000000
0.550000	93.660000	77.580000	824.000000	0.000000	145.000000	56.000000	-41.000000	-69.000000
0.560000	93.340000	76.700000	828.000000	0.000000	145.000000	55.000000	-32.000000	-88.000000
0.570000	93.460000	76.200000	825.000000	0.000000	145.000000	55.000000	12.000000	-50.000000
0.580000	93.850000	75.940000	828.000000	0.000000	144.000000	56.000000	39.000000	-26.000000
0.590000	94.320000	75.840000	845.000000	0.000000	143.000000	55.000000	47.000000	-10.000000
0.600000	94.820000	76.000000	855.000000	0.000000	143.000000	55.000000	50.000000	16.000000
0.610000	95.110000	76.370000	860.000000	0.000000	141.000000	56.000000	29.000000	37.000000
0.620000	95.240000	76.890000	854.000000	0.000000	141.000000	56.000000	13.000000	52.000000
0.630000	95.240000	77.540000	854.000000	0.000000	143.000000	56.000000	0.000000	65.000000
0.640000	95.050000	78.130000	830.000000	0.000000	143.000000	56.000000	-19.000000	59.000000
0.650000	94.790000	78.510000	794.000000	0.000000	143.000000	56.000000	-26.000000	38.000000
0.660000	94.570000	78.760000	663.000000	0.000000	143.000000	56.000000	-22.000000	25.000000
0.670000	94.570000	78.760000	371.000000	0.000000	144.000000	56.000000	0.000000	0.000000
0.680000	94.570000	78.760000	0.000000	1.000000	144.000000	56.000000	0.000000	0.000000
0.690000	94.820000	78.540000	0.000000	0.000000	144.000000	56.000000	25.000000	-22.000000
0.700000	95.000000	78.210000	0.000000	0.000000	146.000000	55.000000	18.000000	-33.000000
0.710000	95.140000	78.050000	0.000000	0.000000	146.000000	55.000000	14.000000	-16.000000
0.720000	95.290000	77.880000	0.000000	0.000000	146.000000	55.000000	15.000000	-17.000000
0.730000	95.410000	77.680000	0.000000	0.000000	148.000000	56.000000	12.000000	-20.000000
0.740000	95.500000	77.440000	0.000000	0.000000	147.000000	56.000000	9.000000	-24.000000
0.750000	95.500000	77.440000	284.000000	1.000000	147.000000	56.000000	0.000000	0.000000
0.760000	95.510000	76.940000	407.000000	0.000000	148.000000	57.000000	1.000000	-50.000000
0.770000	95.560000	76.880000	554.000000	0.000000	147.000000	58.000000	5.000000	-6.000000
0.780000	95.680000	76.800000	659.000000	0.000000	147.000000	58.000000	12.000000	-8.000000
0.790000	95.850000	76.800000	714.000000	0.000000	146.000000	57.000000	17.000000	0.000000
0.800000	96.060000	76.800000	739.000000	0.000000	144.000000	58.000000	21.000000	0.000000
0.810000	96.540000	77.030000	746.000000	0.000000	144.000000	58.000000	48.000000	23.000000
0.820000	97.180000	77.430000	763.000000	0.000000	144.000000	58.000000	64.000000	40.000000
0.830000	97.440000	77.940000	760.000000	0.000000	143.000000	57.000000	26.000000	51.000000
0.840000	97.510000	78.370000	776.000000	0.000000	143.000000	57.000000	7.000000	43.000000
0.850000	97.440000	78.780000	812.000000	0.000000	144.000000	57.000000	-7.000000	41.000000
0.860000	97.230000	79.180000	863.000000	0.000000	144.000000	57.000000	-21.000000	40.000000
0.870000	96.950000	79.320000	872.000000	0.000000	147.000000	56.000000	-28.000000	14.000000
0.880000	96.630000	79.320000	893.000000	0.000000	147.000000	56.000000	-32.000000	0.000000
0.890000	96.260000	78.980000	906.000000	0.000000	148.000000	56.000000	-37.000000	-34.000000
0.900000	95.900000	78.450000	893.000000	0.000000	148.000000	56.000000	-36.000000	-53.000000
0.910000	95.750000	77.780000	908.000000	0.000000	148.000000	56.000000	-15.000000	-67.000000
0.920000	95.750000	77.000000	896.000000	0.000000	146.000000	55.000000	0.000000	-78.000000
0.930000	96.000000	76.260000	878.000000	0.000000	145.000000	56.000000	25.000000	-74.000000
0.940000	96.480000	75.870000	876.000000	0.000000	145.000000	56.000000	48.000000	-39.000000
0.950000	97.100000	75.700000	881.000000	0.000000	145.000000	56.000000	62.000000	-17.000000
0.960000	97.600000	75.810000	879.000000	0.000000	144.000000	57.000000	50.000000	11.000000
0.970000	97.980000	76.130000	881.000000	0.000000	144.000000	57.000000	38.000000	32.000000
0.980000	98.270000	76.590000	879.000000	0.000000	143.000000	57.000000	29.000000	46.000000
0.990000	98.440000	77.150000	878.000000	0.000000	143.000000	57.000000	17.000000	56.000000
1.000000	98.440000	77.710000	873.000000	0.000000	143.000000	57.000000	0.000000	56.000000
1.010000	98.440000	78.310000	879.000000	0.000000	143.000000	57.000000	0.000000	60.000000
1.020000	98.440000	78.940000	894.000000	0.000000	144.000000	58.000000	0.000000	63.000000
1.030000	98.370000	79.000000	906.000000	0.000000	144.000000	58.000000	-7.000000	6.000000
1.040000	98.370000	78.840000	908.000000	0.000000	146.000000	57.000000	0.000000	-16.000000
1.050000	98.220000	78.540000	933.000000	0.000000	146.000000	57.000000	-15.000000	-30.000000
1.060000	98.010000	77.800000	947.000000	0.000000	146.000000	57.000000	-21.000000	-74.000000
1.070000	97.890000	77.010000	948.000000	0.000000	145.000000	56.000000	-12.000000	-79.000000
1.080000	97.820000	76.200000	944.000000	0.000000	145.000000	56.000000	-7.000000	-81.000000
1.090000	98.080000	75.700000	944.000000	0.000000	144.000000	57.000000	26.000000	-50.000000
1.100000	98.550000	75.480000	948.000000	0.000000	146.000000	57.000000	47.000000	-22.000000
1.110000	99.050000	75.480000	948.000000	0.000000	146.000000	57.000000	50.000000	0.000000
1.120000	99.550000	75.730000	942.000000	0.000000	144.000000	58.000000	50.000000	25.000000
1.130000	99.920000	76.190000	930.000000	0.000000	144.000000	58.000000	37.000000	46.000000
1.140000	100.190000	76.780000	924.000000	0.000000	144.000000	58.000000	27.000000	59.000000
1.150000	100.330000	77.360000	917.000000	0.000000	144.000000	58.000000	14.000000	58.000000
1.160000	100.470000	77.930000	924.000000	0.000000	143.000000	57.000000	14.000000	57.000000
1.170000	100.470000	78.440000	948.000000	0.000000	143.000000	57.000000	0.000000	51.000000
1.180000	100.470000	78.620000	947.000000	0.000000	143.000000	57.000000	0.000000	18.000000
1.190000	100.420000	78.620000	950.000000	0.000000	143.000000	57.000000	-5.000000	0.000000
1.200000	100.420000	78.490000	974.000000	0.000000	143.000000	57.000000	0.000000	-13.000000
1.210000	100.290000	77.970000	985.000000	0.000000	144.000000	57.000000	-13.000000	-52.000000
1.220000	100.160000	77.170000	985.000000	0.000000	144.000000	57.000000	-13.000000	-80.000000
1.230000	100.160000	76.610000	989.000000	0.000000	144.000000	57.000000	0.000000	-56.000000
1.240000	100.260000	76.270000	989.000000	0.000000	144.000000	57.000000	10.000000	-34.000000
1.250000	100.460000	76.090000	986.000000	0.000000	143.000000	57.000000	20.000000	-18.000000
1.260000	100.730000	76.010000	983.000000	0.000000	143.000000	57.000000	27.000000	-8.000000
1.270000	100.950000	76.130000	982.000000	0.000000	143.000000	57.000000	22.000000	12.000000
1.280000	101.230000	76.380000	962.000000	0.000000	142.000000	58.000000	28.000000	25.000000
1.290000	101.570000	76.820000	949.000000	0.000000	142.000000	58.000000	34.000000	44.000000
1.300000	101.800000	77.360000	945.000000	0.000000	142.000000	58.000000	23.000000	54.000000
1.310000	101.960000	77.960000	947.000000	0.000000	142.000000	58.000000	16.000000	60.000000
1.320000	102.080000	78.560000	937.000000	0.000000	142.000000	58.000000	12.000000	60.000000
1.330000	102.080000	78.800000	967.000000	0.000000	143.000000	57.000000	0.000000	24.000000
1.340000	102.030000	78.800000	970.000000	0.000000	143.000000	57.000000	-5.000000	0.000000
1.350000	102.030000	78.710000	977.000000	0.000000	143.000000	57.000000	0.000000	-9.000000
1.360000	101.960000	78.210000	988.000000	0.000000	143.000000	57.000000	-7.000000	-50.000000
1.370000	101.870000	77.430000	1000.000000	0.000000	144.000000	57.000000	-9.000000	-78.000000
1.380000	101.940000	77.000000	1006.000000	0.000000	144.000000	57.000000	7.000000	-43.000000
1.390000	102.070000	76.570000	1009.000000	0.000000	143.000000	57.000000	13.000000	-43.000000
1.400000	102.310000	76.350000	1006.000000	0.000000	143.000000	57.000000	24.000000	-22.000000
1.410000	102.550000	76.270000	1000.000000	0.000000	143.000000	57.000000	24.000000	-8.000000
1.420000	102.780000	76.350000	984.000000	0.000000	143.000000	59.000000	23.000000	8.000000
1.430000	103.170000	76.650000	988.000000	0.000000	143.000000	59.000000	39.000000	30.000000
1.440000	103.410000	77.110000	974.000000	0.000000	143.000000	59.000000	24.000000	46.000000
1.450000	103.550000	77.510000	985.000000	0.000000	143.000000	59.000000	14.000000	40.000000
1.460000	103.550000	77.650000	978.000000	0.000000	143.000000	59.000000	0.000000	14.000000
1.470000	103.480000	77.650000	979.000000	0.000000	143.000000	59.000000	-7.000000	0.000000
1.480000	103.480000	77.500000	968.000000	0.000000	143.000000	59.000000	0.000000	-15.000000
1.490000	103.480000	77.360000	870.000000	0.000000	143.000000	59.000000	0.000000	-14.000000
1.500000	103.590000	77.190000	671.000000	0.000000	143.000000	59.000000	11.000000	-17.000000
1.510000	103.940000	77.010000	13.000000	1.000000	145.000000	59.000000	0.000000	0.000000
1.520000	103.940000	77.010000	0.000000	0.000000	145.000000	59.000000	0.000000	0.000000
1.530000	104.840000	77.170000	0.000000	0.000000	145.000000	59.000000	90.000000	16.000000
1.540000	104.910000	77.810000	0.000000	0.000000	145.000000	59.000000	7.000000	64.000000
1.550000	104.780000	78.290000	0.000000	0.000000	145.000000	59.000000	-13.000000	48.000000
1.560000	104.510000	78.750000	0.000000	0.000000	145.000000	59.000000	-27.000000	46.000000
1.570000	104.510000	78.750000	448.000000	1.000000	146.000000	58.000000	0.000000	0.000000
1.580000	103.580000	79.320000	613.000000	0.000000	146.000000	58.000000	-93.000000	57.000000
1.590000	103.030000	79.900000	739.000000	0.000000	146.000000	58.000000	-55.000000	58.000000
1.600000	102.630000	80.230000	750.000000	0.000000	147.000000	58.000000	-40.000000	33.000000
1.610000	102.570000	80.390000	724.000000	0.000000	147.000000	58.000000	-6.000000	16.000000
1.620000	102.680000	80.520000	546.000000	0.000000	147.000000	58.000000	11.000000	13.000000
1.630000	102.680000	80.520000	0.000000	1.000000	148.000000	57.000000	0.000000	0.000000
1.640000	103.190000	80.200000	0.000000	0.000000	149.000000	58.000000	51.000000	-32.000000
1.650000	103.550000	79.530000	0.000000	0.000000	149.000000	58.000000	36.000000	-67.000000
1.660000	103.550000	78.930000	0.000000	0.000000	149.000000	58.000000	0.000000	-60.000000
1.670000	103.460000	78.370000	0.000000	0.000000	149.000000	58.000000	-9.000000	-56.000000
1.680000	103.370000	77.830000	0.000000	0.000000	149.000000	58.000000	-9.000000	-54.000000
1.690000	103.370000	77.300000	0.000000	0.000000	149.000000	58.000000	0.000000	-53.000000
1.700000	103.370000	77.300000	483.000000	1.000000	150.000000	58.000000	0.000000	0.000000
1.710000	103.480000	76.490000	642.000000	0.000000	150.000000	58.000000	11.000000	-81.000000
1.720000	103.360000	76.490000	777.000000	0.000000	150.000000	58.000000	-12.000000	0.000000
1.730000	103.650000	76.490000	891.000000	0.000000	150.000000	58.000000	29.000000	0.000000
1.740000	103.870000	76.550000	927.000000	0.000000	149.000000	58.000000	22.000000	6.000000
1.750000	104.040000	76.710000	930.000000	0.000000	147.000000	59.000000	17.000000	16.000000
1.760000	104.730000	77.190000	933.000000	0.000000	147.000000	59.000000	69.000000	48.000000
1.770000	105.450000	77.700000	932.000000	0.000000	147.000000	59.000000	72.000000	51.000000
1.780000	106.180000	78.230000	915.000000	0.000000	147.000000	59.000000	73.000000	53.000000
1.790000	106.450000	79.040000	897.000000	0.000000	149.000000	59.000000	27.000000	81.000000
1.800000	106.450000	80.310000	854.000000	0.000000	149.000000	59.000000	0.000000	127.000000
1.810000	106.260000	81.890000	863.000000	0.000000	150.000000	58.000000	-19.000000	158.000000
1.820000	105.530000	82.820000	869.000000	0.000000	152.000000	59.000000	-73.000000	93.000000
1.830000	104.610000	83.220000	870.000000	0.000000	153.000000	58.000000	-92.000000	40.000000
1.840000	103.550000	83.220000	873.000000	0.000000	153.000000	58.000000	-106.000000	0.000000
1.850000	102.120000	82.770000	876.000000	0.000000	154.000000	57.000000	-143.000000	-45.000000
1.860000	100.050000	81.820000	903.000000	0.000000	154.000000	57.000000	-207.000000	-95.000000
1.870000	97.550000	80.570000	923.000000	0.000000	154.000000	56.000000	-250.000000	-125.000000
1.880000	94.830000	78.730000	933.000000	0.000000	154.000000	56.000000	-272.000000	-184.000000
1.890000	93.230000	77.250000	936.000000	0.000000	154.000000	56.000000	-160.000000	-148.000000
1.900000	92.370000	76.020000	914.000000	0.000000	153.000000	56.000000	-86.000000	-123.000000
1.910000	92.900000	75.090000	903.000000	0.000000	153.000000	56.000000	53.000000	-93.000000
1.920000	94.450000	74.500000	905.000000	0.000000	153.000000	56.000000	155.000000	-59.000000
1.930000	96.670000	74.140000	894.000000	0.000000	152.000000	56.000000	222.000000	-36.000000
1.940000	99.080000	74.140000	900.000000	0.000000	152.000000	56.000000	241.000000	0.000000
1.950000	101.500000	74.440000	896.000000	0.000000	153.000000	56.000000	242.000000	30.000000
1.960000	103.280000	75.000000	896.000000	0.000000	152.000000	57.000000	178.000000	56.000000
1.970000	104.640000	75.390000	891.000000	0.000000	152.000000	57.000000	136.000000	39.000000
1.980000	104.780000	75.770000	864.000000	0.000000	154.000000	57.000000	14.000000	38.000000
1.990000	104.020000	76.540000	853.000000	0.000000	154.000000	58.000000	-76.000000	77.000000
2.000000	102.650000	77.570000	854.000000	0.000000	154.000000	58.000000	-137.000000	103.000000
2.010000	100.310000	78.550000	869.000000	0.000000	154.000000	58.000000	-234.000000	98.000000
2.020000	97.420000	78.940000	887.000000	0.000000	154.000000	58.000000	-289.000000	39.000000
2.030000	94.160000	78.940000	914.000000	0.000000	155.000000	58.000000	-326.000000	0.000000
2.040000	90.490000	78.350000	985.000000	0.000000	156.000000	57.000000	-367.000000	-59.000000
2.050000	87.860000	77.520000	990.000000	0.000000	156.000000	57.000000	-263.000000	-83.000000
2.060000	85.930000	76.520000	982.000000	0.000000	157.000000	56.000000	-193.000000	-100.000000
2.070000	85.740000	75.810000	1021.000000	0.000000	155.000000	55.000000	-19.000000	-71.000000
2.080000	86.770000	75.310000	1023.000000	0.000000	156.000000	55.000000	103.000000	-50.000000
2.090000	88.610000	74.960000	1023.000000	0.000000	156.000000	55.000000	184.000000	-35.000000
2.100000	91.800000	75.310000	1023.000000	0.000000	158.000000	55.000000	319.000000	35.000000
2.110000	95.720000	76.140000	1023.000000	0.000000	158.000000	55.000000	392.000000	83.000000
2.120000	100.120000	77.290000	1023.000000	0.000000	157.000000	56.000000	440.000000	115.000000
2.130000	103.580000	78.380000	1023.000000	0.000000	158.000000	56.000000	346.000000	109.000000
2.140000	105.850000	78.950000	1023.000000	0.000000	158.000000	56.000000	227.000000	57.000000
2.150000	107.320000	79.170000	1023.000000	0.000000	160.000000	56.000000	147.000000	22.000000
2.160000	107.620000	79.120000	920.000000	0.000000	159.000000	57.000000	30.000000	-5.000000
2.170000	107.270000	78.850000	785.000000	0.000000	161.000000	57.000000	-35.000000	-27.000000
2.180000	106.490000	78.440000	577.000000	0.000000	161.000000	57.000000	-78.000000	-41.000000
