t	x	y	pressure	penup	azimuth	inclination	v_x	v_y
0.000000	56.640000	55.650000	29.000000	1.000000	126.000000	58.000000	0.000000	0.000000
0.010000	56.640000	55.650000	48.000000	0.000000	126.000000	58.000000	0.000000	0.000000
0.020000	56.640000	55.650000	96.000000	0.000000	126.000000	58.000000	0.000000	0.000000
0.030000	56.640000	55.650000	119.000000	0.000000	126.000000	58.000000	0.000000	0.000000
0.040000	56.640000	55.650000	144.000000	0.000000	126.000000	58.000000	0.000000	0.000000
0.050000	56.710000	55.970000	190.000000	0.000000	124.000000	57.000000	7.000000	32.000000
0.060000	56.710000	55.970000	223.000000	0.000000	124.000000	57.000000	0.000000	0.000000
0.070000	56.710000	56.030000	270.000000	0.000000	124.000000	57.000000	0.000000	6.000000
0.080000	56.710000	56.030000	309.000000	0.000000	124.000000	57.000000	0.000000	0.000000
0.090000	56.710000	56.090000	351.000000	0.000000	123.000000	58.000000	0.000000	6.000000
0.100000	56.710000	56.160000	384.000000	0.000000	123.000000	58.000000	0.000000	7.000000
0.110000	56.710000	56.260000	418.000000	0.000000	123.000000	58.000000	0.000000	10.000000
0.120000	56.710000	56.360000	448.000000	0.000000	123.000000	58.000000	0.000000	10.000000
0.130000	56.710000	56.450000	481.000000	0.000000	123.000000	58.000000	0.000000	9.000000
0.140000	56.710000	56.540000	522.000000	0.000000	124.000000	57.000000	0.000000	9.000000
0.150000	56.710000	56.650000	564.000000	0.000000	124.000000	57.000000	0.000000	11.000000
0.160000	56.710000	56.740000	583.000000	0.000000	124.000000	57.000000	0.000000	9.000000
0.170000	56.710000	56.830000	624.000000	0.000000	124.000000	57.000000	0.000000	9.000000
0.180000	56.710000	56.930000	668.000000	0.000000	124.000000	57.000000	0.000000	10.000000
0.190000	56.710000	56.930000	688.000000	0.000000	124.000000	57.000000	0.000000	0.000000
0.200000	56.710000	56.880000	707.000000	0.000000	126.000000	57.000000	0.000000	-5.000000
0.210000	56.710000	56.820000	771.000000	0.000000	125.000000	56.000000	0.000000	-6.000000
0.220000	56.710000	56.280000	852.000000	0.000000	125.000000	56.000000	0.000000	-54.000000
0.230000	56.710000	55.140000	915.000000	0.000000	126.000000	57.000000	0.000000	-114.000000
0.240000	56.620000	53.610000	968.000000	0.000000	126.000000	57.000000	-9.000000	-153.000000
0.250000	56.400000	51.780000	1017.000000	0.000000	126.000000	57.000000	-22.000000	-183.000000
0.260000	56.000000	49.990000	1023.000000	0.000000	126.000000	57.000000	-40.000000	-179.000000
0.270000	55.560000	48.220000	1023.000000	0.000000	124.000000	57.000000	-44.000000	-177.000000
0.280000	55.090000	46.500000	1023.000000	0.000000	124.000000	57.000000	-47.000000	-172.000000
0.290000	54.620000	45.170000	1023.000000	0.000000	122.000000	57.000000	-47.000000	-133.000000
0.300000	54.190000	44.100000	1023.000000	0.000000	120.000000	57.000000	-43.000000	-107.000000
0.310000	53.980000	43.300000	1023.000000	0.000000	120.000000	57.000000	-21.000000	-80.000000
0.320000	53.900000	42.920000	1023.000000	0.000000	119.000000	58.000000	-8.000000	-38.000000
0.330000	53.900000	42.830000	1023.000000	0.000000	117.000000	58.000000	0.000000	-9.000000
0.340000	53.900000	42.830000	1023.000000	0.000000	116.000000	58.000000	0.000000	0.000000
0.350000	53.900000	42.880000	1023.000000	0.000000	116.000000	58.000000	0.000000	5.000000
0.360000	53.900000	42.960000	1023.000000	0.000000	116.000000	58.000000	0.000000	8.000000
0.370000	54.110000	43.550000	1023.000000	0.000000	114.000000	59.000000	21.000000	59.000000
0.380000	54.380000	44.610000	1023.000000	0.000000	113.000000	58.000000	27.000000	106.000000
0.390000	54.860000	45.990000	1023.000000	0.000000	113.000000	58.000000	48.000000	138.000000
0.400000	55.470000	47.830000	982.000000	0.000000	113.000000	58.000000	61.000000	184.000000
0.410000	56.080000	50.070000	951.000000	0.000000	113.000000	58.000000	61.000000	224.000000
0.420000	56.650000	52.570000	939.000000	0.000000	115.000000	58.000000	57.000000	250.000000
0.430000	57.230000	54.880000	942.000000	0.000000	117.000000	58.000000	58.000000	231.000000
0.440000	57.820000	56.380000	959.000000	0.000000	119.000000	58.000000	59.000000	150.000000
0.450000	58.230000	57.350000	988.000000	0.000000	120.000000	57.000000	41.000000	97.000000
0.460000	58.340000	57.480000	1023.000000	0.000000	122.000000	57.000000	11.000000	13.000000
0.470000	58.240000	57.240000	1023.000000	0.000000	123.000000	56.000000	-10.000000	-24.000000
0.480000	58.160000	56.760000	1023.000000	0.000000	123.000000	56.000000	-8.000000	-48.000000
0.490000	58.080000	55.410000	1023.000000	0.000000	125.000000	56.000000	-8.000000	-135.000000
0.500000	57.920000	53.430000	1023.000000	0.000000	125.000000	56.000000	-16.000000	-198.000000
0.510000	57.710000	51.040000	1023.000000	0.000000	124.000000	55.000000	-21.000000	-239.000000
0.520000	57.770000	49.080000	1023.000000	0.000000	121.000000	55.000000	6.000000	-196.000000
0.530000	57.850000	47.570000	1023.000000	0.000000	121.000000	55.000000	8.000000	-151.000000
0.540000	58.020000	46.360000	1023.000000	0.000000	120.000000	55.000000	17.000000	-121.000000
0.550000	58.300000	45.720000	1023.000000	0.000000	117.000000	55.000000	28.000000	-64.000000
0.560000	58.630000	45.540000	1023.000000	0.000000	116.000000	55.000000	33.000000	-18.000000
0.570000	58.990000	45.660000	1023.000000	0.000000	113.000000	56.000000	36.000000	12.000000
0.580000	59.650000	46.420000	1023.000000	0.000000	112.000000	56.000000	66.000000	76.000000
0.590000	60.500000	48.020000	1023.000000	0.000000	113.000000	57.000000	85.000000	160.000000
0.600000	61.380000	50.180000	1023.000000	0.000000	111.000000	57.000000	88.000000	216.000000
0.610000	62.060000	52.800000	1023.000000	0.000000	113.000000	57.000000	68.000000	262.000000
0.620000	62.610000	55.710000	1023.000000	0.000000	115.000000	58.000000	55.000000	291.000000
0.630000	62.790000	58.810000	1023.000000	0.000000	116.000000	57.000000	18.000000	310.000000
0.640000	62.790000	61.110000	897.000000	0.000000	120.000000	57.000000	0.000000	230.000000
0.650000	62.570000	61.920000	362.000000	0.000000	123.000000	56.000000	-22.000000	81.000000
0.660000	62.570000	61.920000	0.000000	1.000000	127.000000	56.000000	0.000000	0.000000
0.670000	62.570000	61.210000	0.000000	0.000000	129.000000	56.000000	0.000000	-71.000000
0.680000	62.360000	60.380000	0.000000	0.000000	130.000000	55.000000	-21.000000	-83.000000
0.690000	62.010000	59.340000	0.000000	0.000000	131.000000	55.000000	-35.000000	-104.000000
0.700000	62.010000	58.520000	0.000000	0.000000	130.000000	54.000000	0.000000	-82.000000
0.710000	62.010000	57.890000	0.000000	0.000000	130.000000	54.000000	0.000000	-63.000000
0.720000	62.130000	57.400000	0.000000	0.000000	129.000000	53.000000	12.000000	-49.000000
0.730000	62.320000	56.920000	0.000000	0.000000	130.000000	53.000000	19.000000	-48.000000
0.740000	62.580000	56.630000	0.000000	0.000000	129.000000	52.000000	26.000000	-29.000000
0.750000	62.930000	56.460000	0.000000	0.000000	128.000000	52.000000	35.000000	-17.000000
0.760000	63.350000	56.240000	0.000000	0.000000	129.000000	51.000000	42.000000	-22.000000
0.770000	63.810000	55.870000	0.000000	0.000000	130.000000	50.000000	46.000000	-37.000000
0.780000	64.400000	55.400000	0.000000	0.000000	132.000000	49.000000	59.000000	-47.000000
0.790000	65.080000	55.130000	0.000000	0.000000	133.000000	48.000000	68.000000	-27.000000
0.800000	65.570000	54.860000	0.000000	0.000000	134.000000	49.000000	49.000000	-27.000000
0.810000	65.960000	54.580000	0.000000	0.000000	135.000000	50.000000	39.000000	-28.000000
0.820000	66.290000	54.180000	0.000000	0.000000	136.000000	50.000000	33.000000	-40.000000
0.830000	66.720000	53.790000	0.000000	0.000000	137.000000	52.000000	43.000000	-39.000000
0.840000	67.020000	53.420000	0.000000	0.000000	137.000000	53.000000	30.000000	-37.000000
0.850000	67.230000	53.170000	0.000000	0.000000	139.000000	55.000000	21.000000	-25.000000
0.860000	67.400000	52.980000	0.000000	0.000000	138.000000	57.000000	17.000000	-19.000000
0.870000	67.550000	52.840000	0.000000	0.000000	138.000000	58.000000	15.000000	-14.000000
0.880000	67.690000	52.700000	0.000000	0.000000	138.000000	59.000000	14.000000	-14.000000
0.890000	67.870000	52.560000	0.000000	0.000000	136.000000	60.000000	18.000000	-14.000000
0.900000	68.060000	52.430000	0.000000	0.000000	134.000000	60.000000	19.000000	-13.000000
0.910000	68.310000	52.320000	0.000000	0.000000	132.000000	59.000000	25.000000	-11.000000
0.920000	68.680000	52.160000	0.000000	0.000000	129.000000	59.000000	37.000000	-16.000000
0.930000	68.900000	52.000000	0.000000	0.000000	127.000000	57.000000	22.000000	-16.000000
0.940000	69.030000	51.860000	0.000000	0.000000	126.000000	57.000000	13.000000	-14.000000
0.950000	69.160000	51.730000	0.000000	0.000000	124.000000	55.000000	13.000000	-13.000000
0.960000	69.260000	51.670000	0.000000	0.000000	121.000000	55.000000	10.000000	-6.000000
0.970000	69.330000	51.670000	0.000000	0.000000	120.000000	54.000000	7.000000	0.000000
0.980000	69.330000	51.670000	0.000000	0.000000	119.000000	53.000000	0.000000	0.000000
0.990000	69.330000	51.670000	0.000000	0.000000	119.000000	53.000000	0.000000	0.000000
1.000000	69.330000	51.670000	0.000000	0.000000	120.000000	54.000000	0.000000	0.000000
1.010000	69.270000	51.590000	0.000000	0.000000	120.000000	54.000000	-6.000000	-8.000000
1.020000	69.270000	51.590000	0.000000	0.000000	120.000000	54.000000	0.000000	0.000000
1.030000	69.200000	51.490000	0.000000	0.000000	119.000000	54.000000	-7.000000	-10.000000
1.040000	69.150000	51.430000	0.000000	0.000000	119.000000	54.000000	-5.000000	-6.000000
1.050000	69.150000	51.430000	0.000000	0.000000	119.000000	54.000000	0.000000	0.000000
1.060000	69.080000	51.360000	0.000000	0.000000	119.000000	54.000000	-7.000000	-7.000000
1.070000	69.030000	51.200000	0.000000	0.000000	119.000000	54.000000	-5.000000	-16.000000
1.080000	68.970000	51.250000	0.000000	0.000000	119.000000	54.000000	-6.000000	5.000000
1.090000	68.910000	51.250000	0.000000	0.000000	119.000000	54.000000	-6.000000	0.000000
1.100000	68.910000	51.250000	0.000000	0.000000	119.000000	54.000000	0.000000	0.000000
1.110000	68.910000	51.170000	0.000000	0.000000	119.000000	54.000000	0.000000	-8.000000
1.120000	68.830000	51.170000	0.000000	0.000000	119.000000	54.000000	-8.000000	0.000000
1.130000	68.770000	51.110000	0.000000	0.000000	119.000000	54.000000	-6.000000	-6.000000
1.140000	68.770000	51.110000	0.000000	0.000000	119.000000	54.000000	0.000000	0.000000
1.150000	68.770000	51.190000	0.000000	0.000000	120.000000	55.000000	0.000000	8.000000
1.160000	68.770000	51.190000	0.000000	0.000000	120.000000	55.000000	0.000000	0.000000
1.170000	68.770000	51.270000	0.000000	0.000000	120.000000	55.000000	0.000000	8.000000
1.180000	68.770000	51.270000	0.000000	0.000000	120.000000	55.000000	0.000000	0.000000
1.190000	68.770000	51.320000	0.000000	0.000000	120.000000	55.000000	0.000000	5.000000
1.200000	68.690000	51.320000	0.000000	0.000000	120.000000	55.000000	-8.000000	0.000000
1.210000	68.690000	51.320000	0.000000	0.000000	120.000000	55.000000	0.000000	0.000000
1.220000	68.540000	51.320000	0.000000	0.000000	120.000000	55.000000	-15.000000	0.000000
1.230000	68.390000	51.320000	0.000000	0.000000	120.000000	55.000000	-15.000000	0.000000
1.240000	68.260000	51.250000	0.000000	0.000000	120.000000	55.000000	-13.000000	-7.000000
1.250000	68.110000	51.250000	0.000000	0.000000	120.000000	55.000000	-15.000000	0.000000
1.260000	67.950000	51.150000	0.000000	0.000000	121.000000	56.000000	-16.000000	-10.000000
1.270000	67.860000	51.080000	0.000000	0.000000	121.000000	56.000000	-9.000000	-7.000000
1.280000	67.700000	50.990000	0.000000	0.000000	122.000000	57.000000	-16.000000	-9.000000
1.290000	67.610000	50.940000	0.000000	0.000000	123.000000	58.000000	-9.000000	-5.000000
1.300000	67.610000	50.940000	0.000000	0.000000	123.000000	58.000000	0.000000	0.000000
1.310000	67.670000	50.990000	0.000000	0.000000	124.000000	58.000000	6.000000	5.000000
1.320000	67.670000	50.990000	0.000000	0.000000	125.000000	59.000000	0.000000	0.000000
1.330000	67.620000	51.070000	0.000000	0.000000	126.000000	60.000000	-5.000000	8.000000
1.340000	67.620000	51.070000	0.000000	0.000000	128.000000	61.000000	0.000000	0.000000
1.350000	67.620000	51.010000	0.000000	0.000000	128.000000	61.000000	0.000000	-6.000000
1.360000	67.620000	51.010000	0.000000	0.000000	128.000000	61.000000	0.000000	0.000000
1.370000	67.620000	51.010000	0.000000	0.000000	128.000000	61.000000	0.000000	0.000000
1.380000	67.620000	51.010000	0.000000	0.000000	128.000000	61.000000	0.000000	0.000000
1.390000	67.620000	51.010000	0.000000	0.000000	128.000000	61.000000	0.000000	0.000000
1.400000	67.620000	51.010000	0.000000	0.000000	128.000000	61.000000	0.000000	0.000000
1.410000	67.620000	51.010000	0.000000	0.000000	128.000000	61.000000	0.000000	0.000000
1.420000	67.620000	51.010000	0.000000	0.000000	128.000000	61.000000	0.000000	0.000000
1.430000	67.620000	51.010000	0.000000	0.000000	128.000000	61.000000	0.000000	0.000000
1.440000	67.620000	51.010000	0.000000	0.000000	128.000000	61.000000	0.000000	0.000000
1.450000	67.620000	51.010000	0.000000	0.000000	128.000000	61.000000	0.000000	0.000000
1.460000	67.620000	51.010000	0.000000	0.000000	128.000000	61.000000	0.000000	0.000000
1.470000	67.620000	51.010000	0.000000	0.000000	128.000000	61.000000	0.000000	0.000000
1.480000	67.620000	51.010000	0.000000	0.000000	128.000000	61.000000	0.000000	0.000000
1.490000	67.620000	51.010000	0.000000	0.000000	128.000000	61.000000	0.000000	0.000000
1.500000	67.620000	51.010000	0.000000	0.000000	128.000000	61.000000	0.000000	0.000000
1.510000	67.620000	51.010000	0.000000	0.000000	128.000000	61.000000	0.000000	0.000000
1.520000	67.570000	50.740000	0.000000	0.000000	128.000000	61.000000	-5.000000	-27.000000
1.530000	67.570000	50.740000	0.000000	0.000000	128.000000	61.000000	0.000000	0.000000
1.540000	67.570000	50.680000	0.000000	0.000000	128.000000	61.000000	0.000000	-6.000000
1.550000	67.570000	50.680000	0.000000	0.000000	128.000000	61.000000	0.000000	0.000000
1.560000	67.570000	50.680000	0.000000	0.000000	128.000000	61.000000	0.000000	0.000000
1.570000	67.570000	50.680000	0.000000	0.000000	128.000000	61.000000	0.000000	0.000000
1.580000	67.570000	50.680000	0.000000	0.000000	128.000000	61.000000	0.000000	0.000000
1.590000	67.570000	50.620000	0.000000	0.000000	128.000000	61.000000	0.000000	-6.000000
1.600000	67.570000	50.620000	0.000000	0.000000	128.000000	61.000000	0.000000	0.000000
1.610000	67.520000	50.620000	0.000000	0.000000	128.000000	61.000000	-5.000000	0.000000
1.620000	67.520000	50.620000	0.000000	0.000000	128.000000	61.000000	0.000000	0.000000
1.630000	67.440000	50.620000	0.000000	0.000000	128.000000	61.000000	-8.000000	0.000000
1.640000	67.350000	50.620000	0.000000	0.000000	128.000000	61.000000	-9.000000	0.000000
1.650000	67.350000	50.620000	0.000000	0.000000	128.000000	61.000000	0.000000	0.000000
1.660000	67.220000	50.620000	0.000000	0.000000	128.000000	61.000000	-13.000000	0.000000
1.670000	67.100000	50.620000	0.000000	0.000000	128.000000	61.000000	-12.000000	0.000000
1.680000	67.030000	50.620000	0.000000	0.000000	128.000000	61.000000	-7.000000	0.000000
1.690000	66.960000	50.620000	0.000000	0.000000	126.000000	60.000000	-7.000000	0.000000
1.700000	66.890000	50.670000	0.000000	0.000000	126.000000	60.000000	-7.000000	5.000000
1.710000	66.820000	50.670000	0.000000	0.000000	126.000000	60.000000	-7.000000	0.000000
1.720000	66.820000	50.670000	0.000000	0.000000	126.000000	60.000000	0.000000	0.000000
1.730000	66.750000	50.740000	0.000000	0.000000	126.000000	60.000000	-7.000000	7.000000
1.740000	66.750000	50.740000	0.000000	0.000000	125.000000	59.000000	0.000000	0.000000
1.750000	66.700000	50.740000	0.000000	0.000000	125.000000	59.000000	-5.000000	0.000000
1.760000	66.640000	50.800000	0.000000	0.000000	125.000000	59.000000	-6.000000	6.000000
1.770000	66.570000	50.860000	0.000000	0.000000	125.000000	59.000000	-7.000000	6.000000
1.780000	66.510000	50.860000	0.000000	0.000000	124.000000	58.000000	-6.000000	0.000000
1.790000	66.510000	50.860000	0.000000	0.000000	124.000000	58.000000	0.000000	0.000000
1.800000	66.510000	50.860000	0.000000	0.000000	124.000000	58.000000	0.000000	0.000000
1.810000	66.510000	50.910000	0.000000	0.000000	124.000000	58.000000	0.000000	5.000000
1.820000	66.510000	50.960000	0.000000	0.000000	124.000000	58.000000	0.000000	5.000000
1.830000	66.580000	50.960000	0.000000	0.000000	124.000000	58.000000	7.000000	0.000000
1.840000	66.580000	51.040000	0.000000	0.000000	124.000000	58.000000	0.000000	8.000000
1.850000	66.630000	51.100000	0.000000	0.000000	126.000000	58.000000	5.000000	6.000000
1.860000	66.630000	51.160000	0.000000	0.000000	124.000000	57.000000	0.000000	6.000000
1.870000	66.690000	51.270000	0.000000	0.000000	124.000000	57.000000	6.000000	11.000000
1.880000	66.690000	51.270000	106.000000	1.000000	124.000000	57.000000	0.000000	0.000000
1.890000	66.690000	51.270000	210.000000	0.000000	124.000000	57.000000	0.000000	0.000000
1.900000	66.570000	51.610000	302.000000	0.000000	124.000000	57.000000	-12.000000	34.000000
1.910000	66.500000	51.680000	377.000000	0.000000	124.000000	57.000000	-7.000000	7.000000
1.920000	66.370000	51.680000	468.000000	0.000000	124.000000	57.000000	-13.000000	0.000000
1.930000	66.210000	51.680000	510.000000	0.000000	125.000000	56.000000	-16.000000	0.000000
1.940000	66.010000	51.680000	551.000000	0.000000	125.000000	56.000000	-20.000000	0.000000
1.950000	65.770000	51.570000	592.000000	0.000000	125.000000	56.000000	-24.000000	-11.000000
1.960000	65.500000	51.230000	595.000000	0.000000	125.000000	56.000000	-27.000000	-34.000000
1.970000	65.210000	50.740000	611.000000	0.000000	125.000000	56.000000	-29.000000	-49.000000
1.980000	64.950000	50.050000	636.000000	0.000000	125.000000	56.000000	-26.000000	-69.000000
1.990000	64.820000	49.340000	646.000000	0.000000	125.000000	56.000000	-13.000000	-71.000000
2.000000	64.770000	48.610000	670.000000	0.000000	125.000000	56.000000	-5.000000	-73.000000
2.010000	64.770000	47.980000	666.000000	0.000000	123.000000	56.000000	0.000000	-63.000000
2.020000	64.880000	47.630000	684.000000	0.000000	122.000000	56.000000	11.000000	-35.000000
2.030000	65.070000	47.480000	700.000000	0.000000	121.000000	56.000000	19.000000	-15.000000
2.040000	65.390000	47.390000	733.000000	0.000000	121.000000	56.000000	32.000000	-9.000000
2.050000	65.820000	47.610000	771.000000	0.000000	119.000000	56.000000	43.000000	22.000000
2.060000	66.430000	48.050000	802.000000	0.000000	119.000000	56.000000	61.000000	44.000000
2.070000	67.160000	48.850000	828.000000	0.000000	119.000000	58.000000	73.000000	80.000000
2.080000	67.950000	49.720000	864.000000	0.000000	119.000000	58.000000	79.000000	87.000000
2.090000	68.500000	50.650000	861.000000	0.000000	120.000000	57.000000	55.000000	93.000000
2.100000	68.890000	51.370000	870.000000	0.000000	120.000000	57.000000	39.000000	72.000000
2.110000	69.020000	52.050000	879.000000	0.000000	123.000000	58.000000	13.000000	68.000000
2.120000	68.940000	52.560000	879.000000	0.000000	123.000000	58.000000	-8.000000	51.000000
2.130000	68.730000	52.970000	875.000000	0.000000	124.000000	57.000000	-21.000000	41.000000
2.140000	68.200000	53.240000	854.000000	0.000000	124.000000	57.000000	-53.000000	27.000000
2.150000	67.550000	53.180000	820.000000	0.000000	123.000000	56.000000	-65.000000	-6.000000
2.160000	66.810000	52.890000	745.000000	0.000000	125.000000	56.000000	-74.000000	-29.000000
2.170000	66.060000	52.390000	577.000000	0.000000	125.000000	56.000000	-75.000000	-50.000000
2.180000	65.360000	51.680000	129.000000	0.000000	125.000000	56.000000	-70.000000	-71.000000
2.190000	65.360000	51.680000	0.000000	1.000000	126.000000	56.000000	0.000000	0.000000
2.200000	64.880000	50.260000	0.000000	0.000000	125.000000	56.000000	-48.000000	-142.000000
2.210000	64.960000	49.890000	0.000000	0.000000	124.000000	55.000000	8.000000	-37.000000
2.220000	65.090000	49.660000	0.000000	0.000000	124.000000	55.000000	13.000000	-23.000000
2.230000	65.480000	49.600000	0.000000	0.000000	122.000000	56.000000	39.000000	-6.000000
