t	x	y	pressure	penup	azimuth	inclination	v_x	v_y
0.000000	13.350000	80.000000	63.000000	1.000000	138.000000	58.000000	0.000000	0.000000
0.010000	13.430000	81.320000	146.000000	0.000000	138.000000	58.000000	8.000000	132.000000
0.020000	13.430000	81.600000	171.000000	0.000000	138.000000	58.000000	0.000000	28.000000
0.030000	13.430000	81.690000	218.000000	0.000000	139.000000	57.000000	0.000000	9.000000
0.040000	13.500000	81.580000	279.000000	0.000000	139.000000	57.000000	7.000000	-11.000000
0.050000	13.500000	81.090000	345.000000	0.000000	139.000000	57.000000	0.000000	-49.000000
0.060000	13.570000	80.340000	399.000000	0.000000	140.000000	56.000000	7.000000	-75.000000
0.070000	13.570000	79.040000	441.000000	0.000000	139.000000	56.000000	0.000000	-130.000000
0.080000	13.640000	77.900000	463.000000	0.000000	139.000000	56.000000	7.000000	-114.000000
0.090000	13.640000	76.880000	498.000000	0.000000	138.000000	55.000000	0.000000	-102.000000
0.100000	13.760000	76.330000	522.000000	0.000000	135.000000	55.000000	12.000000	-55.000000
0.110000	13.870000	76.080000	561.000000	0.000000	135.000000	55.000000	11.000000	-25.000000
0.120000	13.870000	76.080000	636.000000	0.000000	135.000000	55.000000	0.000000	0.000000
0.130000	13.870000	76.080000	693.000000	0.000000	132.000000	55.000000	0.000000	0.000000
0.140000	13.870000	76.320000	708.000000	0.000000	132.000000	55.000000	0.000000	24.000000
0.150000	13.870000	76.690000	710.000000	0.000000	132.000000	55.000000	0.000000	37.000000
0.160000	13.720000	77.670000	713.000000	0.000000	132.000000	55.000000	-15.000000	98.000000
0.170000	13.500000	79.100000	700.000000	0.000000	131.000000	55.000000	-22.000000	143.000000
0.180000	13.310000	80.840000	700.000000	0.000000	131.000000	55.000000	-19.000000	174.000000
0.190000	13.130000	82.700000	707.000000	0.000000	133.000000	54.000000	-18.000000	186.000000
0.200000	13.210000	83.800000	702.000000	0.000000	133.000000	54.000000	8.000000	110.000000
0.210000	13.330000	84.390000	696.000000	0.000000	134.000000	54.000000	12.000000	59.000000
0.220000	13.520000	84.390000	682.000000	0.000000	134.000000	54.000000	19.000000	0.000000
0.230000	13.740000	83.980000	682.000000	0.000000	135.000000	53.000000	22.000000	-41.000000
0.240000	14.090000	83.390000	690.000000	0.000000	135.000000	53.000000	35.000000	-59.000000
0.250000	14.420000	82.240000	702.000000	0.000000	136.000000	52.000000	33.000000	-115.000000
0.260000	14.750000	80.770000	697.000000	0.000000	137.000000	53.000000	33.000000	-147.000000
0.270000	15.090000	79.100000	697.000000	0.000000	137.000000	53.000000	34.000000	-167.000000
0.280000	15.470000	77.940000	705.000000	0.000000	136.000000	54.000000	38.000000	-116.000000
0.290000	15.850000	77.290000	733.000000	0.000000	137.000000	54.000000	38.000000	-65.000000
0.300000	16.230000	76.980000	760.000000	0.000000	137.000000	54.000000	38.000000	-31.000000
0.310000	16.540000	76.980000	794.000000	0.000000	138.000000	55.000000	31.000000	0.000000
0.320000	16.740000	77.390000	827.000000	0.000000	138.000000	55.000000	20.000000	41.000000
0.330000	16.870000	78.010000	843.000000	0.000000	138.000000	55.000000	13.000000	62.000000
0.340000	16.820000	79.350000	849.000000	0.000000	138.000000	55.000000	-5.000000	134.000000
0.350000	16.560000	81.210000	851.000000	0.000000	138.000000	55.000000	-26.000000	186.000000
0.360000	16.170000	83.430000	842.000000	0.000000	139.000000	56.000000	-39.000000	222.000000
0.370000	15.870000	85.760000	824.000000	0.000000	139.000000	56.000000	-30.000000	233.000000
0.380000	15.870000	87.060000	740.000000	0.000000	139.000000	56.000000	0.000000	130.000000
0.390000	15.980000	87.680000	574.000000	0.000000	141.000000	56.000000	11.000000	62.000000
0.400000	16.280000	87.630000	358.000000	0.000000	141.000000	56.000000	30.000000	-5.000000
0.410000	16.590000	87.010000	60.000000	0.000000	141.000000	56.000000	31.000000	-62.000000
0.420000	16.590000	87.010000	0.000000	1.000000	144.000000	56.000000	0.000000	0.000000
0.430000	17.060000	84.550000	0.000000	0.000000	144.000000	56.000000	47.000000	-246.000000
0.440000	17.110000	83.290000	0.000000	0.000000	144.000000	56.000000	5.000000	-126.000000
0.450000	17.260000	82.150000	0.000000	0.000000	144.000000	56.000000	15.000000	-114.000000
0.460000	17.550000	81.020000	0.000000	0.000000	143.000000	56.000000	29.000000	-113.000000
0.470000	17.940000	80.380000	0.000000	0.000000	141.000000	56.000000	39.000000	-64.000000
0.480000	18.330000	80.080000	0.000000	0.000000	140.000000	56.000000	39.000000	-30.000000
0.490000	18.750000	79.790000	0.000000	0.000000	138.000000	57.000000	42.000000	-29.000000
0.500000	19.170000	79.720000	0.000000	0.000000	138.000000	57.000000	42.000000	-7.000000
0.510000	19.420000	79.790000	0.000000	0.000000	136.000000	57.000000	25.000000	7.000000
0.520000	19.420000	79.790000	349.000000	1.000000	135.000000	57.000000	0.000000	0.000000
0.530000	19.500000	80.150000	351.000000	0.000000	135.000000	57.000000	8.000000	36.000000
0.540000	19.330000	80.440000	396.000000	0.000000	136.000000	57.000000	-17.000000	29.000000
0.550000	19.100000	80.510000	460.000000	0.000000	136.000000	57.000000	-23.000000	7.000000
0.560000	18.870000	80.270000	556.000000	0.000000	138.000000	58.000000	-23.000000	-24.000000
0.570000	18.570000	79.830000	594.000000	0.000000	139.000000	57.000000	-30.000000	-44.000000
0.580000	18.220000	79.140000	617.000000	0.000000	142.000000	57.000000	-35.000000	-69.000000
0.590000	18.220000	78.440000	616.000000	0.000000	143.000000	57.000000	0.000000	-70.000000
0.600000	18.160000	77.910000	619.000000	0.000000	143.000000	57.000000	-6.000000	-53.000000
0.610000	18.380000	77.490000	633.000000	0.000000	143.000000	57.000000	22.000000	-42.000000
0.620000	18.750000	77.390000	655.000000	0.000000	143.000000	57.000000	37.000000	-10.000000
0.630000	19.230000	77.630000	669.000000	0.000000	143.000000	57.000000	48.000000	24.000000
0.640000	19.610000	78.090000	682.000000	0.000000	143.000000	57.000000	38.000000	46.000000
0.650000	19.920000	78.750000	690.000000	0.000000	143.000000	57.000000	31.000000	66.000000
0.660000	19.920000	79.440000	700.000000	0.000000	143.000000	57.000000	0.000000	69.000000
0.670000	19.730000	80.160000	700.000000	0.000000	144.000000	57.000000	-19.000000	72.000000
0.680000	19.400000	80.580000	684.000000	0.000000	144.000000	57.000000	-33.000000	42.000000
0.690000	18.900000	80.700000	641.000000	0.000000	144.000000	57.000000	-50.000000	12.000000
0.700000	18.670000	80.620000	402.000000	0.000000	143.000000	56.000000	-23.000000	-8.000000
0.710000	18.670000	80.620000	0.000000	1.000000	143.000000	56.000000	0.000000	0.000000
0.720000	18.850000	80.270000	0.000000	0.000000	143.000000	56.000000	18.000000	-35.000000
0.730000	19.140000	80.110000	0.000000	0.000000	142.000000	57.000000	29.000000	-16.000000
0.740000	19.420000	80.110000	0.000000	0.000000	142.000000	57.000000	28.000000	0.000000
0.750000	19.680000	80.010000	0.000000	0.000000	142.000000	57.000000	26.000000	-10.000000
0.760000	19.950000	79.890000	0.000000	0.000000	140.000000	58.000000	27.000000	-12.000000
0.770000	20.200000	79.720000	0.000000	0.000000	140.000000	58.000000	25.000000	-17.000000
0.780000	20.410000	79.490000	0.000000	0.000000	139.000000	57.000000	21.000000	-23.000000
0.790000	20.590000	79.200000	0.000000	0.000000	139.000000	57.000000	18.000000	-29.000000
0.800000	20.590000	79.200000	368.000000	1.000000	139.000000	57.000000	0.000000	0.000000
0.810000	20.680000	78.380000	418.000000	0.000000	139.000000	57.000000	9.000000	-82.000000
0.820000	20.680000	78.260000	466.000000	0.000000	139.000000	57.000000	0.000000	-12.000000
0.830000	20.680000	78.130000	516.000000	0.000000	139.000000	57.000000	0.000000	-13.000000
0.840000	20.840000	78.130000	561.000000	0.000000	140.000000	56.000000	16.000000	0.000000
0.850000	21.030000	78.130000	600.000000	0.000000	142.000000	57.000000	19.000000	0.000000
0.860000	21.410000	78.240000	636.000000	0.000000	143.000000	56.000000	38.000000	11.000000
0.870000	21.910000	78.620000	647.000000	0.000000	143.000000	56.000000	50.000000	38.000000
0.880000	22.390000	79.160000	673.000000	0.000000	144.000000	56.000000	48.000000	54.000000
0.890000	22.650000	79.700000	681.000000	0.000000	144.000000	56.000000	26.000000	54.000000
0.900000	22.750000	80.270000	690.000000	0.000000	144.000000	56.000000	10.000000	57.000000
0.910000	22.660000	80.870000	700.000000	0.000000	144.000000	56.000000	-9.000000	60.000000
0.920000	22.440000	81.340000	748.000000	0.000000	144.000000	56.000000	-22.000000	47.000000
0.930000	22.140000	81.550000	774.000000	0.000000	144.000000	56.000000	-30.000000	21.000000
0.940000	21.910000	81.600000	788.000000	0.000000	144.000000	56.000000	-23.000000	5.000000
0.950000	21.650000	81.340000	793.000000	0.000000	144.000000	56.000000	-26.000000	-26.000000
0.960000	21.380000	81.030000	788.000000	0.000000	145.000000	55.000000	-27.000000	-31.000000
0.970000	21.110000	80.310000	790.000000	0.000000	145.000000	55.000000	-27.000000	-72.000000
0.980000	20.880000	79.340000	796.000000	0.000000	145.000000	55.000000	-23.000000	-97.000000
0.990000	20.880000	78.520000	783.000000	0.000000	144.000000	56.000000	0.000000	-82.000000
1.000000	21.090000	77.980000	788.000000	0.000000	144.000000	56.000000	21.000000	-54.000000
1.010000	21.560000	77.630000	787.000000	0.000000	144.000000	56.000000	47.000000	-35.000000
1.020000	22.040000	77.560000	796.000000	0.000000	141.000000	56.000000	48.000000	-7.000000
1.030000	22.560000	77.780000	783.000000	0.000000	141.000000	56.000000	52.000000	22.000000
1.040000	23.080000	78.200000	790.000000	0.000000	141.000000	56.000000	52.000000	42.000000
1.050000	23.560000	78.810000	788.000000	0.000000	141.000000	56.000000	48.000000	61.000000
1.060000	23.870000	79.620000	787.000000	0.000000	143.000000	56.000000	31.000000	81.000000
1.070000	24.090000	80.560000	776.000000	0.000000	144.000000	56.000000	22.000000	94.000000
1.080000	24.170000	81.410000	779.000000	0.000000	144.000000	56.000000	8.000000	85.000000
1.090000	24.170000	81.800000	800.000000	0.000000	144.000000	56.000000	0.000000	39.000000
1.100000	24.170000	81.890000	809.000000	0.000000	145.000000	55.000000	0.000000	9.000000
1.110000	24.100000	81.820000	817.000000	0.000000	145.000000	55.000000	-7.000000	-7.000000
1.120000	23.950000	81.360000	817.000000	0.000000	145.000000	55.000000	-15.000000	-46.000000
1.130000	23.730000	80.640000	839.000000	0.000000	146.000000	54.000000	-22.000000	-72.000000
1.140000	23.590000	79.680000	843.000000	0.000000	146.000000	54.000000	-14.000000	-96.000000
1.150000	23.500000	78.940000	842.000000	0.000000	145.000000	55.000000	-9.000000	-74.000000
1.160000	23.630000	78.340000	845.000000	0.000000	145.000000	55.000000	13.000000	-60.000000
1.170000	23.890000	78.030000	843.000000	0.000000	145.000000	55.000000	26.000000	-31.000000
1.180000	24.270000	78.030000	842.000000	0.000000	144.000000	56.000000	38.000000	0.000000
1.190000	24.770000	78.180000	833.000000	0.000000	144.000000	56.000000	50.000000	15.000000
1.200000	25.360000	78.630000	825.000000	0.000000	144.000000	56.000000	59.000000	45.000000
1.210000	25.830000	79.250000	832.000000	0.000000	144.000000	56.000000	47.000000	62.000000
1.220000	26.130000	79.980000	806.000000	0.000000	144.000000	56.000000	30.000000	73.000000
1.230000	26.320000	80.700000	791.000000	0.000000	145.000000	56.000000	19.000000	72.000000
1.240000	26.320000	81.300000	803.000000	0.000000	146.000000	55.000000	0.000000	60.000000
1.250000	26.320000	81.830000	809.000000	0.000000	146.000000	55.000000	0.000000	53.000000
1.260000	26.320000	82.010000	826.000000	0.000000	146.000000	55.000000	0.000000	18.000000
1.270000	26.240000	81.940000	817.000000	0.000000	146.000000	55.000000	-8.000000	-7.000000
1.280000	26.150000	81.710000	831.000000	0.000000	147.000000	55.000000	-9.000000	-23.000000
1.290000	26.020000	81.160000	837.000000	0.000000	147.000000	55.000000	-13.000000	-55.000000
1.300000	25.910000	80.570000	840.000000	0.000000	147.000000	55.000000	-11.000000	-59.000000
1.310000	25.830000	79.900000	837.000000	0.000000	146.000000	55.000000	-8.000000	-67.000000
1.320000	25.960000	79.440000	834.000000	0.000000	146.000000	55.000000	13.000000	-46.000000
1.330000	26.230000	79.140000	824.000000	0.000000	146.000000	55.000000	27.000000	-30.000000
1.340000	26.610000	79.060000	829.000000	0.000000	146.000000	55.000000	38.000000	-8.000000
1.350000	27.040000	79.260000	823.000000	0.000000	146.000000	55.000000	43.000000	20.000000
1.360000	27.400000	79.640000	806.000000	0.000000	146.000000	55.000000	36.000000	38.000000
1.370000	27.700000	80.140000	788.000000	0.000000	146.000000	55.000000	30.000000	50.000000
1.380000	27.900000	80.670000	776.000000	0.000000	146.000000	55.000000	20.000000	53.000000
1.390000	27.970000	81.230000	768.000000	0.000000	146.000000	55.000000	7.000000	56.000000
1.400000	27.970000	81.740000	774.000000	0.000000	146.000000	55.000000	0.000000	51.000000
1.410000	27.970000	81.740000	788.000000	0.000000	146.000000	55.000000	0.000000	0.000000
1.420000	27.970000	81.740000	784.000000	0.000000	149.000000	55.000000	0.000000	0.000000
1.430000	27.970000	81.740000	820.000000	0.000000	149.000000	55.000000	0.000000	0.000000
1.440000	27.790000	81.330000	825.000000	0.000000	149.000000	55.000000	-18.000000	-41.000000
1.450000	27.790000	80.660000	845.000000	0.000000	149.000000	55.000000	0.000000	-67.000000
1.460000	27.790000	79.920000	846.000000	0.000000	149.000000	55.000000	0.000000	-74.000000
1.470000	27.910000	79.230000	836.000000	0.000000	148.000000	56.000000	12.000000	-69.000000
1.480000	28.190000	78.830000	833.000000	0.000000	148.000000	56.000000	28.000000	-40.000000
1.490000	28.580000	78.610000	825.000000	0.000000	148.000000	56.000000	39.000000	-22.000000
1.500000	28.910000	78.690000	832.000000	0.000000	148.000000	56.000000	33.000000	8.000000
1.510000	29.180000	79.100000	817.000000	0.000000	148.000000	56.000000	27.000000	41.000000
1.520000	29.410000	79.720000	808.000000	0.000000	148.000000	56.000000	23.000000	62.000000
1.530000	29.490000	80.360000	785.000000	0.000000	148.000000	56.000000	8.000000	64.000000
1.540000	29.430000	80.950000	784.000000	0.000000	149.000000	56.000000	-6.000000	59.000000
1.550000	29.280000	81.520000	809.000000	0.000000	149.000000	56.000000	-15.000000	57.000000
1.560000	29.220000	81.730000	828.000000	0.000000	151.000000	56.000000	-6.000000	21.000000
1.570000	29.160000	81.730000	863.000000	0.000000	152.000000	56.000000	-6.000000	0.000000
1.580000	29.160000	81.650000	881.000000	0.000000	152.000000	56.000000	0.000000	-8.000000
1.590000	29.110000	81.380000	905.000000	0.000000	152.000000	56.000000	-5.000000	-27.000000
1.600000	29.170000	80.890000	896.000000	0.000000	150.000000	55.000000	6.000000	-49.000000
1.610000	29.360000	80.260000	884.000000	0.000000	150.000000	55.000000	19.000000	-63.000000
1.620000	29.640000	79.910000	855.000000	0.000000	150.000000	55.000000	28.000000	-35.000000
1.630000	29.930000	79.690000	728.000000	0.000000	148.000000	56.000000	29.000000	-22.000000
1.640000	30.220000	79.560000	253.000000	0.000000	148.000000	56.000000	29.000000	-13.000000
1.650000	30.220000	79.560000	0.000000	1.000000	148.000000	56.000000	0.000000	0.000000
1.660000	30.470000	80.100000	0.000000	0.000000	147.000000	56.000000	25.000000	54.000000
1.670000	30.210000	80.820000	0.000000	0.000000	147.000000	56.000000	-26.000000	72.000000
1.680000	29.940000	81.700000	0.000000	0.000000	147.000000	56.000000	-27.000000	88.000000
1.690000	29.660000	82.580000	0.000000	0.000000	147.000000	56.000000	-28.000000	88.000000
1.700000	29.540000	83.140000	0.000000	0.000000	148.000000	56.000000	-12.000000	56.000000
1.710000	29.360000	83.500000	0.000000	0.000000	149.000000	56.000000	-18.000000	36.000000
1.720000	29.360000	83.500000	488.000000	1.000000	150.000000	55.000000	0.000000	0.000000
1.730000	28.950000	82.970000	522.000000	0.000000	150.000000	55.000000	-41.000000	-53.000000
1.740000	28.780000	83.430000	544.000000	0.000000	153.000000	55.000000	-17.000000	46.000000
1.750000	28.780000	83.380000	538.000000	0.000000	153.000000	55.000000	0.000000	-5.000000
1.760000	28.780000	83.310000	516.000000	0.000000	155.000000	54.000000	0.000000	-7.000000
1.770000	28.920000	82.920000	430.000000	0.000000	155.000000	54.000000	14.000000	-39.000000
1.780000	29.060000	82.330000	304.000000	0.000000	156.000000	55.000000	14.000000	-59.000000
1.790000	29.390000	81.550000	241.000000	0.000000	156.000000	55.000000	33.000000	-78.000000
1.800000	29.820000	80.880000	260.000000	0.000000	156.000000	55.000000	43.000000	-67.000000
1.810000	30.220000	80.290000	307.000000	0.000000	156.000000	55.000000	40.000000	-59.000000
1.820000	30.540000	79.890000	425.000000	0.000000	155.000000	55.000000	32.000000	-40.000000
1.830000	30.810000	79.790000	488.000000	0.000000	155.000000	55.000000	27.000000	-10.000000
1.840000	31.110000	79.880000	550.000000	0.000000	155.000000	55.000000	30.000000	9.000000
1.850000	31.640000	80.220000	592.000000	0.000000	155.000000	55.000000	53.000000	34.000000
1.860000	32.330000	80.780000	644.000000	0.000000	154.000000	55.000000	69.000000	56.000000
1.870000	33.080000	81.480000	719.000000	0.000000	154.000000	55.000000	75.000000	70.000000
1.880000	33.800000	82.230000	737.000000	0.000000	154.000000	55.000000	72.000000	75.000000
1.890000	34.250000	83.140000	768.000000	0.000000	154.000000	55.000000	45.000000	91.000000
1.900000	34.530000	84.160000	791.000000	0.000000	154.000000	55.000000	28.000000	102.000000
1.910000	34.170000	85.320000	790.000000	0.000000	154.000000	55.000000	-36.000000	116.000000
1.920000	33.310000	85.950000	783.000000	0.000000	155.000000	54.000000	-86.000000	63.000000
1.930000	32.110000	86.240000	790.000000	0.000000	155.000000	54.000000	-120.000000	29.000000
1.940000	30.220000	85.970000	776.000000	0.000000	155.000000	54.000000	-189.000000	-27.000000
1.950000	27.580000	85.110000	784.000000	0.000000	156.000000	53.000000	-264.000000	-86.000000
1.960000	24.440000	83.860000	800.000000	0.000000	156.000000	53.000000	-314.000000	-125.000000
1.970000	20.610000	82.390000	826.000000	0.000000	156.000000	53.000000	-383.000000	-147.000000
1.980000	17.230000	80.930000	837.000000	0.000000	156.000000	53.000000	-338.000000	-146.000000
1.990000	14.160000	79.480000	873.000000	0.000000	153.000000	54.000000	-307.000000	-145.000000
2.000000	12.590000	78.570000	866.000000	0.000000	153.000000	54.000000	-157.000000	-91.000000
2.010000	12.210000	78.000000	849.000000	0.000000	152.000000	54.000000	-38.000000	-57.000000
2.020000	12.630000	77.390000	855.000000	0.000000	150.000000	54.000000	42.000000	-61.000000
2.030000	13.610000	77.030000	855.000000	0.000000	148.000000	54.000000	98.000000	-36.000000
2.040000	15.680000	76.830000	855.000000	0.000000	147.000000	53.000000	207.000000	-20.000000
2.050000	18.470000	77.130000	872.000000	0.000000	146.000000	54.000000	279.000000	30.000000
2.060000	21.920000	77.840000	884.000000	0.000000	147.000000	55.000000	345.000000	71.000000
2.070000	25.760000	78.830000	909.000000	0.000000	147.000000	55.000000	384.000000	99.000000
2.080000	29.870000	80.150000	903.000000	0.000000	150.000000	54.000000	411.000000	132.000000
2.090000	33.560000	81.120000	930.000000	0.000000	153.000000	55.000000	369.000000	97.000000
2.100000	35.980000	81.870000	950.000000	0.000000	155.000000	54.000000	242.000000	75.000000
2.110000	37.540000	82.460000	955.000000	0.000000	158.000000	55.000000	156.000000	59.000000
2.120000	37.870000	82.820000	938.000000	0.000000	160.000000	54.000000	33.000000	36.000000
2.130000	37.450000	83.030000	903.000000	0.000000	160.000000	53.000000	-42.000000	21.000000
2.140000	36.540000	83.320000	791.000000	0.000000	162.000000	54.000000	-91.000000	29.000000
2.150000	34.700000	83.060000	703.000000	0.000000	162.000000	54.000000	-184.000000	-26.000000
2.160000	32.190000	82.440000	563.000000	0.000000	164.000000	53.000000	-251.000000	-62.000000
2.170000	29.230000	81.390000	464.000000	0.000000	164.000000	53.000000	-296.000000	-105.000000
2.180000	26.300000	80.290000	443.000000	0.000000	163.000000	54.000000	-293.000000	-110.000000
2.190000	24.160000	79.290000	405.000000	0.000000	162.000000	54.000000	-214.000000	-100.000000
