t	x	y	pressure	penup	azimuth	inclination	v_x	v_y
0.000000	15.950000	47.630000	148.000000	1.000000	118.000000	65.000000	0.000000	0.000000
0.010000	16.270000	47.680000	255.000000	0.000000	117.000000	65.000000	32.000000	5.000000
0.020000	16.270000	47.600000	265.000000	0.000000	117.000000	65.000000	0.000000	-8.000000
0.030000	16.160000	47.540000	307.000000	0.000000	116.000000	64.000000	-11.000000	-6.000000
0.040000	16.160000	47.460000	366.000000	0.000000	115.000000	63.000000	0.000000	-8.000000
0.050000	16.160000	47.370000	394.000000	0.000000	114.000000	62.000000	0.000000	-9.000000
0.060000	16.160000	47.240000	427.000000	0.000000	111.000000	61.000000	0.000000	-13.000000
0.070000	16.220000	47.110000	464.000000	0.000000	111.000000	61.000000	6.000000	-13.000000
0.080000	16.220000	46.810000	497.000000	0.000000	110.000000	60.000000	0.000000	-30.000000
0.090000	16.220000	46.390000	512.000000	0.000000	108.000000	61.000000	0.000000	-42.000000
0.100000	16.130000	45.940000	540.000000	0.000000	108.000000	61.000000	-9.000000	-45.000000
0.110000	16.000000	45.400000	542.000000	0.000000	108.000000	61.000000	-13.000000	-54.000000
0.120000	15.720000	44.790000	557.000000	0.000000	107.000000	62.000000	-28.000000	-61.000000
0.130000	15.330000	44.100000	563.000000	0.000000	107.000000	62.000000	-39.000000	-69.000000
0.140000	14.870000	43.490000	572.000000	0.000000	107.000000	62.000000	-46.000000	-61.000000
0.150000	14.390000	42.930000	591.000000	0.000000	108.000000	63.000000	-48.000000	-56.000000
0.160000	13.890000	42.510000	606.000000	0.000000	108.000000	63.000000	-50.000000	-42.000000
0.170000	13.490000	42.350000	617.000000	0.000000	108.000000	63.000000	-40.000000	-16.000000
0.180000	13.100000	42.350000	638.000000	0.000000	108.000000	63.000000	-39.000000	0.000000
0.190000	12.720000	42.560000	647.000000	0.000000	110.000000	63.000000	-38.000000	21.000000
0.200000	12.340000	42.930000	636.000000	0.000000	110.000000	63.000000	-38.000000	37.000000
0.210000	11.980000	43.430000	650.000000	0.000000	109.000000	62.000000	-36.000000	50.000000
0.220000	11.680000	44.100000	655.000000	0.000000	108.000000	61.000000	-30.000000	67.000000
0.230000	11.430000	44.920000	653.000000	0.000000	108.000000	61.000000	-25.000000	82.000000
0.240000	11.260000	45.850000	646.000000	0.000000	108.000000	60.000000	-17.000000	93.000000
0.250000	11.370000	47.020000	646.000000	0.000000	107.000000	59.000000	11.000000	117.000000
0.260000	11.670000	48.370000	644.000000	0.000000	107.000000	59.000000	30.000000	135.000000
0.270000	12.230000	49.850000	640.000000	0.000000	107.000000	59.000000	56.000000	148.000000
0.280000	12.920000	51.230000	643.000000	0.000000	108.000000	58.000000	69.000000	138.000000
0.290000	13.690000	52.370000	649.000000	0.000000	110.000000	58.000000	77.000000	114.000000
0.300000	14.450000	53.350000	649.000000	0.000000	112.000000	58.000000	76.000000	98.000000
0.310000	15.170000	54.170000	650.000000	0.000000	112.000000	58.000000	72.000000	82.000000
0.320000	15.870000	54.760000	641.000000	0.000000	114.000000	59.000000	70.000000	59.000000
0.330000	16.530000	55.200000	638.000000	0.000000	116.000000	58.000000	66.000000	44.000000
0.340000	17.140000	55.390000	644.000000	0.000000	117.000000	59.000000	61.000000	19.000000
0.350000	17.720000	55.560000	624.000000	0.000000	117.000000	59.000000	58.000000	17.000000
0.360000	18.330000	55.560000	619.000000	0.000000	117.000000	59.000000	61.000000	0.000000
0.370000	18.910000	55.560000	605.000000	0.000000	117.000000	59.000000	58.000000	0.000000
0.380000	19.460000	55.310000	603.000000	0.000000	117.000000	59.000000	55.000000	-25.000000
0.390000	19.900000	54.890000	608.000000	0.000000	117.000000	59.000000	44.000000	-42.000000
0.400000	20.260000	54.330000	620.000000	0.000000	117.000000	59.000000	36.000000	-56.000000
0.410000	20.550000	53.630000	617.000000	0.000000	118.000000	60.000000	29.000000	-70.000000
0.420000	20.630000	52.730000	627.000000	0.000000	118.000000	60.000000	8.000000	-90.000000
0.430000	20.560000	51.710000	628.000000	0.000000	118.000000	60.000000	-7.000000	-102.000000
0.440000	20.370000	50.670000	636.000000	0.000000	119.000000	60.000000	-19.000000	-104.000000
0.450000	20.060000	49.610000	645.000000	0.000000	119.000000	60.000000	-31.000000	-106.000000
0.460000	19.680000	48.470000	645.000000	0.000000	117.000000	59.000000	-38.000000	-114.000000
0.470000	19.140000	47.290000	641.000000	0.000000	117.000000	59.000000	-54.000000	-118.000000
0.480000	18.470000	46.080000	646.000000	0.000000	115.000000	60.000000	-67.000000	-121.000000
0.490000	17.700000	44.990000	655.000000	0.000000	113.000000	60.000000	-77.000000	-109.000000
0.500000	16.870000	43.980000	661.000000	0.000000	112.000000	60.000000	-83.000000	-101.000000
0.510000	16.080000	43.240000	673.000000	0.000000	110.000000	60.000000	-79.000000	-74.000000
0.520000	15.390000	42.820000	673.000000	0.000000	108.000000	61.000000	-69.000000	-42.000000
0.530000	14.820000	42.610000	670.000000	0.000000	107.000000	61.000000	-57.000000	-21.000000
0.540000	14.400000	42.740000	666.000000	0.000000	107.000000	62.000000	-42.000000	13.000000
0.550000	14.060000	43.090000	670.000000	0.000000	107.000000	62.000000	-34.000000	35.000000
0.560000	13.800000	43.590000	664.000000	0.000000	107.000000	62.000000	-26.000000	50.000000
0.570000	13.600000	44.300000	670.000000	0.000000	107.000000	62.000000	-20.000000	71.000000
0.580000	13.600000	45.220000	663.000000	0.000000	107.000000	62.000000	0.000000	92.000000
0.590000	13.650000	46.280000	664.000000	0.000000	107.000000	62.000000	5.000000	106.000000
0.600000	13.860000	47.480000	664.000000	0.000000	107.000000	62.000000	21.000000	120.000000
0.610000	14.110000	48.640000	661.000000	0.000000	107.000000	62.000000	25.000000	116.000000
0.620000	14.440000	49.770000	664.000000	0.000000	107.000000	62.000000	33.000000	113.000000
0.630000	14.840000	50.580000	668.000000	0.000000	109.000000	62.000000	40.000000	81.000000
0.640000	15.290000	51.120000	667.000000	0.000000	109.000000	62.000000	45.000000	54.000000
0.650000	15.730000	51.480000	664.000000	0.000000	111.000000	61.000000	44.000000	36.000000
0.660000	16.050000	51.610000	662.000000	0.000000	113.000000	61.000000	32.000000	13.000000
0.670000	16.300000	51.700000	650.000000	0.000000	114.000000	61.000000	25.000000	9.000000
0.680000	16.600000	51.700000	641.000000	0.000000	116.000000	60.000000	30.000000	0.000000
0.690000	16.860000	51.620000	644.000000	0.000000	115.000000	60.000000	26.000000	-8.000000
0.700000	17.080000	51.420000	638.000000	0.000000	117.000000	59.000000	22.000000	-20.000000
0.710000	17.330000	51.120000	634.000000	0.000000	117.000000	59.000000	25.000000	-30.000000
0.720000	17.490000	50.670000	634.000000	0.000000	116.000000	58.000000	16.000000	-45.000000
0.730000	17.600000	50.120000	634.000000	0.000000	116.000000	58.000000	11.000000	-55.000000
0.740000	17.670000	49.480000	639.000000	0.000000	116.000000	58.000000	7.000000	-64.000000
0.750000	17.670000	48.850000	638.000000	0.000000	115.000000	58.000000	0.000000	-63.000000
0.760000	17.600000	48.210000	631.000000	0.000000	113.000000	58.000000	-7.000000	-64.000000
0.770000	17.450000	47.570000	631.000000	0.000000	113.000000	58.000000	-15.000000	-64.000000
0.780000	17.310000	47.080000	630.000000	0.000000	112.000000	58.000000	-14.000000	-49.000000
0.790000	17.140000	46.710000	622.000000	0.000000	110.000000	58.000000	-17.000000	-37.000000
0.800000	16.940000	46.400000	613.000000	0.000000	109.000000	59.000000	-20.000000	-31.000000
0.810000	16.790000	46.280000	611.000000	0.000000	107.000000	59.000000	-15.000000	-12.000000
0.820000	16.670000	46.280000	599.000000	0.000000	105.000000	59.000000	-12.000000	0.000000
0.830000	16.670000	46.350000	589.000000	0.000000	105.000000	59.000000	0.000000	7.000000
0.840000	16.740000	46.610000	580.000000	0.000000	104.000000	59.000000	7.000000	26.000000
0.850000	16.850000	47.010000	577.000000	0.000000	104.000000	59.000000	11.000000	40.000000
0.860000	17.050000	47.540000	580.000000	0.000000	104.000000	59.000000	20.000000	53.000000
0.870000	17.310000	48.020000	585.000000	0.000000	104.000000	59.000000	26.000000	48.000000
0.880000	17.590000	48.420000	588.000000	0.000000	105.000000	59.000000	28.000000	40.000000
0.890000	17.830000	48.730000	602.000000	0.000000	105.000000	59.000000	24.000000	31.000000
0.900000	17.990000	48.870000	609.000000	0.000000	107.000000	59.000000	16.000000	14.000000
0.910000	18.090000	48.870000	610.000000	0.000000	109.000000	59.000000	10.000000	0.000000
0.920000	18.090000	48.870000	617.000000	0.000000	109.000000	59.000000	0.000000	0.000000
0.930000	18.150000	48.760000	622.000000	0.000000	110.000000	58.000000	6.000000	-11.000000
0.940000	18.150000	48.550000	630.000000	0.000000	110.000000	58.000000	0.000000	-21.000000
0.950000	18.150000	48.250000	633.000000	0.000000	110.000000	58.000000	0.000000	-30.000000
0.960000	18.150000	47.880000	633.000000	0.000000	111.000000	59.000000	0.000000	-37.000000
0.970000	18.150000	47.550000	628.000000	0.000000	111.000000	59.000000	0.000000	-33.000000
0.980000	18.150000	47.270000	622.000000	0.000000	109.000000	60.000000	0.000000	-28.000000
0.990000	18.210000	47.030000	619.000000	0.000000	109.000000	60.000000	6.000000	-24.000000
1.000000	18.270000	46.960000	609.000000	0.000000	108.000000	60.000000	6.000000	-7.000000
1.010000	18.270000	46.960000	605.000000	0.000000	108.000000	60.000000	0.000000	0.000000
1.020000	18.270000	46.960000	606.000000	0.000000	106.000000	60.000000	0.000000	0.000000
1.030000	18.410000	47.130000	611.000000	0.000000	106.000000	60.000000	14.000000	17.000000
1.040000	18.570000	47.490000	617.000000	0.000000	106.000000	60.000000	16.000000	36.000000
1.050000	18.810000	47.990000	613.000000	0.000000	106.000000	60.000000	24.000000	50.000000
1.060000	19.050000	48.420000	624.000000	0.000000	106.000000	60.000000	24.000000	43.000000
1.070000	19.210000	48.680000	630.000000	0.000000	108.000000	60.000000	16.000000	26.000000
1.080000	19.310000	48.820000	638.000000	0.000000	108.000000	60.000000	10.000000	14.000000
1.090000	19.310000	48.820000	642.000000	0.000000	109.000000	60.000000	0.000000	0.000000
1.100000	19.310000	48.770000	645.000000	0.000000	109.000000	60.000000	0.000000	-5.000000
1.110000	19.310000	48.680000	643.000000	0.000000	111.000000	59.000000	0.000000	-9.000000
1.120000	19.310000	48.540000	644.000000	0.000000	111.000000	59.000000	0.000000	-14.000000
1.130000	19.310000	48.330000	641.000000	0.000000	111.000000	59.000000	0.000000	-21.000000
1.140000	19.310000	48.070000	643.000000	0.000000	111.000000	59.000000	0.000000	-26.000000
1.150000	19.310000	47.700000	646.000000	0.000000	111.000000	59.000000	0.000000	-37.000000
1.160000	19.310000	47.500000	647.000000	0.000000	111.000000	59.000000	0.000000	-20.000000
1.170000	19.360000	47.420000	646.000000	0.000000	109.000000	60.000000	5.000000	-8.000000
1.180000	19.440000	47.310000	641.000000	0.000000	109.000000	60.000000	8.000000	-11.000000
1.190000	19.540000	47.310000	637.000000	0.000000	108.000000	60.000000	10.000000	0.000000
1.200000	19.620000	47.310000	641.000000	0.000000	108.000000	60.000000	8.000000	0.000000
1.210000	19.690000	47.460000	643.000000	0.000000	108.000000	60.000000	7.000000	15.000000
1.220000	19.890000	47.760000	644.000000	0.000000	108.000000	60.000000	20.000000	30.000000
1.230000	20.100000	48.190000	652.000000	0.000000	108.000000	60.000000	21.000000	43.000000
1.240000	20.300000	48.480000	649.000000	0.000000	108.000000	60.000000	20.000000	29.000000
1.250000	20.420000	48.710000	655.000000	0.000000	109.000000	60.000000	12.000000	23.000000
1.260000	20.480000	48.770000	659.000000	0.000000	109.000000	60.000000	6.000000	6.000000
1.270000	20.550000	48.770000	671.000000	0.000000	109.000000	60.000000	7.000000	0.000000
1.280000	20.610000	48.690000	671.000000	0.000000	109.000000	60.000000	6.000000	-8.000000
1.290000	20.680000	48.630000	666.000000	0.000000	111.000000	59.000000	7.000000	-6.000000
1.300000	20.760000	48.450000	667.000000	0.000000	111.000000	59.000000	8.000000	-18.000000
1.310000	20.860000	48.200000	666.000000	0.000000	111.000000	59.000000	10.000000	-25.000000
1.320000	20.970000	47.910000	666.000000	0.000000	112.000000	60.000000	11.000000	-29.000000
1.330000	21.080000	47.660000	663.000000	0.000000	110.000000	60.000000	11.000000	-25.000000
1.340000	21.170000	47.450000	662.000000	0.000000	110.000000	60.000000	9.000000	-21.000000
1.350000	21.280000	47.290000	658.000000	0.000000	110.000000	60.000000	11.000000	-16.000000
1.360000	21.380000	47.180000	640.000000	0.000000	108.000000	61.000000	10.000000	-11.000000
1.370000	21.470000	47.180000	638.000000	0.000000	108.000000	61.000000	9.000000	0.000000
1.380000	21.640000	47.390000	647.000000	0.000000	109.000000	62.000000	17.000000	21.000000
1.390000	21.830000	47.720000	641.000000	0.000000	109.000000	62.000000	19.000000	33.000000
1.400000	22.060000	48.220000	641.000000	0.000000	109.000000	62.000000	23.000000	50.000000
1.410000	22.290000	48.690000	643.000000	0.000000	109.000000	62.000000	23.000000	47.000000
1.420000	22.460000	49.110000	643.000000	0.000000	109.000000	62.000000	17.000000	42.000000
1.430000	22.600000	49.300000	659.000000	0.000000	111.000000	61.000000	14.000000	19.000000
1.440000	22.600000	49.360000	670.000000	0.000000	111.000000	61.000000	0.000000	6.000000
1.450000	22.600000	49.360000	673.000000	0.000000	113.000000	61.000000	0.000000	0.000000
1.460000	22.600000	49.310000	671.000000	0.000000	113.000000	61.000000	0.000000	-5.000000
1.470000	22.600000	49.310000	675.000000	0.000000	113.000000	61.000000	0.000000	0.000000
1.480000	22.600000	48.960000	666.000000	0.000000	114.000000	61.000000	0.000000	-35.000000
1.490000	22.600000	48.680000	667.000000	0.000000	114.000000	61.000000	0.000000	-28.000000
1.500000	22.690000	48.470000	664.000000	0.000000	114.000000	61.000000	9.000000	-21.000000
1.510000	22.740000	48.250000	666.000000	0.000000	114.000000	61.000000	5.000000	-22.000000
1.520000	22.800000	48.010000	666.000000	0.000000	113.000000	61.000000	6.000000	-24.000000
1.530000	22.870000	47.770000	673.000000	0.000000	113.000000	61.000000	7.000000	-24.000000
1.540000	22.930000	47.550000	668.000000	0.000000	113.000000	61.000000	6.000000	-22.000000
1.550000	23.000000	47.420000	653.000000	0.000000	111.000000	61.000000	7.000000	-13.000000
1.560000	23.090000	47.340000	637.000000	0.000000	111.000000	61.000000	9.000000	-8.000000
1.570000	23.180000	47.340000	645.000000	0.000000	110.000000	63.000000	9.000000	0.000000
1.580000	23.250000	47.390000	637.000000	0.000000	110.000000	63.000000	7.000000	5.000000
1.590000	23.320000	47.550000	647.000000	0.000000	110.000000	63.000000	7.000000	16.000000
1.600000	23.440000	47.840000	636.000000	0.000000	110.000000	63.000000	12.000000	29.000000
1.610000	23.500000	48.080000	645.000000	0.000000	110.000000	63.000000	6.000000	24.000000
1.620000	23.500000	48.230000	647.000000	0.000000	110.000000	63.000000	0.000000	15.000000
1.630000	23.550000	48.330000	645.000000	0.000000	109.000000	62.000000	5.000000	10.000000
1.640000	23.600000	48.400000	641.000000	0.000000	110.000000	63.000000	5.000000	7.000000
1.650000	23.650000	48.450000	633.000000	0.000000	110.000000	63.000000	5.000000	5.000000
1.660000	23.650000	48.450000	630.000000	0.000000	112.000000	62.000000	0.000000	0.000000
1.670000	23.700000	48.390000	630.000000	0.000000	112.000000	62.000000	5.000000	-6.000000
1.680000	23.700000	48.310000	641.000000	0.000000	112.000000	62.000000	0.000000	-8.000000
1.690000	23.700000	48.220000	641.000000	0.000000	114.000000	62.000000	0.000000	-9.000000
1.700000	23.750000	48.140000	638.000000	0.000000	112.000000	62.000000	5.000000	-8.000000
1.710000	23.750000	48.030000	638.000000	0.000000	112.000000	62.000000	0.000000	-11.000000
1.720000	23.750000	47.940000	631.000000	0.000000	112.000000	62.000000	0.000000	-9.000000
1.730000	23.800000	47.870000	614.000000	0.000000	110.000000	63.000000	5.000000	-7.000000
1.740000	23.850000	47.800000	599.000000	0.000000	110.000000	63.000000	5.000000	-7.000000
1.750000	23.930000	47.800000	589.000000	0.000000	110.000000	63.000000	8.000000	0.000000
1.760000	24.030000	47.800000	566.000000	0.000000	110.000000	63.000000	10.000000	0.000000
1.770000	24.140000	47.870000	565.000000	0.000000	110.000000	63.000000	11.000000	7.000000
1.780000	24.300000	48.020000	564.000000	0.000000	110.000000	63.000000	16.000000	15.000000
1.790000	24.450000	48.240000	565.000000	0.000000	110.000000	63.000000	15.000000	22.000000
1.800000	24.520000	48.340000	569.000000	0.000000	110.000000	63.000000	7.000000	10.000000
1.810000	24.520000	48.410000	591.000000	0.000000	110.000000	63.000000	0.000000	7.000000
1.820000	24.590000	48.410000	600.000000	0.000000	112.000000	62.000000	7.000000	0.000000
1.830000	24.590000	48.360000	603.000000	0.000000	112.000000	62.000000	0.000000	-5.000000
1.840000	24.520000	48.300000	605.000000	0.000000	112.000000	62.000000	-7.000000	-6.000000
1.850000	24.520000	48.240000	602.000000	0.000000	112.000000	62.000000	0.000000	-6.000000
1.860000	24.520000	48.170000	597.000000	0.000000	114.000000	62.000000	0.000000	-7.000000
1.870000	24.470000	48.090000	592.000000	0.000000	112.000000	62.000000	-5.000000	-8.000000
1.880000	24.470000	48.030000	591.000000	0.000000	112.000000	62.000000	0.000000	-6.000000
1.890000	24.470000	47.980000	580.000000	0.000000	112.000000	62.000000	0.000000	-5.000000
1.900000	24.470000	47.980000	560.000000	0.000000	110.000000	63.000000	0.000000	0.000000
1.910000	24.470000	47.910000	522.000000	0.000000	110.000000	63.000000	0.000000	-7.000000
1.920000	24.470000	47.910000	362.000000	0.000000	110.000000	63.000000	0.000000	0.000000
1.930000	24.470000	47.860000	70.000000	0.000000	110.000000	63.000000	0.000000	-5.000000
1.940000	24.470000	47.860000	0.000000	1.000000	110.000000	63.000000	0.000000	0.000000
1.950000	24.470000	47.860000	0.000000	0.000000	108.000000	63.000000	0.000000	0.000000
1.960000	24.470000	47.860000	0.000000	0.000000	108.000000	63.000000	0.000000	0.000000
1.970000	24.470000	47.860000	0.000000	0.000000	108.000000	63.000000	0.000000	0.000000
1.980000	24.470000	47.860000	0.000000	0.000000	108.000000	63.000000	0.000000	0.000000
1.990000	24.470000	47.860000	0.000000	0.000000	108.000000	63.000000	0.000000	0.000000
2.000000	24.470000	47.860000	0.000000	0.000000	107.000000	62.000000	0.000000	0.000000
2.010000	24.780000	48.020000	0.000000	0.000000	107.000000	62.000000	31.000000	16.000000
2.020000	24.840000	47.920000	0.000000	0.000000	107.000000	62.000000	6.000000	-10.000000
2.030000	24.840000	47.800000	0.000000	0.000000	107.000000	62.000000	0.000000	-12.000000
2.040000	24.740000	47.670000	0.000000	0.000000	107.000000	62.000000	-10.000000	-13.000000
2.050000	24.640000	47.560000	0.000000	0.000000	108.000000	63.000000	-10.000000	-11.000000
2.060000	24.550000	47.510000	0.000000	0.000000	110.000000	63.000000	-9.000000	-5.000000
2.070000	24.490000	47.510000	0.000000	0.000000	110.000000	63.000000	-6.000000	0.000000
2.080000	24.430000	47.510000	0.000000	0.000000	110.000000	63.000000	-6.000000	0.000000
2.090000	24.430000	47.440000	0.000000	0.000000	110.000000	63.000000	0.000000	-7.000000
2.100000	24.380000	47.440000	0.000000	0.000000	112.000000	62.000000	-5.000000	0.000000
2.110000	24.380000	47.440000	0.000000	0.000000	110.000000	63.000000	0.000000	0.000000
2.120000	24.380000	47.390000	0.000000	0.000000	110.000000	63.000000	0.000000	-5.000000
2.130000	24.380000	47.390000	0.000000	0.000000	109.000000	62.000000	0.000000	0.000000
2.140000	24.320000	47.390000	0.000000	0.000000	109.000000	62.000000	-6.000000	0.000000
2.150000	24.320000	47.390000	0.000000	0.000000	109.000000	62.000000	0.000000	0.000000
2.160000	24.320000	47.390000	0.000000	0.000000	109.000000	62.000000	0.000000	0.000000
2.170000	24.320000	47.390000	0.000000	0.000000	109.000000	62.000000	0.000000	0.000000
2.180000	24.320000	47.390000	0.000000	0.000000	109.000000	62.000000	0.000000	0.000000
2.190000	24.320000	47.390000	0.000000	0.000000	109.000000	62.000000	0.000000	0.000000
2.200000	24.320000	47.390000	0.000000	0.000000	109.000000	62.000000	0.000000	0.000000
2.210000	24.320000	47.390000	0.000000	0.000000	110.000000	63.000000	0.000000	0.000000
