t	x	y	pressure	penup	azimuth	inclination	v_x	v_y
0.000000	63.200000	77.330000	299.000000	1.000000	160.000000	63.000000	0.000000	0.000000
0.010000	63.620000	75.610000	643.000000	0.000000	159.000000	64.000000	42.000000	-172.000000
0.020000	63.050000	75.030000	691.000000	0.000000	160.000000	65.000000	-57.000000	-58.000000
0.030000	62.060000	74.350000	666.000000	0.000000	162.000000	66.000000	-99.000000	-68.000000
0.040000	61.260000	73.470000	673.000000	0.000000	162.000000	66.000000	-80.000000	-88.000000
0.050000	60.140000	72.890000	725.000000	0.000000	163.000000	67.000000	-112.000000	-58.000000
0.060000	58.810000	72.590000	788.000000	0.000000	162.000000	68.000000	-133.000000	-30.000000
0.070000	57.390000	72.470000	854.000000	0.000000	162.000000	68.000000	-142.000000	-12.000000
0.080000	56.010000	72.730000	869.000000	0.000000	162.000000	68.000000	-138.000000	26.000000
0.090000	55.030000	73.460000	851.000000	0.000000	160.000000	68.000000	-98.000000	73.000000
0.100000	54.290000	74.500000	836.000000	0.000000	160.000000	68.000000	-74.000000	104.000000
0.110000	53.630000	75.940000	846.000000	0.000000	158.000000	67.000000	-66.000000	144.000000
0.120000	53.140000	77.750000	825.000000	0.000000	158.000000	67.000000	-49.000000	181.000000
0.130000	52.770000	79.800000	824.000000	0.000000	155.000000	67.000000	-37.000000	205.000000
0.140000	52.840000	82.110000	832.000000	0.000000	155.000000	67.000000	7.000000	231.000000
0.150000	53.560000	84.130000	825.000000	0.000000	153.000000	67.000000	72.000000	202.000000
0.160000	54.720000	85.970000	842.000000	0.000000	154.000000	66.000000	116.000000	184.000000
0.170000	56.080000	87.400000	852.000000	0.000000	153.000000	67.000000	136.000000	143.000000
0.180000	57.590000	88.330000	846.000000	0.000000	153.000000	67.000000	151.000000	93.000000
0.190000	59.210000	88.920000	843.000000	0.000000	153.000000	67.000000	162.000000	59.000000
0.200000	60.360000	88.920000	843.000000	0.000000	155.000000	67.000000	115.000000	0.000000
0.210000	61.120000	88.470000	857.000000	0.000000	155.000000	67.000000	76.000000	-45.000000
0.220000	61.610000	87.690000	869.000000	0.000000	155.000000	67.000000	49.000000	-78.000000
0.230000	61.820000	86.590000	896.000000	0.000000	158.000000	67.000000	21.000000	-110.000000
0.240000	62.070000	84.930000	951.000000	0.000000	158.000000	67.000000	25.000000	-166.000000
0.250000	62.120000	82.900000	985.000000	0.000000	160.000000	68.000000	5.000000	-203.000000
0.260000	62.020000	81.000000	997.000000	0.000000	160.000000	68.000000	-10.000000	-190.000000
0.270000	61.600000	79.020000	1023.000000	0.000000	160.000000	68.000000	-42.000000	-198.000000
0.280000	61.070000	77.380000	1023.000000	0.000000	160.000000	68.000000	-53.000000	-164.000000
0.290000	60.470000	76.010000	1023.000000	0.000000	160.000000	68.000000	-60.000000	-137.000000
0.300000	59.510000	74.870000	1023.000000	0.000000	162.000000	68.000000	-96.000000	-114.000000
0.310000	58.400000	74.070000	1023.000000	0.000000	162.000000	68.000000	-111.000000	-80.000000
0.320000	57.190000	73.490000	1023.000000	0.000000	162.000000	68.000000	-121.000000	-58.000000
0.330000	56.050000	73.440000	1023.000000	0.000000	162.000000	68.000000	-114.000000	-5.000000
0.340000	54.950000	73.800000	1005.000000	0.000000	162.000000	68.000000	-110.000000	36.000000
0.350000	53.940000	74.440000	983.000000	0.000000	160.000000	68.000000	-101.000000	64.000000
0.360000	53.240000	75.490000	967.000000	0.000000	160.000000	68.000000	-70.000000	105.000000
0.370000	52.730000	76.990000	958.000000	0.000000	158.000000	67.000000	-51.000000	150.000000
0.380000	52.420000	78.790000	989.000000	0.000000	155.000000	67.000000	-31.000000	180.000000
0.390000	52.770000	80.570000	981.000000	0.000000	155.000000	67.000000	35.000000	178.000000
0.400000	53.550000	82.100000	979.000000	0.000000	155.000000	67.000000	78.000000	153.000000
0.410000	54.770000	83.470000	994.000000	0.000000	153.000000	67.000000	122.000000	137.000000
0.420000	55.790000	84.230000	992.000000	0.000000	153.000000	67.000000	102.000000	76.000000
0.430000	56.680000	84.580000	995.000000	0.000000	153.000000	67.000000	89.000000	35.000000
0.440000	57.230000	84.650000	984.000000	0.000000	153.000000	67.000000	55.000000	7.000000
0.450000	57.580000	84.440000	1000.000000	0.000000	155.000000	67.000000	35.000000	-21.000000
0.460000	57.790000	83.950000	1015.000000	0.000000	155.000000	67.000000	21.000000	-49.000000
0.470000	58.080000	83.280000	1023.000000	0.000000	155.000000	67.000000	29.000000	-67.000000
0.480000	58.180000	82.220000	1023.000000	0.000000	155.000000	67.000000	10.000000	-106.000000
0.490000	58.180000	80.950000	1023.000000	0.000000	155.000000	67.000000	0.000000	-127.000000
0.500000	57.760000	79.530000	1023.000000	0.000000	154.000000	68.000000	-42.000000	-142.000000
0.510000	57.370000	78.300000	1023.000000	0.000000	154.000000	68.000000	-39.000000	-123.000000
0.520000	56.990000	77.430000	1023.000000	0.000000	154.000000	68.000000	-38.000000	-87.000000
0.530000	56.790000	76.810000	1023.000000	0.000000	153.000000	69.000000	-20.000000	-62.000000
0.540000	56.740000	76.670000	1023.000000	0.000000	153.000000	69.000000	-5.000000	-14.000000
0.550000	56.740000	76.770000	1023.000000	0.000000	153.000000	69.000000	0.000000	10.000000
0.560000	56.860000	77.040000	1023.000000	0.000000	152.000000	70.000000	12.000000	27.000000
0.570000	57.160000	77.840000	1014.000000	0.000000	152.000000	70.000000	30.000000	80.000000
0.580000	57.610000	79.060000	1006.000000	0.000000	152.000000	70.000000	45.000000	122.000000
0.590000	58.010000	80.550000	991.000000	0.000000	152.000000	70.000000	40.000000	149.000000
0.600000	58.370000	81.880000	994.000000	0.000000	152.000000	70.000000	36.000000	133.000000
0.610000	58.690000	83.180000	993.000000	0.000000	153.000000	69.000000	32.000000	130.000000
0.620000	59.030000	84.020000	991.000000	0.000000	153.000000	69.000000	34.000000	84.000000
0.630000	59.270000	84.570000	994.000000	0.000000	153.000000	69.000000	24.000000	55.000000
0.640000	59.320000	84.570000	1006.000000	0.000000	153.000000	69.000000	5.000000	0.000000
0.650000	59.270000	84.280000	1023.000000	0.000000	153.000000	69.000000	-5.000000	-29.000000
0.660000	59.090000	83.800000	1023.000000	0.000000	156.000000	68.000000	-18.000000	-48.000000
0.670000	58.930000	82.730000	1023.000000	0.000000	156.000000	68.000000	-16.000000	-107.000000
0.680000	58.780000	81.550000	1023.000000	0.000000	156.000000	68.000000	-15.000000	-118.000000
0.690000	58.580000	80.310000	1023.000000	0.000000	155.000000	69.000000	-20.000000	-124.000000
0.700000	58.350000	79.210000	1023.000000	0.000000	155.000000	69.000000	-23.000000	-110.000000
0.710000	58.200000	78.460000	1023.000000	0.000000	155.000000	69.000000	-15.000000	-75.000000
0.720000	58.200000	77.940000	1023.000000	0.000000	155.000000	69.000000	0.000000	-52.000000
0.730000	58.350000	77.840000	1023.000000	0.000000	152.000000	70.000000	15.000000	-10.000000
0.740000	58.450000	77.950000	1023.000000	0.000000	152.000000	70.000000	10.000000	11.000000
0.750000	58.760000	78.190000	1023.000000	0.000000	152.000000	70.000000	31.000000	24.000000
0.760000	59.200000	78.950000	1023.000000	0.000000	149.000000	69.000000	44.000000	76.000000
0.770000	59.760000	80.080000	1018.000000	0.000000	149.000000	69.000000	56.000000	113.000000
0.780000	60.290000	81.450000	1021.000000	0.000000	149.000000	69.000000	53.000000	137.000000
0.790000	60.580000	82.500000	1021.000000	0.000000	152.000000	70.000000	29.000000	105.000000
0.800000	60.730000	83.520000	1023.000000	0.000000	152.000000	70.000000	15.000000	102.000000
0.810000	60.780000	84.180000	1023.000000	0.000000	152.000000	70.000000	5.000000	66.000000
0.820000	60.840000	84.610000	1023.000000	0.000000	152.000000	70.000000	6.000000	43.000000
0.830000	60.840000	84.610000	1023.000000	0.000000	152.000000	70.000000	0.000000	0.000000
0.840000	60.750000	84.290000	1023.000000	0.000000	152.000000	70.000000	-9.000000	-32.000000
0.850000	60.660000	83.850000	1023.000000	0.000000	152.000000	70.000000	-9.000000	-44.000000
0.860000	60.460000	82.990000	1023.000000	0.000000	152.000000	70.000000	-20.000000	-86.000000
0.870000	60.180000	81.990000	1023.000000	0.000000	153.000000	69.000000	-28.000000	-100.000000
0.880000	59.910000	80.910000	1023.000000	0.000000	153.000000	69.000000	-27.000000	-108.000000
0.890000	59.700000	79.920000	1023.000000	0.000000	152.000000	70.000000	-21.000000	-99.000000
0.900000	59.520000	79.370000	1023.000000	0.000000	152.000000	70.000000	-18.000000	-55.000000
0.910000	59.520000	79.110000	1023.000000	0.000000	152.000000	70.000000	0.000000	-26.000000
0.920000	59.610000	79.110000	1023.000000	0.000000	152.000000	70.000000	9.000000	0.000000
0.930000	59.730000	79.230000	1023.000000	0.000000	152.000000	70.000000	12.000000	12.000000
0.940000	60.070000	79.390000	1023.000000	0.000000	152.000000	70.000000	34.000000	16.000000
0.950000	60.570000	79.960000	988.000000	0.000000	152.000000	70.000000	50.000000	57.000000
0.960000	61.240000	80.900000	976.000000	0.000000	152.000000	70.000000	67.000000	94.000000
0.970000	61.910000	82.080000	967.000000	0.000000	152.000000	70.000000	67.000000	118.000000
0.980000	62.440000	83.340000	971.000000	0.000000	150.000000	71.000000	53.000000	126.000000
0.990000	62.870000	84.180000	970.000000	0.000000	150.000000	71.000000	43.000000	84.000000
1.000000	62.990000	84.750000	982.000000	0.000000	150.000000	71.000000	12.000000	57.000000
1.010000	62.990000	84.900000	986.000000	0.000000	148.000000	70.000000	0.000000	15.000000
1.020000	62.940000	84.760000	979.000000	0.000000	148.000000	70.000000	-5.000000	-14.000000
1.030000	62.750000	84.430000	1014.000000	0.000000	148.000000	70.000000	-19.000000	-33.000000
1.040000	62.480000	83.690000	1023.000000	0.000000	148.000000	70.000000	-27.000000	-74.000000
1.050000	62.150000	82.610000	1023.000000	0.000000	152.000000	70.000000	-33.000000	-108.000000
1.060000	61.900000	81.300000	1023.000000	0.000000	152.000000	70.000000	-25.000000	-131.000000
1.070000	61.680000	80.390000	1023.000000	0.000000	152.000000	70.000000	-22.000000	-91.000000
1.080000	61.540000	79.450000	1023.000000	0.000000	152.000000	70.000000	-14.000000	-94.000000
1.090000	61.480000	78.480000	1023.000000	0.000000	152.000000	70.000000	-6.000000	-97.000000
1.100000	61.480000	77.830000	1006.000000	0.000000	150.000000	71.000000	0.000000	-65.000000
1.110000	61.620000	77.730000	996.000000	0.000000	150.000000	71.000000	14.000000	-10.000000
1.120000	61.860000	77.990000	995.000000	0.000000	150.000000	71.000000	24.000000	26.000000
1.130000	62.200000	78.510000	940.000000	0.000000	148.000000	70.000000	34.000000	52.000000
1.140000	62.790000	79.700000	906.000000	0.000000	146.000000	71.000000	59.000000	119.000000
1.150000	63.550000	81.340000	882.000000	0.000000	146.000000	71.000000	76.000000	164.000000
1.160000	64.280000	83.110000	854.000000	0.000000	146.000000	71.000000	73.000000	177.000000
1.170000	64.850000	84.910000	855.000000	0.000000	146.000000	71.000000	57.000000	180.000000
1.180000	65.300000	86.740000	867.000000	0.000000	146.000000	71.000000	45.000000	183.000000
1.190000	65.600000	88.330000	860.000000	0.000000	146.000000	71.000000	30.000000	159.000000
1.200000	65.800000	89.310000	882.000000	0.000000	146.000000	71.000000	20.000000	98.000000
1.210000	65.930000	89.890000	900.000000	0.000000	146.000000	71.000000	13.000000	58.000000
1.220000	65.880000	89.730000	941.000000	0.000000	148.000000	70.000000	-5.000000	-16.000000
1.230000	65.630000	88.540000	994.000000	0.000000	148.000000	70.000000	-25.000000	-119.000000
1.240000	65.240000	86.660000	1008.000000	0.000000	148.000000	70.000000	-39.000000	-188.000000
1.250000	64.840000	83.960000	1005.000000	0.000000	150.000000	71.000000	-40.000000	-270.000000
1.260000	64.470000	80.750000	1006.000000	0.000000	150.000000	71.000000	-37.000000	-321.000000
1.270000	63.990000	77.190000	982.000000	0.000000	150.000000	71.000000	-48.000000	-356.000000
1.280000	63.430000	74.310000	956.000000	0.000000	148.000000	71.000000	-56.000000	-288.000000
1.290000	63.080000	72.400000	824.000000	0.000000	148.000000	71.000000	-35.000000	-191.000000
1.300000	63.080000	71.140000	139.000000	0.000000	147.000000	72.000000	0.000000	-126.000000
1.310000	63.080000	71.140000	0.000000	1.000000	147.000000	72.000000	0.000000	0.000000
1.320000	63.740000	71.660000	0.000000	0.000000	145.000000	73.000000	66.000000	52.000000
1.330000	63.810000	72.940000	0.000000	0.000000	145.000000	73.000000	7.000000	128.000000
1.340000	63.700000	74.510000	0.000000	0.000000	145.000000	73.000000	-11.000000	157.000000
1.350000	63.570000	76.040000	0.000000	0.000000	147.000000	72.000000	-13.000000	153.000000
1.360000	63.440000	77.540000	0.000000	0.000000	148.000000	71.000000	-13.000000	150.000000
1.370000	63.370000	79.220000	0.000000	0.000000	150.000000	71.000000	-7.000000	168.000000
1.380000	63.370000	79.940000	0.000000	0.000000	150.000000	71.000000	0.000000	72.000000
1.390000	63.610000	80.030000	0.000000	0.000000	148.000000	70.000000	24.000000	9.000000
1.400000	63.750000	79.620000	0.000000	0.000000	148.000000	70.000000	14.000000	-41.000000
1.410000	63.750000	79.620000	736.000000	1.000000	146.000000	71.000000	0.000000	0.000000
1.420000	63.960000	78.400000	855.000000	0.000000	143.000000	70.000000	21.000000	-122.000000
1.430000	63.570000	78.060000	860.000000	0.000000	144.000000	72.000000	-39.000000	-34.000000
1.440000	63.480000	78.060000	861.000000	0.000000	142.000000	72.000000	-9.000000	0.000000
1.450000	63.600000	78.280000	878.000000	0.000000	142.000000	72.000000	12.000000	22.000000
1.460000	63.780000	78.390000	909.000000	0.000000	140.000000	73.000000	18.000000	11.000000
1.470000	64.140000	78.720000	892.000000	0.000000	142.000000	72.000000	36.000000	33.000000
1.480000	64.610000	79.190000	899.000000	0.000000	142.000000	72.000000	47.000000	47.000000
1.490000	65.090000	79.950000	900.000000	0.000000	144.000000	72.000000	48.000000	76.000000
1.500000	65.500000	80.700000	899.000000	0.000000	144.000000	72.000000	41.000000	75.000000
1.510000	65.860000	81.430000	902.000000	0.000000	144.000000	72.000000	36.000000	73.000000
1.520000	66.110000	82.180000	906.000000	0.000000	144.000000	72.000000	25.000000	75.000000
1.530000	66.260000	82.730000	918.000000	0.000000	144.000000	72.000000	15.000000	55.000000
1.540000	66.330000	83.180000	948.000000	0.000000	144.000000	72.000000	7.000000	45.000000
1.550000	66.330000	83.230000	974.000000	0.000000	144.000000	72.000000	0.000000	5.000000
1.560000	66.330000	83.230000	1002.000000	0.000000	144.000000	72.000000	0.000000	0.000000
1.570000	66.220000	83.230000	1023.000000	0.000000	147.000000	72.000000	-11.000000	0.000000
1.580000	66.170000	83.140000	1023.000000	0.000000	147.000000	72.000000	-5.000000	-9.000000
1.590000	66.120000	82.670000	1023.000000	0.000000	147.000000	72.000000	-5.000000	-47.000000
1.600000	66.120000	81.960000	1023.000000	0.000000	148.000000	71.000000	0.000000	-71.000000
1.610000	66.040000	81.140000	1023.000000	0.000000	148.000000	71.000000	-8.000000	-82.000000
1.620000	65.990000	80.440000	1023.000000	0.000000	147.000000	72.000000	-5.000000	-70.000000
1.630000	65.990000	79.810000	1023.000000	0.000000	147.000000	72.000000	0.000000	-63.000000
1.640000	66.040000	79.420000	1023.000000	0.000000	147.000000	72.000000	5.000000	-39.000000
1.650000	66.170000	79.190000	1023.000000	0.000000	145.000000	73.000000	13.000000	-23.000000
1.660000	66.330000	79.080000	1023.000000	0.000000	145.000000	73.000000	16.000000	-11.000000
1.670000	66.490000	79.170000	1023.000000	0.000000	145.000000	73.000000	16.000000	9.000000
1.680000	66.700000	79.460000	1023.000000	0.000000	143.000000	74.000000	21.000000	29.000000
1.690000	66.910000	79.890000	1023.000000	0.000000	143.000000	74.000000	21.000000	43.000000
1.700000	67.130000	80.450000	1023.000000	0.000000	143.000000	74.000000	22.000000	56.000000
1.710000	67.340000	80.980000	1023.000000	0.000000	143.000000	74.000000	21.000000	53.000000
1.720000	67.550000	81.460000	1023.000000	0.000000	146.000000	74.000000	21.000000	48.000000
1.730000	67.690000	81.930000	1023.000000	0.000000	146.000000	74.000000	14.000000	47.000000
1.740000	67.770000	82.110000	1023.000000	0.000000	146.000000	74.000000	8.000000	18.000000
1.750000	67.770000	82.110000	1023.000000	0.000000	148.000000	74.000000	0.000000	0.000000
1.760000	67.720000	82.110000	1023.000000	0.000000	148.000000	74.000000	-5.000000	0.000000
1.770000	67.720000	82.040000	1023.000000	0.000000	151.000000	74.000000	0.000000	-7.000000
1.780000	67.670000	82.040000	1023.000000	0.000000	151.000000	74.000000	-5.000000	0.000000
1.790000	67.610000	81.690000	1023.000000	0.000000	151.000000	74.000000	-6.000000	-35.000000
1.800000	67.510000	81.170000	1023.000000	0.000000	152.000000	73.000000	-10.000000	-52.000000
1.810000	67.510000	80.580000	1023.000000	0.000000	152.000000	73.000000	0.000000	-59.000000
1.820000	67.510000	79.950000	1023.000000	0.000000	152.000000	73.000000	0.000000	-63.000000
1.830000	67.600000	79.300000	1023.000000	0.000000	151.000000	74.000000	9.000000	-65.000000
1.840000	67.710000	78.850000	1023.000000	0.000000	151.000000	74.000000	11.000000	-45.000000
1.850000	67.850000	78.680000	1023.000000	0.000000	151.000000	74.000000	14.000000	-17.000000
1.860000	67.990000	78.680000	1020.000000	0.000000	151.000000	74.000000	14.000000	0.000000
1.870000	68.310000	78.900000	997.000000	0.000000	151.000000	74.000000	32.000000	22.000000
1.880000	68.750000	79.480000	974.000000	0.000000	151.000000	74.000000	44.000000	58.000000
1.890000	69.150000	80.310000	976.000000	0.000000	151.000000	74.000000	40.000000	83.000000
1.900000	69.420000	81.120000	982.000000	0.000000	151.000000	74.000000	27.000000	81.000000
1.910000	69.600000	81.810000	994.000000	0.000000	151.000000	74.000000	18.000000	69.000000
1.920000	69.650000	82.260000	1000.000000	0.000000	151.000000	74.000000	5.000000	45.000000
1.930000	69.650000	82.600000	1023.000000	0.000000	151.000000	74.000000	0.000000	34.000000
1.940000	69.550000	82.710000	1023.000000	0.000000	151.000000	74.000000	-10.000000	11.000000
1.950000	69.550000	82.710000	1023.000000	0.000000	151.000000	74.000000	0.000000	0.000000
1.960000	69.500000	82.620000	1023.000000	0.000000	154.000000	74.000000	-5.000000	-9.000000
1.970000	69.500000	82.430000	1023.000000	0.000000	154.000000	74.000000	0.000000	-19.000000
1.980000	69.320000	81.790000	1023.000000	0.000000	154.000000	74.000000	-18.000000	-64.000000
1.990000	69.050000	80.850000	1023.000000	0.000000	154.000000	74.000000	-27.000000	-94.000000
2.000000	68.850000	80.030000	1023.000000	0.000000	154.000000	74.000000	-20.000000	-82.000000
2.010000	68.850000	79.440000	1023.000000	0.000000	154.000000	74.000000	0.000000	-59.000000
2.020000	68.940000	79.000000	1023.000000	0.000000	154.000000	74.000000	9.000000	-44.000000
2.030000	69.090000	79.000000	992.000000	0.000000	154.000000	74.000000	15.000000	0.000000
2.040000	69.300000	79.070000	932.000000	0.000000	154.000000	74.000000	21.000000	7.000000
2.050000	69.680000	79.270000	854.000000	0.000000	154.000000	74.000000	38.000000	20.000000
2.060000	70.150000	79.780000	751.000000	0.000000	154.000000	74.000000	47.000000	51.000000
2.070000	70.580000	80.290000	733.000000	0.000000	154.000000	74.000000	43.000000	51.000000
2.080000	70.910000	80.800000	757.000000	0.000000	154.000000	74.000000	33.000000	51.000000
2.090000	71.170000	81.010000	787.000000	0.000000	152.000000	75.000000	26.000000	21.000000
2.100000	71.290000	81.010000	827.000000	0.000000	152.000000	75.000000	12.000000	0.000000
2.110000	71.290000	80.910000	861.000000	0.000000	152.000000	75.000000	0.000000	-10.000000
2.120000	71.290000	80.640000	902.000000	0.000000	150.000000	76.000000	0.000000	-27.000000
2.130000	71.380000	80.320000	908.000000	0.000000	150.000000	76.000000	9.000000	-32.000000
2.140000	71.450000	80.010000	921.000000	0.000000	150.000000	76.000000	7.000000	-31.000000
2.150000	71.540000	79.720000	905.000000	0.000000	150.000000	76.000000	9.000000	-29.000000
2.160000	71.640000	79.720000	892.000000	0.000000	150.000000	76.000000	10.000000	0.000000
2.170000	71.770000	79.720000	908.000000	0.000000	150.000000	76.000000	13.000000	0.000000
