t	x	y	pressure	penup	azimuth	inclination	v_x	v_y
0.000000	17.280000	79.990000	131.000000	1.000000	102.000000	60.000000	0.000000	0.000000
0.010000	17.280000	79.990000	247.000000	0.000000	102.000000	60.000000	0.000000	0.000000
0.020000	17.180000	79.720000	314.000000	0.000000	105.000000	61.000000	-10.000000	-27.000000
0.030000	16.990000	79.630000	366.000000	0.000000	107.000000	61.000000	-19.000000	-9.000000
0.040000	16.770000	79.550000	460.000000	0.000000	107.000000	62.000000	-22.000000	-8.000000
0.050000	16.560000	79.450000	483.000000	0.000000	107.000000	62.000000	-21.000000	-10.000000
0.060000	16.320000	79.350000	540.000000	0.000000	109.000000	62.000000	-24.000000	-10.000000
0.070000	16.060000	79.350000	586.000000	0.000000	109.000000	62.000000	-26.000000	0.000000
0.080000	15.830000	79.350000	624.000000	0.000000	109.000000	62.000000	-23.000000	0.000000
0.090000	15.530000	79.410000	644.000000	0.000000	109.000000	62.000000	-30.000000	6.000000
0.100000	15.180000	79.510000	691.000000	0.000000	108.000000	61.000000	-35.000000	10.000000
0.110000	14.810000	79.630000	724.000000	0.000000	108.000000	61.000000	-37.000000	12.000000
0.120000	14.430000	79.850000	725.000000	0.000000	108.000000	61.000000	-38.000000	22.000000
0.130000	14.030000	80.140000	750.000000	0.000000	110.000000	60.000000	-40.000000	29.000000
0.140000	13.680000	80.470000	753.000000	0.000000	110.000000	60.000000	-35.000000	33.000000
0.150000	13.370000	80.900000	757.000000	0.000000	110.000000	60.000000	-31.000000	43.000000
0.160000	13.140000	81.390000	756.000000	0.000000	109.000000	60.000000	-23.000000	49.000000
0.170000	12.960000	81.910000	761.000000	0.000000	109.000000	60.000000	-18.000000	52.000000
0.180000	12.960000	82.610000	755.000000	0.000000	110.000000	58.000000	0.000000	70.000000
0.190000	13.050000	83.460000	751.000000	0.000000	110.000000	58.000000	9.000000	85.000000
0.200000	13.280000	84.420000	748.000000	0.000000	110.000000	58.000000	23.000000	96.000000
0.210000	13.510000	85.270000	737.000000	0.000000	109.000000	57.000000	23.000000	85.000000
0.220000	13.750000	86.090000	737.000000	0.000000	109.000000	57.000000	24.000000	82.000000
0.230000	14.000000	86.760000	737.000000	0.000000	110.000000	58.000000	25.000000	67.000000
0.240000	14.280000	87.340000	722.000000	0.000000	110.000000	58.000000	28.000000	58.000000
0.250000	14.610000	87.910000	725.000000	0.000000	110.000000	58.000000	33.000000	57.000000
0.260000	14.990000	88.340000	711.000000	0.000000	111.000000	59.000000	38.000000	43.000000
0.270000	15.450000	88.670000	697.000000	0.000000	111.000000	59.000000	46.000000	33.000000
0.280000	16.000000	88.890000	678.000000	0.000000	112.000000	60.000000	55.000000	22.000000
0.290000	16.620000	89.090000	659.000000	0.000000	112.000000	60.000000	62.000000	20.000000
0.300000	17.270000	89.240000	637.000000	0.000000	113.000000	61.000000	65.000000	15.000000
0.310000	17.900000	89.350000	624.000000	0.000000	115.000000	62.000000	63.000000	11.000000
0.320000	18.430000	89.350000	619.000000	0.000000	117.000000	61.000000	53.000000	0.000000
0.330000	18.910000	89.240000	611.000000	0.000000	118.000000	62.000000	48.000000	-11.000000
0.340000	19.270000	89.010000	602.000000	0.000000	118.000000	62.000000	36.000000	-23.000000
0.350000	19.550000	88.750000	595.000000	0.000000	120.000000	62.000000	28.000000	-26.000000
0.360000	19.780000	88.300000	597.000000	0.000000	118.000000	62.000000	23.000000	-45.000000
0.370000	19.910000	87.730000	603.000000	0.000000	118.000000	62.000000	13.000000	-57.000000
0.380000	20.000000	87.180000	606.000000	0.000000	118.000000	62.000000	9.000000	-55.000000
0.390000	20.070000	86.630000	613.000000	0.000000	116.000000	63.000000	7.000000	-55.000000
0.400000	20.130000	86.030000	613.000000	0.000000	116.000000	63.000000	6.000000	-60.000000
0.410000	20.130000	85.380000	627.000000	0.000000	115.000000	63.000000	0.000000	-65.000000
0.420000	20.080000	84.680000	639.000000	0.000000	114.000000	62.000000	-5.000000	-70.000000
0.430000	19.850000	83.880000	643.000000	0.000000	114.000000	62.000000	-23.000000	-80.000000
0.440000	19.540000	83.010000	664.000000	0.000000	114.000000	62.000000	-31.000000	-87.000000
0.450000	19.180000	82.200000	673.000000	0.000000	114.000000	62.000000	-36.000000	-81.000000
0.460000	18.720000	81.430000	673.000000	0.000000	113.000000	61.000000	-46.000000	-77.000000
0.470000	18.260000	80.690000	667.000000	0.000000	113.000000	61.000000	-46.000000	-74.000000
0.480000	17.830000	80.100000	676.000000	0.000000	113.000000	61.000000	-43.000000	-59.000000
0.490000	17.410000	79.670000	682.000000	0.000000	113.000000	61.000000	-42.000000	-43.000000
0.500000	17.100000	79.340000	688.000000	0.000000	113.000000	61.000000	-31.000000	-33.000000
0.510000	16.790000	79.110000	696.000000	0.000000	112.000000	60.000000	-31.000000	-23.000000
0.520000	16.420000	78.950000	693.000000	0.000000	112.000000	60.000000	-37.000000	-16.000000
0.530000	16.000000	78.840000	690.000000	0.000000	112.000000	60.000000	-42.000000	-11.000000
0.540000	15.620000	78.750000	691.000000	0.000000	112.000000	60.000000	-38.000000	-9.000000
0.550000	15.250000	78.750000	705.000000	0.000000	111.000000	59.000000	-37.000000	0.000000
0.560000	14.930000	78.750000	705.000000	0.000000	111.000000	59.000000	-32.000000	0.000000
0.570000	14.650000	79.010000	705.000000	0.000000	111.000000	59.000000	-28.000000	26.000000
0.580000	14.410000	79.340000	719.000000	0.000000	111.000000	59.000000	-24.000000	33.000000
0.590000	14.250000	79.720000	717.000000	0.000000	111.000000	59.000000	-16.000000	38.000000
0.600000	14.190000	80.320000	722.000000	0.000000	111.000000	59.000000	-6.000000	60.000000
0.610000	14.190000	80.910000	722.000000	0.000000	111.000000	59.000000	0.000000	59.000000
0.620000	14.280000	81.490000	719.000000	0.000000	111.000000	59.000000	9.000000	58.000000
0.630000	14.430000	82.100000	719.000000	0.000000	111.000000	59.000000	15.000000	61.000000
0.640000	14.650000	82.730000	717.000000	0.000000	111.000000	59.000000	22.000000	63.000000
0.650000	14.910000	83.330000	716.000000	0.000000	111.000000	59.000000	26.000000	60.000000
0.660000	15.170000	83.930000	707.000000	0.000000	112.000000	60.000000	26.000000	60.000000
0.670000	15.450000	84.500000	703.000000	0.000000	112.000000	60.000000	28.000000	57.000000
0.680000	15.680000	85.040000	700.000000	0.000000	112.000000	60.000000	23.000000	54.000000
0.690000	15.880000	85.490000	700.000000	0.000000	113.000000	61.000000	20.000000	45.000000
0.700000	16.000000	85.810000	699.000000	0.000000	111.000000	61.000000	12.000000	32.000000
0.710000	16.100000	86.050000	699.000000	0.000000	111.000000	61.000000	10.000000	24.000000
0.720000	16.190000	86.160000	696.000000	0.000000	111.000000	61.000000	9.000000	11.000000
0.730000	16.270000	86.220000	688.000000	0.000000	111.000000	61.000000	8.000000	6.000000
0.740000	16.370000	86.220000	669.000000	0.000000	111.000000	61.000000	10.000000	0.000000
0.750000	16.500000	86.170000	655.000000	0.000000	111.000000	61.000000	13.000000	-5.000000
0.760000	16.670000	86.120000	652.000000	0.000000	111.000000	61.000000	17.000000	-5.000000
0.770000	16.830000	86.030000	646.000000	0.000000	110.000000	60.000000	16.000000	-9.000000
0.780000	16.950000	85.880000	640.000000	0.000000	111.000000	61.000000	12.000000	-15.000000
0.790000	17.050000	85.690000	638.000000	0.000000	111.000000	61.000000	10.000000	-19.000000
0.800000	17.160000	85.490000	638.000000	0.000000	111.000000	61.000000	11.000000	-20.000000
0.810000	17.240000	85.230000	645.000000	0.000000	111.000000	61.000000	8.000000	-26.000000
0.820000	17.310000	84.830000	642.000000	0.000000	112.000000	62.000000	7.000000	-40.000000
0.830000	17.260000	84.370000	642.000000	0.000000	112.000000	62.000000	-5.000000	-46.000000
0.840000	17.210000	83.800000	645.000000	0.000000	112.000000	62.000000	-5.000000	-57.000000
0.850000	17.210000	83.320000	641.000000	0.000000	114.000000	62.000000	0.000000	-48.000000
0.860000	17.140000	82.900000	639.000000	0.000000	113.000000	61.000000	-7.000000	-42.000000
0.870000	17.140000	82.500000	639.000000	0.000000	113.000000	61.000000	0.000000	-40.000000
0.880000	17.040000	82.260000	628.000000	0.000000	113.000000	61.000000	-10.000000	-24.000000
0.890000	16.980000	82.120000	625.000000	0.000000	114.000000	61.000000	-6.000000	-14.000000
0.900000	16.980000	82.120000	627.000000	0.000000	113.000000	60.000000	0.000000	0.000000
0.910000	16.980000	82.050000	624.000000	0.000000	113.000000	60.000000	0.000000	-7.000000
0.920000	16.980000	82.050000	610.000000	0.000000	113.000000	60.000000	0.000000	0.000000
0.930000	16.980000	82.150000	616.000000	0.000000	113.000000	59.000000	0.000000	10.000000
0.940000	16.980000	82.280000	613.000000	0.000000	113.000000	59.000000	0.000000	13.000000
0.950000	17.100000	82.630000	602.000000	0.000000	113.000000	59.000000	12.000000	35.000000
0.960000	17.250000	83.120000	608.000000	0.000000	113.000000	60.000000	15.000000	49.000000
0.970000	17.460000	83.660000	609.000000	0.000000	113.000000	60.000000	21.000000	54.000000
0.980000	17.760000	84.200000	611.000000	0.000000	113.000000	60.000000	30.000000	54.000000
0.990000	18.020000	84.750000	610.000000	0.000000	114.000000	61.000000	26.000000	55.000000
1.000000	18.240000	84.950000	619.000000	0.000000	114.000000	61.000000	22.000000	20.000000
1.010000	18.340000	85.000000	619.000000	0.000000	114.000000	61.000000	10.000000	5.000000
1.020000	18.340000	85.000000	631.000000	0.000000	115.000000	62.000000	0.000000	0.000000
1.030000	18.470000	84.720000	633.000000	0.000000	115.000000	62.000000	13.000000	-28.000000
1.040000	18.470000	84.350000	634.000000	0.000000	115.000000	62.000000	0.000000	-37.000000
1.050000	18.470000	83.890000	630.000000	0.000000	115.000000	62.000000	0.000000	-46.000000
1.060000	18.530000	83.500000	628.000000	0.000000	115.000000	62.000000	6.000000	-39.000000
1.070000	18.530000	83.150000	622.000000	0.000000	115.000000	62.000000	0.000000	-35.000000
1.080000	18.580000	82.830000	619.000000	0.000000	115.000000	62.000000	5.000000	-32.000000
1.090000	18.580000	82.590000	610.000000	0.000000	115.000000	62.000000	0.000000	-24.000000
1.100000	18.580000	82.440000	620.000000	0.000000	115.000000	62.000000	0.000000	-15.000000
1.110000	18.580000	82.350000	616.000000	0.000000	114.000000	61.000000	0.000000	-9.000000
1.120000	18.580000	82.350000	609.000000	0.000000	114.000000	61.000000	0.000000	0.000000
1.130000	18.580000	82.440000	602.000000	0.000000	114.000000	61.000000	0.000000	9.000000
1.140000	18.650000	82.580000	600.000000	0.000000	114.000000	61.000000	7.000000	14.000000
1.150000	18.790000	82.880000	597.000000	0.000000	114.000000	61.000000	14.000000	30.000000
1.160000	18.980000	83.240000	600.000000	0.000000	114.000000	61.000000	19.000000	36.000000
1.170000	19.210000	83.630000	602.000000	0.000000	114.000000	61.000000	23.000000	39.000000
1.180000	19.420000	84.020000	606.000000	0.000000	114.000000	61.000000	21.000000	39.000000
1.190000	19.620000	84.330000	613.000000	0.000000	114.000000	61.000000	20.000000	31.000000
1.200000	19.750000	84.470000	620.000000	0.000000	114.000000	61.000000	13.000000	14.000000
1.210000	19.840000	84.470000	617.000000	0.000000	114.000000	61.000000	9.000000	0.000000
1.220000	19.840000	84.470000	617.000000	0.000000	114.000000	61.000000	0.000000	0.000000
1.230000	19.840000	84.330000	620.000000	0.000000	114.000000	61.000000	0.000000	-14.000000
1.240000	19.930000	84.080000	613.000000	0.000000	114.000000	61.000000	9.000000	-25.000000
1.250000	19.930000	83.750000	611.000000	0.000000	114.000000	61.000000	0.000000	-33.000000
1.260000	19.930000	83.450000	600.000000	0.000000	114.000000	61.000000	0.000000	-30.000000
1.270000	19.930000	83.150000	586.000000	0.000000	113.000000	60.000000	0.000000	-30.000000
1.280000	20.020000	82.950000	594.000000	0.000000	113.000000	60.000000	9.000000	-20.000000
1.290000	20.080000	82.810000	580.000000	0.000000	113.000000	60.000000	6.000000	-14.000000
1.300000	20.170000	82.730000	567.000000	0.000000	113.000000	60.000000	9.000000	-8.000000
1.310000	20.260000	82.730000	565.000000	0.000000	115.000000	60.000000	9.000000	0.000000
1.320000	20.330000	82.730000	564.000000	0.000000	114.000000	59.000000	7.000000	0.000000
1.330000	20.430000	82.910000	565.000000	0.000000	114.000000	59.000000	10.000000	18.000000
1.340000	20.590000	83.170000	565.000000	0.000000	114.000000	59.000000	16.000000	26.000000
1.350000	20.770000	83.510000	564.000000	0.000000	114.000000	59.000000	18.000000	34.000000
1.360000	20.960000	83.730000	561.000000	0.000000	114.000000	59.000000	19.000000	22.000000
1.370000	21.040000	83.890000	561.000000	0.000000	113.000000	59.000000	8.000000	16.000000
1.380000	21.040000	83.950000	561.000000	0.000000	113.000000	59.000000	0.000000	6.000000
1.390000	21.040000	83.950000	559.000000	0.000000	113.000000	59.000000	0.000000	0.000000
1.400000	20.980000	83.810000	556.000000	0.000000	113.000000	59.000000	-6.000000	-14.000000
1.410000	20.920000	83.660000	559.000000	0.000000	113.000000	59.000000	-6.000000	-15.000000
1.420000	20.920000	83.510000	564.000000	0.000000	113.000000	59.000000	0.000000	-15.000000
1.430000	20.920000	83.330000	562.000000	0.000000	113.000000	59.000000	0.000000	-18.000000
1.440000	21.040000	83.160000	562.000000	0.000000	113.000000	59.000000	12.000000	-17.000000
1.450000	21.180000	83.050000	556.000000	0.000000	113.000000	59.000000	14.000000	-11.000000
1.460000	21.340000	82.990000	551.000000	0.000000	113.000000	59.000000	16.000000	-6.000000
1.470000	21.540000	82.920000	551.000000	0.000000	113.000000	59.000000	20.000000	-7.000000
1.480000	21.760000	82.970000	545.000000	0.000000	113.000000	59.000000	22.000000	5.000000
1.490000	22.020000	83.110000	546.000000	0.000000	113.000000	58.000000	26.000000	14.000000
1.500000	22.240000	83.320000	548.000000	0.000000	113.000000	58.000000	22.000000	21.000000
1.510000	22.450000	83.660000	546.000000	0.000000	112.000000	58.000000	21.000000	34.000000
1.520000	22.640000	84.100000	546.000000	0.000000	113.000000	59.000000	19.000000	44.000000
1.530000	22.840000	84.680000	543.000000	0.000000	113.000000	59.000000	20.000000	58.000000
1.540000	23.020000	85.250000	548.000000	0.000000	113.000000	59.000000	18.000000	57.000000
1.550000	23.140000	85.830000	551.000000	0.000000	112.000000	60.000000	12.000000	58.000000
1.560000	23.240000	86.410000	553.000000	0.000000	112.000000	60.000000	10.000000	58.000000
1.570000	23.240000	86.930000	567.000000	0.000000	112.000000	60.000000	0.000000	52.000000
1.580000	23.240000	87.310000	564.000000	0.000000	111.000000	61.000000	0.000000	38.000000
1.590000	23.240000	87.610000	586.000000	0.000000	111.000000	61.000000	0.000000	30.000000
1.600000	23.140000	87.690000	617.000000	0.000000	111.000000	61.000000	-10.000000	8.000000
1.610000	23.140000	87.690000	620.000000	0.000000	111.000000	61.000000	0.000000	0.000000
1.620000	23.140000	87.690000	613.000000	0.000000	111.000000	61.000000	0.000000	0.000000
1.630000	23.140000	87.690000	610.000000	0.000000	111.000000	61.000000	0.000000	0.000000
1.640000	23.080000	87.160000	611.000000	0.000000	111.000000	61.000000	-6.000000	-53.000000
1.650000	22.980000	86.720000	619.000000	0.000000	111.000000	61.000000	-10.000000	-44.000000
1.660000	22.880000	86.220000	636.000000	0.000000	111.000000	61.000000	-10.000000	-50.000000
1.670000	22.800000	85.620000	666.000000	0.000000	111.000000	61.000000	-8.000000	-60.000000
1.680000	22.800000	84.840000	696.000000	0.000000	111.000000	61.000000	0.000000	-78.000000
1.690000	22.800000	83.960000	703.000000	0.000000	111.000000	61.000000	0.000000	-88.000000
1.700000	22.800000	83.040000	710.000000	0.000000	111.000000	61.000000	0.000000	-92.000000
1.710000	22.750000	82.120000	717.000000	0.000000	113.000000	61.000000	-5.000000	-92.000000
1.720000	22.700000	81.170000	721.000000	0.000000	113.000000	61.000000	-5.000000	-95.000000
1.730000	22.630000	80.290000	722.000000	0.000000	113.000000	61.000000	-7.000000	-88.000000
1.740000	22.550000	79.450000	724.000000	0.000000	113.000000	61.000000	-8.000000	-84.000000
1.750000	22.430000	78.650000	725.000000	0.000000	113.000000	61.000000	-12.000000	-80.000000
1.760000	22.290000	78.090000	725.000000	0.000000	113.000000	61.000000	-14.000000	-56.000000
1.770000	22.150000	77.690000	728.000000	0.000000	111.000000	61.000000	-14.000000	-40.000000
1.780000	22.040000	77.540000	720.000000	0.000000	111.000000	61.000000	-11.000000	-15.000000
1.790000	21.980000	77.490000	728.000000	0.000000	111.000000	61.000000	-6.000000	-5.000000
1.800000	21.980000	77.490000	740.000000	0.000000	109.000000	62.000000	0.000000	0.000000
1.810000	21.910000	77.490000	742.000000	0.000000	109.000000	62.000000	-7.000000	0.000000
1.820000	21.910000	77.490000	740.000000	0.000000	109.000000	62.000000	0.000000	0.000000
1.830000	21.910000	77.560000	728.000000	0.000000	109.000000	62.000000	0.000000	7.000000
1.840000	21.910000	77.610000	730.000000	0.000000	109.000000	62.000000	0.000000	5.000000
1.850000	21.850000	77.750000	719.000000	0.000000	109.000000	62.000000	-6.000000	14.000000
1.860000	21.850000	77.940000	713.000000	0.000000	109.000000	62.000000	0.000000	19.000000
1.870000	21.920000	78.370000	714.000000	0.000000	109.000000	62.000000	7.000000	43.000000
1.880000	22.150000	78.960000	717.000000	0.000000	108.000000	61.000000	23.000000	59.000000
1.890000	22.460000	79.670000	708.000000	0.000000	108.000000	61.000000	31.000000	71.000000
1.900000	22.770000	80.450000	703.000000	0.000000	108.000000	61.000000	31.000000	78.000000
1.910000	23.070000	81.090000	696.000000	0.000000	108.000000	61.000000	30.000000	64.000000
1.920000	23.340000	81.650000	664.000000	0.000000	110.000000	60.000000	27.000000	56.000000
1.930000	23.500000	82.080000	565.000000	0.000000	111.000000	61.000000	16.000000	43.000000
1.940000	23.590000	82.330000	262.000000	0.000000	111.000000	61.000000	9.000000	25.000000
1.950000	23.590000	82.330000	0.000000	1.000000	113.000000	61.000000	0.000000	0.000000
1.960000	23.590000	82.470000	0.000000	0.000000	113.000000	61.000000	0.000000	14.000000
1.970000	23.540000	82.280000	0.000000	0.000000	113.000000	61.000000	-5.000000	-19.000000
1.980000	23.410000	82.060000	0.000000	0.000000	113.000000	61.000000	-13.000000	-22.000000
1.990000	23.410000	81.920000	0.000000	0.000000	111.000000	61.000000	0.000000	-14.000000
2.000000	23.630000	81.860000	0.000000	0.000000	110.000000	60.000000	22.000000	-6.000000
2.010000	23.970000	81.860000	0.000000	0.000000	110.000000	60.000000	34.000000	0.000000
2.020000	24.420000	81.860000	0.000000	0.000000	108.000000	61.000000	45.000000	0.000000
2.030000	24.860000	81.860000	0.000000	0.000000	107.000000	62.000000	44.000000	0.000000
2.040000	25.300000	81.860000	0.000000	0.000000	105.000000	62.000000	44.000000	0.000000
2.050000	25.370000	81.810000	0.000000	0.000000	106.000000	63.000000	7.000000	-5.000000
2.060000	25.560000	81.810000	0.000000	0.000000	105.000000	64.000000	19.000000	0.000000
2.070000	25.840000	81.810000	0.000000	0.000000	105.000000	65.000000	28.000000	0.000000
2.080000	26.150000	81.980000	0.000000	0.000000	103.000000	65.000000	31.000000	17.000000
2.090000	26.380000	81.980000	0.000000	0.000000	103.000000	64.000000	23.000000	0.000000
2.100000	26.700000	81.980000	0.000000	0.000000	102.000000	63.000000	32.000000	0.000000
2.110000	27.100000	82.050000	0.000000	0.000000	102.000000	63.000000	40.000000	7.000000
2.120000	27.200000	81.970000	0.000000	0.000000	101.000000	61.000000	10.000000	-8.000000
2.130000	27.200000	81.840000	0.000000	0.000000	102.000000	59.000000	0.000000	-13.000000
2.140000	27.020000	81.630000	0.000000	0.000000	101.000000	58.000000	-18.000000	-21.000000
2.150000	26.800000	81.350000	0.000000	0.000000	101.000000	57.000000	-22.000000	-28.000000
2.160000	26.590000	81.110000	0.000000	0.000000	102.000000	55.000000	-21.000000	-24.000000
2.170000	26.380000	80.900000	0.000000	0.000000	102.000000	56.000000	-21.000000	-21.000000
2.180000	26.110000	80.760000	0.000000	0.000000	103.000000	57.000000	-27.000000	-14.000000
2.190000	25.880000	80.670000	0.000000	0.000000	105.000000	59.000000	-23.000000	-9.000000
2.200000	25.640000	80.610000	0.000000	0.000000	106.000000	60.000000	-24.000000	-6.000000
2.210000	25.390000	80.560000	0.000000	0.000000	107.000000	62.000000	-25.000000	-5.000000
