t	x	y	pressure	penup	azimuth	inclination	v_x	v_y
0.000000	64.270000	10.470000	110.000000	1.000000	117.000000	63.000000	0.000000	0.000000
0.010000	64.270000	10.470000	180.000000	0.000000	117.000000	63.000000	0.000000	0.000000
0.020000	64.270000	10.470000	239.000000	0.000000	117.000000	63.000000	0.000000	0.000000
0.030000	64.270000	10.470000	315.000000	0.000000	116.000000	64.000000	0.000000	0.000000
0.040000	64.270000	10.470000	391.000000	0.000000	116.000000	64.000000	0.000000	0.000000
0.050000	64.270000	10.470000	443.000000	0.000000	114.000000	64.000000	0.000000	0.000000
0.060000	64.270000	10.470000	501.000000	0.000000	114.000000	64.000000	0.000000	0.000000
0.070000	64.270000	10.470000	538.000000	0.000000	114.000000	64.000000	0.000000	0.000000
0.080000	64.620000	10.870000	592.000000	0.000000	114.000000	64.000000	35.000000	40.000000
0.090000	64.790000	11.210000	613.000000	0.000000	114.000000	64.000000	17.000000	34.000000
0.100000	65.070000	11.870000	625.000000	0.000000	114.000000	64.000000	28.000000	66.000000
0.110000	65.500000	12.750000	638.000000	0.000000	114.000000	64.000000	43.000000	88.000000
0.120000	66.010000	13.840000	638.000000	0.000000	114.000000	64.000000	51.000000	109.000000
0.130000	66.530000	15.170000	630.000000	0.000000	115.000000	65.000000	52.000000	133.000000
0.140000	67.080000	16.660000	619.000000	0.000000	117.000000	65.000000	55.000000	149.000000
0.150000	67.670000	18.350000	619.000000	0.000000	120.000000	64.000000	59.000000	169.000000
0.160000	68.250000	19.680000	638.000000	0.000000	122.000000	63.000000	58.000000	133.000000
0.170000	68.570000	20.760000	637.000000	0.000000	126.000000	62.000000	32.000000	108.000000
0.180000	68.720000	21.420000	668.000000	0.000000	127.000000	62.000000	15.000000	66.000000
0.190000	68.720000	21.810000	682.000000	0.000000	131.000000	61.000000	0.000000	39.000000
0.200000	68.720000	22.020000	702.000000	0.000000	132.000000	60.000000	0.000000	21.000000
0.210000	68.660000	22.020000	696.000000	0.000000	134.000000	60.000000	-6.000000	0.000000
0.220000	68.660000	22.020000	687.000000	0.000000	135.000000	59.000000	0.000000	0.000000
0.230000	68.660000	21.900000	691.000000	0.000000	134.000000	58.000000	0.000000	-12.000000
0.240000	68.660000	21.410000	696.000000	0.000000	134.000000	58.000000	0.000000	-49.000000
0.250000	68.490000	20.660000	699.000000	0.000000	135.000000	58.000000	-17.000000	-75.000000
0.260000	68.290000	19.380000	694.000000	0.000000	134.000000	58.000000	-20.000000	-128.000000
0.270000	68.130000	17.630000	708.000000	0.000000	134.000000	58.000000	-16.000000	-175.000000
0.280000	67.980000	15.580000	719.000000	0.000000	132.000000	59.000000	-15.000000	-205.000000
0.290000	67.850000	13.610000	725.000000	0.000000	131.000000	60.000000	-13.000000	-197.000000
0.300000	68.020000	12.090000	725.000000	0.000000	131.000000	61.000000	17.000000	-152.000000
0.310000	68.370000	10.870000	727.000000	0.000000	129.000000	61.000000	35.000000	-122.000000
0.320000	68.970000	10.260000	730.000000	0.000000	126.000000	62.000000	60.000000	-61.000000
0.330000	69.580000	10.080000	727.000000	0.000000	125.000000	64.000000	61.000000	-18.000000
0.340000	70.170000	10.180000	739.000000	0.000000	123.000000	65.000000	59.000000	10.000000
0.350000	70.730000	10.690000	746.000000	0.000000	121.000000	66.000000	56.000000	51.000000
0.360000	71.360000	11.690000	751.000000	0.000000	120.000000	67.000000	63.000000	100.000000
0.370000	71.960000	13.010000	755.000000	0.000000	118.000000	68.000000	60.000000	132.000000
0.380000	72.310000	14.300000	739.000000	0.000000	118.000000	68.000000	35.000000	129.000000
0.390000	72.510000	15.960000	702.000000	0.000000	120.000000	67.000000	20.000000	166.000000
0.400000	72.510000	17.870000	663.000000	0.000000	124.000000	66.000000	0.000000	191.000000
0.410000	72.510000	19.650000	667.000000	0.000000	125.000000	65.000000	0.000000	178.000000
0.420000	72.380000	20.700000	667.000000	0.000000	129.000000	64.000000	-13.000000	105.000000
0.430000	72.180000	21.270000	659.000000	0.000000	132.000000	63.000000	-20.000000	57.000000
0.440000	71.940000	21.400000	527.000000	0.000000	133.000000	62.000000	-24.000000	13.000000
0.450000	71.660000	21.260000	195.000000	0.000000	135.000000	60.000000	-28.000000	-14.000000
0.460000	71.660000	21.260000	0.000000	1.000000	136.000000	60.000000	0.000000	0.000000
0.470000	71.420000	20.460000	0.000000	0.000000	138.000000	59.000000	-24.000000	-80.000000
0.480000	71.470000	19.990000	0.000000	0.000000	136.000000	58.000000	5.000000	-47.000000
0.490000	71.700000	19.530000	0.000000	0.000000	136.000000	58.000000	23.000000	-46.000000
0.500000	71.970000	18.690000	0.000000	0.000000	136.000000	58.000000	27.000000	-84.000000
0.510000	72.310000	17.790000	0.000000	0.000000	135.000000	59.000000	34.000000	-90.000000
0.520000	72.680000	16.630000	0.000000	0.000000	134.000000	58.000000	37.000000	-116.000000
0.530000	73.090000	15.330000	0.000000	0.000000	134.000000	58.000000	41.000000	-130.000000
0.540000	73.440000	14.120000	0.000000	0.000000	135.000000	58.000000	35.000000	-121.000000
0.550000	73.750000	13.070000	0.000000	0.000000	134.000000	57.000000	31.000000	-105.000000
0.560000	74.100000	12.120000	0.000000	0.000000	134.000000	57.000000	35.000000	-95.000000
0.570000	74.230000	11.440000	0.000000	0.000000	134.000000	57.000000	13.000000	-68.000000
0.580000	74.230000	11.120000	0.000000	0.000000	135.000000	58.000000	0.000000	-32.000000
0.590000	74.100000	11.030000	0.000000	0.000000	134.000000	58.000000	-13.000000	-9.000000
0.600000	74.000000	11.170000	0.000000	0.000000	132.000000	59.000000	-10.000000	14.000000
0.610000	73.900000	11.460000	0.000000	0.000000	131.000000	60.000000	-10.000000	29.000000
0.620000	73.800000	11.840000	0.000000	0.000000	129.000000	60.000000	-10.000000	38.000000
0.630000	73.710000	12.240000	0.000000	0.000000	128.000000	61.000000	-9.000000	40.000000
0.640000	73.650000	12.620000	0.000000	0.000000	128.000000	61.000000	-6.000000	38.000000
0.650000	73.580000	12.950000	0.000000	0.000000	128.000000	61.000000	-7.000000	33.000000
0.660000	73.530000	13.230000	0.000000	0.000000	128.000000	61.000000	-5.000000	28.000000
0.670000	73.530000	13.470000	0.000000	0.000000	128.000000	61.000000	0.000000	24.000000
0.680000	73.530000	13.640000	0.000000	0.000000	128.000000	61.000000	0.000000	17.000000
0.690000	73.530000	13.740000	0.000000	0.000000	128.000000	61.000000	0.000000	10.000000
0.700000	73.700000	13.820000	0.000000	0.000000	128.000000	61.000000	17.000000	8.000000
0.710000	73.700000	13.820000	88.000000	1.000000	128.000000	61.000000	0.000000	0.000000
0.720000	74.000000	13.890000	183.000000	0.000000	128.000000	61.000000	30.000000	7.000000
0.730000	74.050000	13.890000	237.000000	0.000000	126.000000	61.000000	5.000000	0.000000
0.740000	74.050000	13.980000	336.000000	0.000000	126.000000	61.000000	0.000000	9.000000
0.750000	74.050000	13.980000	418.000000	0.000000	124.000000	62.000000	0.000000	0.000000
0.760000	73.970000	13.980000	472.000000	0.000000	124.000000	62.000000	-8.000000	0.000000
0.770000	73.800000	13.850000	527.000000	0.000000	123.000000	62.000000	-17.000000	-13.000000
0.780000	73.590000	13.750000	559.000000	0.000000	122.000000	63.000000	-21.000000	-10.000000
0.790000	73.240000	13.490000	583.000000	0.000000	122.000000	63.000000	-35.000000	-26.000000
0.800000	72.790000	13.120000	588.000000	0.000000	120.000000	64.000000	-45.000000	-37.000000
0.810000	72.370000	12.710000	602.000000	0.000000	120.000000	64.000000	-42.000000	-41.000000
0.820000	72.020000	12.280000	606.000000	0.000000	122.000000	65.000000	-35.000000	-43.000000
0.830000	71.800000	11.840000	608.000000	0.000000	120.000000	65.000000	-22.000000	-44.000000
0.840000	71.650000	11.450000	611.000000	0.000000	120.000000	65.000000	-15.000000	-39.000000
0.850000	71.650000	11.080000	597.000000	0.000000	120.000000	65.000000	0.000000	-37.000000
0.860000	71.790000	10.800000	586.000000	0.000000	120.000000	65.000000	14.000000	-28.000000
0.870000	72.110000	10.660000	578.000000	0.000000	118.000000	65.000000	32.000000	-14.000000
0.880000	72.490000	10.610000	566.000000	0.000000	118.000000	65.000000	38.000000	-5.000000
0.890000	73.010000	10.780000	560.000000	0.000000	118.000000	65.000000	52.000000	17.000000
0.900000	73.620000	11.280000	566.000000	0.000000	118.000000	65.000000	61.000000	50.000000
0.910000	74.110000	11.990000	569.000000	0.000000	118.000000	65.000000	49.000000	71.000000
0.920000	74.500000	12.590000	567.000000	0.000000	120.000000	65.000000	39.000000	60.000000
0.930000	74.570000	13.190000	570.000000	0.000000	120.000000	65.000000	7.000000	60.000000
0.940000	74.450000	13.610000	569.000000	0.000000	119.000000	64.000000	-12.000000	42.000000
0.950000	74.210000	13.930000	553.000000	0.000000	119.000000	64.000000	-24.000000	32.000000
0.960000	73.900000	14.000000	505.000000	0.000000	119.000000	64.000000	-31.000000	7.000000
0.970000	73.570000	13.820000	317.000000	0.000000	120.000000	64.000000	-33.000000	-18.000000
0.980000	73.230000	13.480000	1.000000	1.000000	120.000000	64.000000	0.000000	0.000000
0.990000	73.230000	13.480000	0.000000	0.000000	120.000000	64.000000	0.000000	0.000000
1.000000	73.270000	12.850000	0.000000	0.000000	120.000000	64.000000	4.000000	-63.000000
1.010000	73.670000	12.650000	0.000000	0.000000	122.000000	63.000000	40.000000	-20.000000
1.020000	74.080000	12.500000	0.000000	0.000000	122.000000	63.000000	41.000000	-15.000000
1.030000	74.490000	12.390000	0.000000	0.000000	122.000000	63.000000	41.000000	-11.000000
1.040000	74.900000	12.280000	0.000000	0.000000	122.000000	63.000000	41.000000	-11.000000
1.050000	75.200000	12.280000	0.000000	0.000000	124.000000	63.000000	30.000000	0.000000
1.060000	75.440000	12.280000	0.000000	0.000000	126.000000	62.000000	24.000000	0.000000
1.070000	75.540000	12.340000	0.000000	0.000000	127.000000	62.000000	10.000000	6.000000
1.080000	75.540000	12.390000	0.000000	0.000000	127.000000	62.000000	0.000000	5.000000
1.090000	75.540000	12.390000	0.000000	0.000000	129.000000	61.000000	0.000000	0.000000
1.100000	75.540000	12.390000	0.000000	0.000000	129.000000	61.000000	0.000000	0.000000
1.110000	75.440000	12.390000	0.000000	0.000000	130.000000	62.000000	-10.000000	0.000000
1.120000	75.350000	12.390000	0.000000	0.000000	130.000000	62.000000	-9.000000	0.000000
1.130000	75.350000	12.390000	217.000000	1.000000	129.000000	63.000000	0.000000	0.000000
1.140000	75.350000	12.390000	242.000000	0.000000	127.000000	63.000000	0.000000	0.000000
1.150000	75.350000	12.390000	279.000000	0.000000	124.000000	63.000000	0.000000	0.000000
1.160000	75.350000	12.390000	304.000000	0.000000	122.000000	63.000000	0.000000	0.000000
1.170000	75.350000	12.390000	324.000000	0.000000	120.000000	64.000000	0.000000	0.000000
1.180000	75.350000	12.390000	343.000000	0.000000	120.000000	64.000000	0.000000	0.000000
1.190000	75.350000	12.390000	356.000000	0.000000	119.000000	64.000000	0.000000	0.000000
1.200000	75.620000	12.340000	364.000000	0.000000	119.000000	64.000000	27.000000	-5.000000
1.210000	75.820000	12.340000	364.000000	0.000000	119.000000	64.000000	20.000000	0.000000
1.220000	76.030000	12.280000	366.000000	0.000000	119.000000	64.000000	21.000000	-6.000000
1.230000	76.260000	12.380000	363.000000	0.000000	119.000000	64.000000	23.000000	10.000000
1.240000	76.530000	12.570000	364.000000	0.000000	120.000000	65.000000	27.000000	19.000000
1.250000	76.820000	12.850000	361.000000	0.000000	120.000000	65.000000	29.000000	28.000000
1.260000	77.110000	13.140000	364.000000	0.000000	120.000000	65.000000	29.000000	29.000000
1.270000	77.240000	13.420000	369.000000	0.000000	120.000000	65.000000	13.000000	28.000000
1.280000	77.240000	13.680000	387.000000	0.000000	123.000000	65.000000	0.000000	26.000000
1.290000	77.150000	13.880000	410.000000	0.000000	123.000000	65.000000	-9.000000	20.000000
1.300000	77.000000	14.010000	422.000000	0.000000	123.000000	65.000000	-15.000000	13.000000
1.310000	76.820000	14.010000	422.000000	0.000000	125.000000	65.000000	-18.000000	0.000000
1.320000	76.530000	14.010000	425.000000	0.000000	125.000000	65.000000	-29.000000	0.000000
1.330000	76.260000	13.860000	427.000000	0.000000	125.000000	65.000000	-27.000000	-15.000000
1.340000	76.010000	13.630000	430.000000	0.000000	125.000000	65.000000	-25.000000	-23.000000
1.350000	75.780000	13.290000	430.000000	0.000000	125.000000	65.000000	-23.000000	-34.000000
1.360000	75.610000	12.920000	433.000000	0.000000	125.000000	65.000000	-17.000000	-37.000000
1.370000	75.500000	12.480000	433.000000	0.000000	123.000000	65.000000	-11.000000	-44.000000
1.380000	75.450000	11.990000	440.000000	0.000000	122.000000	65.000000	-5.000000	-49.000000
1.390000	75.450000	11.510000	440.000000	0.000000	122.000000	65.000000	0.000000	-48.000000
1.400000	75.510000	11.150000	440.000000	0.000000	122.000000	65.000000	6.000000	-36.000000
1.410000	75.690000	10.870000	433.000000	0.000000	119.000000	64.000000	18.000000	-28.000000
1.420000	75.940000	10.750000	428.000000	0.000000	119.000000	64.000000	25.000000	-12.000000
1.430000	76.230000	10.750000	427.000000	0.000000	120.000000	65.000000	29.000000	0.000000
1.440000	76.550000	10.830000	430.000000	0.000000	120.000000	65.000000	32.000000	8.000000
1.450000	76.930000	11.120000	430.000000	0.000000	120.000000	65.000000	38.000000	29.000000
1.460000	77.410000	11.660000	436.000000	0.000000	121.000000	66.000000	48.000000	54.000000
1.470000	77.920000	12.380000	443.000000	0.000000	121.000000	66.000000	51.000000	72.000000
1.480000	78.400000	13.130000	439.000000	0.000000	121.000000	66.000000	48.000000	75.000000
1.490000	78.810000	14.000000	450.000000	0.000000	124.000000	66.000000	41.000000	87.000000
1.500000	79.180000	14.960000	452.000000	0.000000	124.000000	66.000000	37.000000	96.000000
1.510000	79.530000	16.090000	445.000000	0.000000	126.000000	66.000000	35.000000	113.000000
1.520000	79.840000	17.260000	469.000000	0.000000	130.000000	65.000000	31.000000	117.000000
1.530000	80.120000	18.460000	486.000000	0.000000	132.000000	64.000000	28.000000	120.000000
1.540000	80.280000	19.110000	519.000000	0.000000	133.000000	63.000000	16.000000	65.000000
1.550000	80.280000	19.500000	561.000000	0.000000	135.000000	62.000000	0.000000	39.000000
1.560000	80.170000	19.720000	606.000000	0.000000	135.000000	60.000000	-11.000000	22.000000
1.570000	80.170000	19.720000	627.000000	0.000000	136.000000	60.000000	0.000000	0.000000
1.580000	80.110000	19.780000	636.000000	0.000000	135.000000	59.000000	-6.000000	6.000000
1.590000	80.110000	19.780000	639.000000	0.000000	136.000000	58.000000	0.000000	0.000000
1.600000	80.110000	19.680000	645.000000	0.000000	136.000000	58.000000	0.000000	-10.000000
1.610000	80.110000	19.530000	662.000000	0.000000	135.000000	58.000000	0.000000	-15.000000
1.620000	80.110000	19.050000	669.000000	0.000000	136.000000	57.000000	0.000000	-48.000000
1.630000	79.990000	18.370000	696.000000	0.000000	135.000000	58.000000	-12.000000	-68.000000
1.640000	79.790000	17.390000	700.000000	0.000000	135.000000	58.000000	-20.000000	-98.000000
1.650000	79.610000	16.460000	717.000000	0.000000	135.000000	58.000000	-18.000000	-93.000000
1.660000	79.470000	15.560000	727.000000	0.000000	134.000000	58.000000	-14.000000	-90.000000
1.670000	79.360000	14.810000	728.000000	0.000000	134.000000	58.000000	-11.000000	-75.000000
1.680000	79.440000	14.040000	731.000000	0.000000	134.000000	60.000000	8.000000	-77.000000
1.690000	79.640000	13.390000	731.000000	0.000000	132.000000	60.000000	20.000000	-65.000000
1.700000	79.780000	12.840000	730.000000	0.000000	132.000000	61.000000	14.000000	-55.000000
1.710000	79.960000	12.350000	721.000000	0.000000	130.000000	62.000000	18.000000	-49.000000
1.720000	80.220000	12.020000	725.000000	0.000000	130.000000	63.000000	26.000000	-33.000000
1.730000	80.440000	11.800000	708.000000	0.000000	130.000000	65.000000	22.000000	-22.000000
1.740000	80.620000	11.720000	697.000000	0.000000	128.000000	65.000000	18.000000	-8.000000
1.750000	80.830000	11.720000	687.000000	0.000000	128.000000	66.000000	21.000000	0.000000
1.760000	81.060000	11.860000	670.000000	0.000000	128.000000	66.000000	23.000000	14.000000
1.770000	81.300000	12.190000	658.000000	0.000000	128.000000	66.000000	24.000000	33.000000
1.780000	81.550000	12.620000	650.000000	0.000000	128.000000	66.000000	25.000000	43.000000
1.790000	81.800000	13.120000	647.000000	0.000000	128.000000	66.000000	25.000000	50.000000
1.800000	81.950000	13.560000	646.000000	0.000000	128.000000	66.000000	15.000000	44.000000
1.810000	82.050000	13.940000	643.000000	0.000000	130.000000	66.000000	10.000000	38.000000
1.820000	82.050000	14.210000	646.000000	0.000000	130.000000	66.000000	0.000000	27.000000
1.830000	82.110000	14.400000	659.000000	0.000000	132.000000	65.000000	6.000000	19.000000
1.840000	82.110000	14.460000	673.000000	0.000000	132.000000	65.000000	0.000000	6.000000
1.850000	82.110000	14.460000	666.000000	0.000000	133.000000	65.000000	0.000000	0.000000
1.860000	82.110000	14.400000	667.000000	0.000000	133.000000	65.000000	0.000000	-6.000000
1.870000	82.110000	14.350000	669.000000	0.000000	133.000000	65.000000	0.000000	-5.000000
1.880000	82.110000	14.200000	673.000000	0.000000	135.000000	64.000000	0.000000	-15.000000
1.890000	82.030000	13.990000	678.000000	0.000000	135.000000	64.000000	-8.000000	-21.000000
1.900000	82.030000	13.770000	682.000000	0.000000	135.000000	64.000000	0.000000	-22.000000
1.910000	82.030000	13.500000	682.000000	0.000000	133.000000	65.000000	0.000000	-27.000000
1.920000	82.030000	13.170000	690.000000	0.000000	133.000000	65.000000	0.000000	-33.000000
1.930000	82.030000	12.800000	691.000000	0.000000	133.000000	65.000000	0.000000	-37.000000
1.940000	82.100000	12.420000	693.000000	0.000000	132.000000	65.000000	7.000000	-38.000000
1.950000	82.210000	12.040000	693.000000	0.000000	130.000000	66.000000	11.000000	-38.000000
1.960000	82.360000	11.650000	687.000000	0.000000	130.000000	66.000000	15.000000	-39.000000
1.970000	82.570000	11.350000	673.000000	0.000000	130.000000	66.000000	21.000000	-30.000000
1.980000	82.920000	11.110000	653.000000	0.000000	128.000000	66.000000	35.000000	-24.000000
1.990000	83.350000	11.040000	594.000000	0.000000	128.000000	66.000000	43.000000	-7.000000
2.000000	83.740000	11.040000	522.000000	0.000000	130.000000	67.000000	39.000000	0.000000
2.010000	84.130000	11.150000	282.000000	0.000000	130.000000	67.000000	39.000000	11.000000
2.020000	84.130000	11.150000	0.000000	1.000000	131.000000	67.000000	0.000000	0.000000
2.030000	84.930000	11.630000	0.000000	0.000000	133.000000	67.000000	80.000000	48.000000
2.040000	85.080000	12.000000	0.000000	0.000000	133.000000	67.000000	15.000000	37.000000
2.050000	85.080000	12.180000	0.000000	0.000000	135.000000	67.000000	0.000000	18.000000
2.060000	84.880000	12.350000	0.000000	0.000000	135.000000	67.000000	-20.000000	17.000000
2.070000	84.700000	12.510000	0.000000	0.000000	139.000000	67.000000	-18.000000	16.000000
2.080000	84.460000	12.660000	0.000000	0.000000	142.000000	65.000000	-24.000000	15.000000
2.090000	84.180000	12.810000	0.000000	0.000000	143.000000	64.000000	-28.000000	15.000000
2.100000	83.860000	13.010000	0.000000	0.000000	143.000000	63.000000	-32.000000	20.000000
2.110000	83.470000	13.250000	0.000000	0.000000	146.000000	62.000000	-39.000000	24.000000
2.120000	83.020000	13.590000	0.000000	0.000000	145.000000	60.000000	-45.000000	34.000000
2.130000	82.730000	13.930000	0.000000	0.000000	147.000000	59.000000	-29.000000	34.000000
2.140000	82.460000	14.260000	0.000000	0.000000	147.000000	58.000000	-27.000000	33.000000
2.150000	82.240000	14.460000	0.000000	0.000000	148.000000	57.000000	-22.000000	20.000000
2.160000	82.100000	14.640000	0.000000	0.000000	148.000000	56.000000	-14.000000	18.000000
2.170000	82.010000	14.780000	0.000000	0.000000	148.000000	56.000000	-9.000000	14.000000
2.180000	82.010000	14.780000	151.000000	1.000000	146.000000	55.000000	0.000000	0.000000
2.190000	82.010000	14.780000	292.000000	0.000000	147.000000	56.000000	0.000000	0.000000
2.200000	82.160000	15.100000	289.000000	0.000000	146.000000	57.000000	15.000000	32.000000
2.210000	82.160000	15.220000	294.000000	0.000000	144.000000	58.000000	0.000000	12.000000
