t	x	y	pressure	penup	azimuth	inclination	v_x	v_y
0.000000	54.630000	15.710000	96.000000	1.000000	132.000000	55.000000	0.000000	0.000000
0.010000	54.500000	15.370000	168.000000	0.000000	131.000000	56.000000	-13.000000	-34.000000
0.020000	54.500000	15.280000	223.000000	0.000000	130.000000	56.000000	0.000000	-9.000000
0.030000	54.440000	15.280000	273.000000	0.000000	130.000000	56.000000	-6.000000	0.000000
0.040000	54.440000	15.280000	327.000000	0.000000	128.000000	57.000000	0.000000	0.000000
0.050000	54.510000	15.280000	351.000000	0.000000	127.000000	57.000000	7.000000	0.000000
0.060000	54.610000	15.470000	379.000000	0.000000	127.000000	57.000000	10.000000	19.000000
0.070000	54.780000	15.810000	404.000000	0.000000	127.000000	57.000000	17.000000	34.000000
0.080000	54.970000	16.270000	438.000000	0.000000	127.000000	57.000000	19.000000	46.000000
0.090000	55.170000	16.940000	474.000000	0.000000	127.000000	57.000000	20.000000	67.000000
0.100000	55.170000	17.760000	472.000000	0.000000	128.000000	57.000000	0.000000	82.000000
0.110000	55.170000	18.690000	467.000000	0.000000	128.000000	57.000000	0.000000	93.000000
0.120000	55.030000	19.650000	465.000000	0.000000	130.000000	56.000000	-14.000000	96.000000
0.130000	54.900000	20.490000	475.000000	0.000000	131.000000	56.000000	-13.000000	84.000000
0.140000	54.750000	21.250000	477.000000	0.000000	132.000000	55.000000	-15.000000	76.000000
0.150000	54.670000	21.640000	483.000000	0.000000	132.000000	55.000000	-8.000000	39.000000
0.160000	54.670000	21.780000	465.000000	0.000000	131.000000	55.000000	0.000000	14.000000
0.170000	54.670000	21.780000	453.000000	0.000000	133.000000	54.000000	0.000000	0.000000
0.180000	54.780000	21.620000	448.000000	0.000000	133.000000	54.000000	11.000000	-16.000000
0.190000	54.910000	21.270000	447.000000	0.000000	133.000000	54.000000	13.000000	-35.000000
0.200000	55.040000	20.780000	440.000000	0.000000	133.000000	54.000000	13.000000	-49.000000
0.210000	55.180000	20.230000	440.000000	0.000000	134.000000	54.000000	14.000000	-55.000000
0.220000	55.330000	19.650000	439.000000	0.000000	134.000000	54.000000	15.000000	-58.000000
0.230000	55.520000	19.010000	440.000000	0.000000	135.000000	54.000000	19.000000	-64.000000
0.240000	55.770000	18.380000	449.000000	0.000000	135.000000	54.000000	25.000000	-63.000000
0.250000	56.090000	17.740000	443.000000	0.000000	134.000000	55.000000	32.000000	-64.000000
0.260000	56.460000	17.240000	441.000000	0.000000	135.000000	55.000000	37.000000	-50.000000
0.270000	56.820000	16.840000	440.000000	0.000000	135.000000	55.000000	36.000000	-40.000000
0.280000	57.150000	16.610000	441.000000	0.000000	135.000000	55.000000	33.000000	-23.000000
0.290000	57.480000	16.610000	440.000000	0.000000	135.000000	57.000000	33.000000	0.000000
0.300000	57.830000	16.760000	450.000000	0.000000	135.000000	57.000000	35.000000	15.000000
0.310000	58.060000	17.080000	471.000000	0.000000	135.000000	57.000000	23.000000	32.000000
0.320000	58.200000	17.570000	470.000000	0.000000	132.000000	57.000000	14.000000	49.000000
0.330000	58.200000	18.170000	472.000000	0.000000	132.000000	57.000000	0.000000	60.000000
0.340000	58.200000	18.960000	478.000000	0.000000	131.000000	56.000000	0.000000	79.000000
0.350000	58.060000	19.780000	486.000000	0.000000	130.000000	55.000000	-14.000000	82.000000
0.360000	57.880000	20.610000	488.000000	0.000000	130.000000	54.000000	-18.000000	83.000000
0.370000	57.700000	21.350000	496.000000	0.000000	130.000000	54.000000	-18.000000	74.000000
0.380000	57.510000	21.800000	496.000000	0.000000	130.000000	54.000000	-19.000000	45.000000
0.390000	57.360000	22.050000	496.000000	0.000000	130.000000	54.000000	-15.000000	25.000000
0.400000	57.260000	22.100000	478.000000	0.000000	130.000000	54.000000	-10.000000	5.000000
0.410000	57.260000	22.100000	443.000000	0.000000	131.000000	55.000000	0.000000	0.000000
0.420000	57.260000	22.100000	364.000000	0.000000	134.000000	55.000000	0.000000	0.000000
0.430000	57.310000	22.000000	241.000000	0.000000	135.000000	55.000000	5.000000	-10.000000
0.440000	57.430000	21.880000	58.000000	0.000000	135.000000	55.000000	12.000000	-12.000000
0.450000	57.430000	21.880000	0.000000	1.000000	135.000000	55.000000	0.000000	0.000000
0.460000	57.710000	21.560000	0.000000	0.000000	135.000000	55.000000	28.000000	-32.000000
0.470000	57.860000	21.400000	0.000000	0.000000	135.000000	55.000000	15.000000	-16.000000
0.480000	58.030000	21.190000	0.000000	0.000000	136.000000	55.000000	17.000000	-21.000000
0.490000	58.290000	20.910000	0.000000	0.000000	136.000000	55.000000	26.000000	-28.000000
0.500000	58.640000	20.530000	0.000000	0.000000	135.000000	54.000000	35.000000	-38.000000
0.510000	59.010000	20.110000	0.000000	0.000000	135.000000	54.000000	37.000000	-42.000000
0.520000	59.380000	19.720000	0.000000	0.000000	135.000000	54.000000	37.000000	-39.000000
0.530000	59.720000	19.350000	0.000000	0.000000	135.000000	54.000000	34.000000	-37.000000
0.540000	60.000000	19.050000	0.000000	0.000000	135.000000	54.000000	28.000000	-30.000000
0.550000	60.240000	18.790000	0.000000	0.000000	134.000000	55.000000	24.000000	-26.000000
0.560000	60.310000	18.560000	0.000000	0.000000	135.000000	55.000000	7.000000	-23.000000
0.570000	60.310000	18.370000	0.000000	0.000000	135.000000	55.000000	0.000000	-19.000000
0.580000	60.310000	18.260000	0.000000	0.000000	135.000000	55.000000	0.000000	-11.000000
0.590000	60.310000	18.210000	0.000000	0.000000	134.000000	56.000000	0.000000	-5.000000
0.600000	60.310000	18.210000	0.000000	0.000000	135.000000	57.000000	0.000000	0.000000
0.610000	60.210000	18.310000	0.000000	0.000000	135.000000	57.000000	-10.000000	10.000000
0.620000	60.210000	18.410000	0.000000	0.000000	135.000000	57.000000	0.000000	10.000000
0.630000	60.280000	18.580000	0.000000	0.000000	135.000000	57.000000	7.000000	17.000000
0.640000	60.280000	18.580000	25.000000	1.000000	135.000000	57.000000	0.000000	0.000000
0.650000	60.330000	18.880000	100.000000	0.000000	135.000000	57.000000	5.000000	30.000000
0.660000	60.330000	18.930000	149.000000	0.000000	134.000000	56.000000	0.000000	5.000000
0.670000	60.330000	18.980000	195.000000	0.000000	134.000000	56.000000	0.000000	5.000000
0.680000	60.330000	18.980000	206.000000	0.000000	135.000000	55.000000	0.000000	0.000000
0.690000	60.330000	19.040000	225.000000	0.000000	135.000000	55.000000	0.000000	6.000000
0.700000	60.330000	19.040000	241.000000	0.000000	135.000000	55.000000	0.000000	0.000000
0.710000	60.250000	19.090000	267.000000	0.000000	134.000000	55.000000	-8.000000	5.000000
0.720000	60.120000	19.090000	277.000000	0.000000	134.000000	55.000000	-13.000000	0.000000
0.730000	59.930000	19.150000	319.000000	0.000000	134.000000	55.000000	-19.000000	6.000000
0.740000	59.720000	19.150000	354.000000	0.000000	135.000000	54.000000	-21.000000	0.000000
0.750000	59.500000	19.050000	369.000000	0.000000	135.000000	54.000000	-22.000000	-10.000000
0.760000	59.280000	18.950000	366.000000	0.000000	135.000000	54.000000	-22.000000	-10.000000
0.770000	59.070000	18.700000	369.000000	0.000000	135.000000	54.000000	-21.000000	-25.000000
0.780000	58.860000	18.340000	374.000000	0.000000	135.000000	54.000000	-21.000000	-36.000000
0.790000	58.860000	17.940000	369.000000	0.000000	135.000000	54.000000	0.000000	-40.000000
0.800000	58.920000	17.540000	362.000000	0.000000	135.000000	54.000000	6.000000	-40.000000
0.810000	59.120000	17.160000	369.000000	0.000000	134.000000	55.000000	20.000000	-38.000000
0.820000	59.480000	16.970000	343.000000	0.000000	134.000000	55.000000	36.000000	-19.000000
0.830000	59.850000	16.910000	337.000000	0.000000	134.000000	55.000000	37.000000	-6.000000
0.840000	60.230000	16.970000	334.000000	0.000000	132.000000	55.000000	38.000000	6.000000
0.850000	60.530000	17.190000	339.000000	0.000000	132.000000	55.000000	30.000000	22.000000
0.860000	60.790000	17.510000	344.000000	0.000000	132.000000	55.000000	26.000000	32.000000
0.870000	60.950000	17.920000	349.000000	0.000000	132.000000	55.000000	16.000000	41.000000
0.880000	60.950000	18.320000	341.000000	0.000000	134.000000	56.000000	0.000000	40.000000
0.890000	60.890000	18.690000	343.000000	0.000000	134.000000	56.000000	-6.000000	37.000000
0.900000	60.720000	19.020000	334.000000	0.000000	134.000000	56.000000	-17.000000	33.000000
0.910000	60.550000	19.250000	286.000000	0.000000	134.000000	56.000000	-17.000000	23.000000
0.920000	60.390000	19.390000	173.000000	0.000000	135.000000	55.000000	-16.000000	14.000000
0.930000	60.390000	19.390000	0.000000	1.000000	135.000000	55.000000	0.000000	0.000000
0.940000	60.390000	19.450000	0.000000	0.000000	135.000000	55.000000	0.000000	6.000000
0.950000	60.500000	19.450000	0.000000	0.000000	136.000000	55.000000	11.000000	0.000000
0.960000	60.690000	19.450000	0.000000	0.000000	136.000000	55.000000	19.000000	0.000000
0.970000	60.910000	19.350000	0.000000	0.000000	136.000000	55.000000	22.000000	-10.000000
0.980000	61.110000	19.240000	0.000000	0.000000	136.000000	55.000000	20.000000	-11.000000
0.990000	61.240000	19.050000	0.000000	0.000000	135.000000	55.000000	13.000000	-19.000000
1.000000	61.360000	18.850000	0.000000	0.000000	135.000000	55.000000	12.000000	-20.000000
1.010000	61.450000	18.640000	0.000000	0.000000	135.000000	55.000000	9.000000	-21.000000
1.020000	61.510000	18.420000	0.000000	0.000000	135.000000	55.000000	6.000000	-22.000000
1.030000	61.510000	18.250000	0.000000	0.000000	136.000000	56.000000	0.000000	-17.000000
1.040000	61.510000	18.250000	137.000000	1.000000	136.000000	56.000000	0.000000	0.000000
1.050000	61.510000	18.250000	190.000000	0.000000	136.000000	56.000000	0.000000	0.000000
1.060000	61.510000	18.250000	265.000000	0.000000	136.000000	56.000000	0.000000	0.000000
1.070000	61.510000	18.250000	337.000000	0.000000	135.000000	55.000000	0.000000	0.000000
1.080000	61.510000	18.250000	367.000000	0.000000	135.000000	55.000000	0.000000	0.000000
1.090000	61.760000	18.110000	396.000000	0.000000	135.000000	55.000000	25.000000	-14.000000
1.100000	61.890000	18.220000	404.000000	0.000000	135.000000	55.000000	13.000000	11.000000
1.110000	62.090000	18.420000	404.000000	0.000000	136.000000	56.000000	20.000000	20.000000
1.120000	62.320000	18.640000	409.000000	0.000000	136.000000	56.000000	23.000000	22.000000
1.130000	62.450000	18.870000	410.000000	0.000000	136.000000	56.000000	13.000000	23.000000
1.140000	62.510000	19.110000	412.000000	0.000000	136.000000	56.000000	6.000000	24.000000
1.150000	62.460000	19.390000	412.000000	0.000000	136.000000	56.000000	-5.000000	28.000000
1.160000	62.320000	19.710000	409.000000	0.000000	136.000000	56.000000	-14.000000	32.000000
1.170000	62.120000	20.020000	407.000000	0.000000	136.000000	56.000000	-20.000000	31.000000
1.180000	61.950000	20.130000	397.000000	0.000000	136.000000	56.000000	-17.000000	11.000000
1.190000	61.760000	20.130000	396.000000	0.000000	136.000000	56.000000	-19.000000	0.000000
1.200000	61.570000	19.930000	397.000000	0.000000	138.000000	55.000000	-19.000000	-20.000000
1.210000	61.420000	19.560000	399.000000	0.000000	138.000000	55.000000	-15.000000	-37.000000
1.220000	61.320000	19.080000	397.000000	0.000000	138.000000	55.000000	-10.000000	-48.000000
1.230000	61.320000	18.620000	396.000000	0.000000	138.000000	55.000000	0.000000	-46.000000
1.240000	61.410000	18.150000	399.000000	0.000000	136.000000	55.000000	9.000000	-47.000000
1.250000	61.600000	17.790000	386.000000	0.000000	136.000000	55.000000	19.000000	-36.000000
1.260000	61.870000	17.500000	387.000000	0.000000	136.000000	56.000000	27.000000	-29.000000
1.270000	62.250000	17.350000	398.000000	0.000000	136.000000	56.000000	38.000000	-15.000000
1.280000	62.720000	17.430000	391.000000	0.000000	136.000000	56.000000	47.000000	8.000000
1.290000	63.200000	17.670000	402.000000	0.000000	136.000000	56.000000	48.000000	24.000000
1.300000	63.680000	18.130000	418.000000	0.000000	138.000000	57.000000	48.000000	46.000000
1.310000	64.040000	18.680000	425.000000	0.000000	138.000000	57.000000	36.000000	55.000000
1.320000	64.270000	19.280000	447.000000	0.000000	138.000000	57.000000	23.000000	60.000000
1.330000	64.400000	20.010000	466.000000	0.000000	138.000000	57.000000	13.000000	73.000000
1.340000	64.400000	20.870000	474.000000	0.000000	139.000000	57.000000	0.000000	86.000000
1.350000	64.280000	21.830000	465.000000	0.000000	139.000000	57.000000	-12.000000	96.000000
1.360000	64.180000	22.740000	467.000000	0.000000	139.000000	57.000000	-10.000000	91.000000
1.370000	64.060000	23.290000	478.000000	0.000000	139.000000	57.000000	-12.000000	55.000000
1.380000	63.960000	23.610000	480.000000	0.000000	139.000000	57.000000	-10.000000	32.000000
1.390000	63.890000	23.610000	470.000000	0.000000	139.000000	57.000000	-7.000000	0.000000
1.400000	63.890000	23.540000	474.000000	0.000000	139.000000	57.000000	0.000000	-7.000000
1.410000	63.780000	23.270000	474.000000	0.000000	139.000000	57.000000	-11.000000	-27.000000
1.420000	63.690000	22.890000	468.000000	0.000000	139.000000	57.000000	-9.000000	-38.000000
1.430000	63.590000	22.210000	469.000000	0.000000	139.000000	57.000000	-10.000000	-68.000000
1.440000	63.590000	21.520000	473.000000	0.000000	139.000000	57.000000	0.000000	-69.000000
1.450000	63.590000	20.830000	473.000000	0.000000	139.000000	57.000000	0.000000	-69.000000
1.460000	63.590000	20.120000	465.000000	0.000000	139.000000	57.000000	0.000000	-71.000000
1.470000	63.700000	19.520000	467.000000	0.000000	140.000000	56.000000	11.000000	-60.000000
1.480000	63.830000	19.000000	472.000000	0.000000	140.000000	56.000000	13.000000	-52.000000
1.490000	64.000000	18.570000	468.000000	0.000000	140.000000	56.000000	17.000000	-43.000000
1.500000	64.250000	18.340000	467.000000	0.000000	140.000000	56.000000	25.000000	-23.000000
1.510000	64.540000	18.240000	469.000000	0.000000	140.000000	56.000000	29.000000	-10.000000
1.520000	64.830000	18.240000	465.000000	0.000000	142.000000	57.000000	29.000000	0.000000
1.530000	65.110000	18.410000	466.000000	0.000000	142.000000	57.000000	28.000000	17.000000
1.540000	65.280000	18.600000	463.000000	0.000000	142.000000	57.000000	17.000000	19.000000
1.550000	65.380000	18.830000	463.000000	0.000000	142.000000	57.000000	10.000000	23.000000
1.560000	65.380000	19.060000	469.000000	0.000000	142.000000	57.000000	0.000000	23.000000
1.570000	65.380000	19.300000	471.000000	0.000000	142.000000	57.000000	0.000000	24.000000
1.580000	65.330000	19.550000	469.000000	0.000000	142.000000	57.000000	-5.000000	25.000000
1.590000	65.330000	19.690000	473.000000	0.000000	142.000000	57.000000	0.000000	14.000000
1.600000	65.330000	19.780000	469.000000	0.000000	142.000000	57.000000	0.000000	9.000000
1.610000	65.330000	19.780000	455.000000	0.000000	142.000000	57.000000	0.000000	0.000000
1.620000	65.330000	19.720000	442.000000	0.000000	142.000000	57.000000	0.000000	-6.000000
1.630000	65.330000	19.600000	440.000000	0.000000	143.000000	57.000000	0.000000	-12.000000
1.640000	65.400000	19.370000	439.000000	0.000000	143.000000	57.000000	7.000000	-23.000000
1.650000	65.450000	19.080000	440.000000	0.000000	144.000000	57.000000	5.000000	-29.000000
1.660000	65.510000	18.770000	439.000000	0.000000	143.000000	57.000000	6.000000	-31.000000
1.670000	65.570000	18.490000	449.000000	0.000000	143.000000	57.000000	6.000000	-28.000000
1.680000	65.720000	18.340000	415.000000	0.000000	143.000000	57.000000	15.000000	-15.000000
1.690000	65.900000	18.260000	327.000000	0.000000	143.000000	57.000000	18.000000	-8.000000
1.700000	66.160000	18.260000	85.000000	0.000000	143.000000	57.000000	26.000000	0.000000
1.710000	66.160000	18.260000	0.000000	1.000000	143.000000	57.000000	0.000000	0.000000
1.720000	66.760000	18.650000	0.000000	0.000000	144.000000	58.000000	60.000000	39.000000
1.730000	66.970000	19.040000	0.000000	0.000000	144.000000	58.000000	21.000000	39.000000
1.740000	67.050000	19.430000	0.000000	0.000000	144.000000	58.000000	8.000000	39.000000
1.750000	67.180000	19.830000	0.000000	0.000000	144.000000	58.000000	13.000000	40.000000
1.760000	67.180000	20.230000	0.000000	0.000000	146.000000	58.000000	0.000000	40.000000
1.770000	66.980000	20.620000	0.000000	0.000000	146.000000	58.000000	-20.000000	39.000000
1.780000	66.820000	21.010000	0.000000	0.000000	146.000000	58.000000	-16.000000	39.000000
1.790000	66.680000	21.410000	0.000000	0.000000	146.000000	58.000000	-14.000000	40.000000
1.800000	66.570000	21.590000	0.000000	0.000000	146.000000	58.000000	-11.000000	18.000000
1.810000	66.490000	21.590000	0.000000	0.000000	147.000000	58.000000	-8.000000	0.000000
1.820000	66.490000	21.590000	244.000000	1.000000	146.000000	57.000000	0.000000	0.000000
1.830000	66.490000	21.590000	284.000000	0.000000	146.000000	57.000000	0.000000	0.000000
1.840000	66.240000	21.590000	314.000000	0.000000	146.000000	57.000000	-25.000000	0.000000
1.850000	66.240000	21.590000	320.000000	0.000000	146.000000	57.000000	0.000000	0.000000
1.860000	66.240000	21.500000	279.000000	0.000000	146.000000	57.000000	0.000000	-9.000000
1.870000	66.290000	21.380000	108.000000	0.000000	146.000000	57.000000	5.000000	-12.000000
1.880000	66.290000	21.380000	0.000000	1.000000	146.000000	57.000000	0.000000	0.000000
1.890000	66.790000	21.010000	0.000000	0.000000	146.000000	57.000000	50.000000	-37.000000
1.900000	67.050000	20.880000	0.000000	0.000000	146.000000	57.000000	26.000000	-13.000000
1.910000	67.270000	20.800000	0.000000	0.000000	147.000000	58.000000	22.000000	-8.000000
1.920000	67.450000	20.630000	0.000000	0.000000	147.000000	58.000000	18.000000	-17.000000
1.930000	67.640000	20.410000	0.000000	0.000000	147.000000	58.000000	19.000000	-22.000000
1.940000	67.810000	20.220000	0.000000	0.000000	149.000000	58.000000	17.000000	-19.000000
1.950000	67.960000	20.060000	0.000000	0.000000	149.000000	58.000000	15.000000	-16.000000
1.960000	68.050000	19.900000	0.000000	0.000000	150.000000	58.000000	9.000000	-16.000000
1.970000	68.150000	19.760000	0.000000	0.000000	150.000000	58.000000	10.000000	-14.000000
1.980000	68.150000	19.660000	0.000000	0.000000	150.000000	58.000000	0.000000	-10.000000
1.990000	68.150000	19.660000	161.000000	1.000000	150.000000	58.000000	0.000000	0.000000
2.000000	67.850000	19.600000	241.000000	0.000000	150.000000	58.000000	-30.000000	-6.000000
2.010000	67.720000	19.670000	314.000000	0.000000	150.000000	58.000000	-13.000000	7.000000
2.020000	67.600000	19.760000	399.000000	0.000000	150.000000	58.000000	-12.000000	9.000000
2.030000	67.600000	19.760000	422.000000	0.000000	150.000000	58.000000	0.000000	0.000000
2.040000	67.150000	19.710000	420.000000	0.000000	149.000000	58.000000	-45.000000	-5.000000
2.050000	66.890000	19.580000	431.000000	0.000000	149.000000	58.000000	-26.000000	-13.000000
2.060000	66.660000	19.360000	431.000000	0.000000	149.000000	58.000000	-23.000000	-22.000000
2.070000	66.520000	19.120000	436.000000	0.000000	149.000000	58.000000	-14.000000	-24.000000
2.080000	66.450000	18.890000	430.000000	0.000000	147.000000	58.000000	-7.000000	-23.000000
2.090000	66.450000	18.710000	423.000000	0.000000	147.000000	58.000000	0.000000	-18.000000
2.100000	66.570000	18.560000	397.000000	0.000000	147.000000	58.000000	12.000000	-15.000000
2.110000	66.710000	18.440000	377.000000	0.000000	146.000000	58.000000	14.000000	-12.000000
2.120000	66.890000	18.440000	359.000000	0.000000	146.000000	58.000000	18.000000	0.000000
2.130000	67.090000	18.440000	334.000000	0.000000	144.000000	58.000000	20.000000	0.000000
2.140000	67.310000	18.590000	335.000000	0.000000	146.000000	58.000000	22.000000	15.000000
2.150000	67.530000	18.790000	335.000000	0.000000	146.000000	58.000000	22.000000	20.000000
2.160000	67.730000	18.960000	345.000000	0.000000	146.000000	58.000000	20.000000	17.000000
2.170000	67.850000	19.040000	349.000000	0.000000	146.000000	58.000000	12.000000	8.000000
2.180000	67.920000	19.040000	361.000000	0.000000	146.000000	58.000000	7.000000	0.000000
2.190000	67.920000	19.040000	377.000000	0.000000	147.000000	59.000000	0.000000	0.000000
2.200000	67.920000	19.040000	381.000000	0.000000	147.000000	59.000000	0.000000	0.000000
2.210000	67.920000	19.040000	386.000000	0.000000	147.000000	59.000000	0.000000	0.000000
