t	x	y	pressure	penup	azimuth	inclination	v_x	v_y
0.000000	49.730000	33.240000	27.000000	1.000000	112.000000	56.000000	0.000000	0.000000
0.010000	49.730000	33.580000	89.000000	0.000000	112.000000	56.000000	0.000000	34.000000
0.020000	49.730000	33.690000	137.000000	0.000000	111.000000	55.000000	0.000000	11.000000
0.030000	49.730000	33.770000	191.000000	0.000000	111.000000	55.000000	0.000000	8.000000
0.040000	49.680000	33.820000	233.000000	0.000000	110.000000	54.000000	-5.000000	5.000000
0.050000	49.680000	33.820000	265.000000	0.000000	110.000000	53.000000	0.000000	0.000000
0.060000	49.620000	33.820000	292.000000	0.000000	110.000000	53.000000	-6.000000	0.000000
0.070000	49.620000	33.820000	312.000000	0.000000	110.000000	53.000000	0.000000	0.000000
0.080000	49.620000	33.820000	335.000000	0.000000	109.000000	52.000000	0.000000	0.000000
0.090000	49.620000	33.760000	351.000000	0.000000	109.000000	52.000000	0.000000	-6.000000
0.100000	49.720000	33.600000	371.000000	0.000000	109.000000	52.000000	10.000000	-16.000000
0.110000	49.800000	33.380000	367.000000	0.000000	109.000000	52.000000	8.000000	-22.000000
0.120000	49.900000	32.930000	379.000000	0.000000	109.000000	52.000000	10.000000	-45.000000
0.130000	50.020000	32.340000	388.000000	0.000000	109.000000	52.000000	12.000000	-59.000000
0.140000	50.160000	31.730000	402.000000	0.000000	109.000000	52.000000	14.000000	-61.000000
0.150000	50.330000	31.100000	415.000000	0.000000	110.000000	53.000000	17.000000	-63.000000
0.160000	50.540000	30.450000	415.000000	0.000000	111.000000	53.000000	21.000000	-65.000000
0.170000	50.760000	29.800000	418.000000	0.000000	111.000000	53.000000	22.000000	-65.000000
0.180000	51.020000	29.280000	427.000000	0.000000	111.000000	53.000000	26.000000	-52.000000
0.190000	51.270000	28.860000	431.000000	0.000000	111.000000	53.000000	25.000000	-42.000000
0.200000	51.510000	28.590000	435.000000	0.000000	111.000000	53.000000	24.000000	-27.000000
0.210000	51.660000	28.420000	440.000000	0.000000	112.000000	54.000000	15.000000	-17.000000
0.220000	51.760000	28.310000	444.000000	0.000000	112.000000	54.000000	10.000000	-11.000000
0.230000	51.830000	28.310000	439.000000	0.000000	112.000000	54.000000	7.000000	0.000000
0.240000	51.830000	28.400000	438.000000	0.000000	112.000000	54.000000	0.000000	9.000000
0.250000	51.670000	28.550000	444.000000	0.000000	112.000000	54.000000	-16.000000	15.000000
0.260000	51.460000	28.880000	441.000000	0.000000	112.000000	54.000000	-21.000000	33.000000
0.270000	51.220000	29.300000	440.000000	0.000000	112.000000	54.000000	-24.000000	42.000000
0.280000	51.000000	29.770000	446.000000	0.000000	112.000000	54.000000	-22.000000	47.000000
0.290000	50.820000	30.070000	458.000000	0.000000	112.000000	54.000000	-18.000000	30.000000
0.300000	50.620000	30.400000	472.000000	0.000000	112.000000	54.000000	-20.000000	33.000000
0.310000	50.490000	30.740000	478.000000	0.000000	112.000000	54.000000	-13.000000	34.000000
0.320000	50.370000	31.100000	483.000000	0.000000	112.000000	54.000000	-12.000000	36.000000
0.330000	50.250000	31.460000	483.000000	0.000000	112.000000	54.000000	-12.000000	36.000000
0.340000	50.160000	31.790000	493.000000	0.000000	111.000000	53.000000	-9.000000	33.000000
0.350000	50.110000	32.100000	488.000000	0.000000	112.000000	53.000000	-5.000000	31.000000
0.360000	50.110000	32.380000	496.000000	0.000000	112.000000	53.000000	0.000000	28.000000
0.370000	50.050000	32.650000	491.000000	0.000000	112.000000	53.000000	-6.000000	27.000000
0.380000	50.050000	32.920000	491.000000	0.000000	112.000000	53.000000	0.000000	27.000000
0.390000	50.050000	33.210000	492.000000	0.000000	112.000000	53.000000	0.000000	29.000000
0.400000	50.050000	33.390000	496.000000	0.000000	111.000000	53.000000	0.000000	18.000000
0.410000	50.180000	33.570000	494.000000	0.000000	111.000000	53.000000	13.000000	18.000000
0.420000	50.330000	33.760000	497.000000	0.000000	111.000000	53.000000	15.000000	19.000000
0.430000	50.510000	33.960000	494.000000	0.000000	111.000000	53.000000	18.000000	20.000000
0.440000	50.510000	33.960000	494.000000	0.000000	111.000000	53.000000	0.000000	0.000000
0.450000	50.990000	34.280000	494.000000	0.000000	111.000000	53.000000	48.000000	32.000000
0.460000	51.250000	34.360000	496.000000	0.000000	110.000000	53.000000	26.000000	8.000000
0.470000	51.490000	34.360000	501.000000	0.000000	110.000000	54.000000	24.000000	0.000000
0.480000	51.710000	34.360000	501.000000	0.000000	110.000000	54.000000	22.000000	0.000000
0.490000	51.960000	34.260000	497.000000	0.000000	110.000000	54.000000	25.000000	-10.000000
0.500000	52.200000	34.080000	499.000000	0.000000	110.000000	54.000000	24.000000	-18.000000
0.510000	52.440000	33.890000	497.000000	0.000000	110.000000	54.000000	24.000000	-19.000000
0.520000	52.640000	33.670000	496.000000	0.000000	111.000000	55.000000	20.000000	-22.000000
0.530000	52.810000	33.390000	496.000000	0.000000	111.000000	55.000000	17.000000	-28.000000
0.540000	52.870000	33.100000	496.000000	0.000000	111.000000	55.000000	6.000000	-29.000000
0.550000	52.870000	32.810000	494.000000	0.000000	112.000000	55.000000	0.000000	-29.000000
0.560000	52.870000	32.440000	494.000000	0.000000	112.000000	55.000000	0.000000	-37.000000
0.570000	52.800000	32.060000	496.000000	0.000000	112.000000	55.000000	-7.000000	-38.000000
0.580000	52.690000	31.740000	494.000000	0.000000	112.000000	55.000000	-11.000000	-32.000000
0.590000	52.570000	31.480000	499.000000	0.000000	114.000000	55.000000	-12.000000	-26.000000
0.600000	52.430000	31.300000	492.000000	0.000000	114.000000	55.000000	-14.000000	-18.000000
0.610000	52.200000	31.160000	492.000000	0.000000	114.000000	55.000000	-23.000000	-14.000000
0.620000	51.920000	31.050000	473.000000	0.000000	114.000000	55.000000	-28.000000	-11.000000
0.630000	51.690000	30.960000	442.000000	0.000000	115.000000	54.000000	-23.000000	-9.000000
0.640000	51.490000	30.960000	279.000000	0.000000	114.000000	55.000000	-20.000000	0.000000
0.650000	51.360000	30.960000	90.000000	0.000000	114.000000	55.000000	-13.000000	0.000000
0.660000	51.360000	30.960000	0.000000	1.000000	114.000000	55.000000	0.000000	0.000000
0.670000	51.360000	31.010000	0.000000	0.000000	113.000000	54.000000	0.000000	5.000000
0.680000	51.530000	31.010000	0.000000	0.000000	113.000000	54.000000	17.000000	0.000000
0.690000	51.740000	30.940000	0.000000	0.000000	113.000000	54.000000	21.000000	-7.000000
0.700000	52.000000	30.860000	0.000000	0.000000	113.000000	54.000000	26.000000	-8.000000
0.710000	52.390000	30.800000	0.000000	0.000000	113.000000	54.000000	39.000000	-6.000000
0.720000	52.860000	30.720000	0.000000	0.000000	113.000000	54.000000	47.000000	-8.000000
0.730000	53.340000	30.620000	0.000000	0.000000	112.000000	54.000000	48.000000	-10.000000
0.740000	53.790000	30.500000	0.000000	0.000000	112.000000	54.000000	45.000000	-12.000000
0.750000	54.210000	30.390000	0.000000	0.000000	112.000000	54.000000	42.000000	-11.000000
0.760000	54.570000	30.300000	0.000000	0.000000	112.000000	54.000000	36.000000	-9.000000
0.770000	54.880000	30.300000	0.000000	0.000000	112.000000	54.000000	31.000000	0.000000
0.780000	55.070000	30.300000	0.000000	0.000000	112.000000	54.000000	19.000000	0.000000
0.790000	55.180000	30.300000	0.000000	0.000000	112.000000	54.000000	11.000000	0.000000
0.800000	55.240000	30.300000	0.000000	0.000000	112.000000	55.000000	6.000000	0.000000
0.810000	55.240000	30.370000	0.000000	0.000000	112.000000	55.000000	0.000000	7.000000
0.820000	55.240000	30.480000	0.000000	0.000000	112.000000	55.000000	0.000000	11.000000
0.830000	55.240000	30.620000	0.000000	0.000000	112.000000	55.000000	0.000000	14.000000
0.840000	55.240000	30.720000	0.000000	0.000000	112.000000	55.000000	0.000000	10.000000
0.850000	55.240000	30.820000	0.000000	0.000000	112.000000	55.000000	0.000000	10.000000
0.860000	55.130000	30.940000	0.000000	0.000000	114.000000	55.000000	-11.000000	12.000000
0.870000	55.030000	30.940000	0.000000	0.000000	114.000000	55.000000	-10.000000	0.000000
0.880000	54.900000	31.010000	0.000000	0.000000	114.000000	55.000000	-13.000000	7.000000
0.890000	54.760000	31.010000	0.000000	0.000000	114.000000	55.000000	-14.000000	0.000000
0.900000	54.760000	31.010000	36.000000	1.000000	114.000000	55.000000	0.000000	0.000000
0.910000	54.450000	31.070000	51.000000	0.000000	114.000000	55.000000	-31.000000	6.000000
0.920000	54.280000	31.070000	81.000000	0.000000	114.000000	55.000000	-17.000000	0.000000
0.930000	54.090000	31.070000	141.000000	0.000000	115.000000	54.000000	-19.000000	0.000000
0.940000	53.950000	31.070000	153.000000	0.000000	115.000000	54.000000	-14.000000	0.000000
0.950000	53.810000	30.960000	163.000000	0.000000	115.000000	54.000000	-14.000000	-11.000000
0.960000	53.660000	30.820000	167.000000	0.000000	114.000000	55.000000	-15.000000	-14.000000
0.970000	53.510000	30.640000	170.000000	0.000000	114.000000	55.000000	-15.000000	-18.000000
0.980000	53.370000	30.400000	184.000000	0.000000	114.000000	55.000000	-14.000000	-24.000000
0.990000	53.290000	30.170000	170.000000	0.000000	114.000000	55.000000	-8.000000	-23.000000
1.000000	53.240000	29.950000	180.000000	0.000000	114.000000	55.000000	-5.000000	-22.000000
1.010000	53.240000	29.740000	188.000000	0.000000	114.000000	55.000000	0.000000	-21.000000
1.020000	53.290000	29.490000	195.000000	0.000000	114.000000	55.000000	5.000000	-25.000000
1.030000	53.370000	29.250000	195.000000	0.000000	114.000000	55.000000	8.000000	-24.000000
1.040000	53.500000	29.080000	212.000000	0.000000	114.000000	55.000000	13.000000	-17.000000
1.050000	53.670000	28.950000	220.000000	0.000000	114.000000	55.000000	17.000000	-13.000000
1.060000	53.880000	28.900000	206.000000	0.000000	115.000000	55.000000	21.000000	-5.000000
1.070000	54.090000	28.970000	223.000000	0.000000	115.000000	55.000000	21.000000	7.000000
1.080000	54.290000	29.120000	244.000000	0.000000	115.000000	55.000000	20.000000	15.000000
1.090000	54.440000	29.350000	249.000000	0.000000	115.000000	55.000000	15.000000	23.000000
1.100000	54.570000	29.600000	249.000000	0.000000	115.000000	55.000000	13.000000	25.000000
1.110000	54.650000	29.870000	279.000000	0.000000	115.000000	55.000000	8.000000	27.000000
1.120000	54.650000	30.120000	292.000000	0.000000	115.000000	55.000000	0.000000	25.000000
1.130000	54.710000	30.380000	301.000000	0.000000	115.000000	55.000000	6.000000	26.000000
1.140000	54.710000	30.660000	314.000000	0.000000	115.000000	55.000000	0.000000	28.000000
1.150000	54.630000	30.850000	304.000000	0.000000	115.000000	55.000000	-8.000000	19.000000
1.160000	54.570000	31.030000	339.000000	0.000000	115.000000	55.000000	-6.000000	18.000000
1.170000	54.520000	31.140000	341.000000	0.000000	114.000000	55.000000	-5.000000	11.000000
1.180000	54.470000	31.140000	351.000000	0.000000	114.000000	55.000000	-5.000000	0.000000
1.190000	54.470000	31.210000	358.000000	0.000000	114.000000	55.000000	0.000000	7.000000
1.200000	54.470000	31.210000	363.000000	0.000000	114.000000	55.000000	0.000000	0.000000
1.210000	54.420000	31.130000	363.000000	0.000000	115.000000	54.000000	-5.000000	-8.000000
1.220000	54.420000	31.000000	363.000000	0.000000	115.000000	54.000000	0.000000	-13.000000
1.230000	54.420000	30.800000	364.000000	0.000000	115.000000	54.000000	0.000000	-20.000000
1.240000	54.490000	30.600000	368.000000	0.000000	115.000000	54.000000	7.000000	-20.000000
1.250000	54.550000	30.400000	369.000000	0.000000	115.000000	54.000000	6.000000	-20.000000
1.260000	54.630000	30.210000	368.000000	0.000000	115.000000	54.000000	8.000000	-19.000000
1.270000	54.720000	29.930000	368.000000	0.000000	115.000000	54.000000	9.000000	-28.000000
1.280000	54.810000	29.650000	368.000000	0.000000	116.000000	55.000000	9.000000	-28.000000
1.290000	54.870000	29.360000	369.000000	0.000000	115.000000	55.000000	6.000000	-29.000000
1.300000	54.970000	29.140000	364.000000	0.000000	115.000000	55.000000	10.000000	-22.000000
1.310000	55.070000	28.980000	363.000000	0.000000	115.000000	55.000000	10.000000	-16.000000
1.320000	55.180000	28.900000	361.000000	0.000000	115.000000	55.000000	11.000000	-8.000000
1.330000	55.320000	28.900000	361.000000	0.000000	115.000000	55.000000	14.000000	0.000000
1.340000	55.460000	28.900000	363.000000	0.000000	115.000000	55.000000	14.000000	0.000000
1.350000	55.620000	29.010000	371.000000	0.000000	115.000000	55.000000	16.000000	11.000000
1.360000	55.800000	29.160000	362.000000	0.000000	115.000000	55.000000	18.000000	15.000000
1.370000	55.940000	29.330000	371.000000	0.000000	115.000000	55.000000	14.000000	17.000000
1.380000	56.070000	29.570000	376.000000	0.000000	115.000000	55.000000	13.000000	24.000000
1.390000	56.180000	29.820000	377.000000	0.000000	115.000000	55.000000	11.000000	25.000000
1.400000	56.290000	30.080000	379.000000	0.000000	115.000000	55.000000	11.000000	26.000000
1.410000	56.340000	30.280000	386.000000	0.000000	115.000000	55.000000	5.000000	20.000000
1.420000	56.340000	30.470000	387.000000	0.000000	115.000000	55.000000	0.000000	19.000000
1.430000	56.340000	30.620000	388.000000	0.000000	115.000000	55.000000	0.000000	15.000000
1.440000	56.340000	30.780000	402.000000	0.000000	115.000000	55.000000	0.000000	16.000000
1.450000	56.340000	30.910000	404.000000	0.000000	115.000000	55.000000	0.000000	13.000000
1.460000	56.280000	31.000000	404.000000	0.000000	116.000000	55.000000	-6.000000	9.000000
1.470000	56.280000	31.090000	407.000000	0.000000	116.000000	55.000000	0.000000	9.000000
1.480000	56.230000	31.150000	409.000000	0.000000	116.000000	55.000000	-5.000000	6.000000
1.490000	56.230000	31.150000	425.000000	0.000000	116.000000	55.000000	0.000000	0.000000
1.500000	56.230000	31.150000	417.000000	0.000000	116.000000	55.000000	0.000000	0.000000
1.510000	56.230000	31.150000	431.000000	0.000000	116.000000	55.000000	0.000000	0.000000
1.520000	56.230000	31.150000	427.000000	0.000000	116.000000	55.000000	0.000000	0.000000
1.530000	56.230000	31.150000	422.000000	0.000000	116.000000	55.000000	0.000000	0.000000
1.540000	56.230000	31.150000	418.000000	0.000000	116.000000	55.000000	0.000000	0.000000
1.550000	56.230000	31.050000	423.000000	0.000000	116.000000	55.000000	0.000000	-10.000000
1.560000	56.230000	30.880000	417.000000	0.000000	116.000000	55.000000	0.000000	-17.000000
1.570000	56.280000	30.640000	422.000000	0.000000	116.000000	55.000000	5.000000	-24.000000
1.580000	56.280000	30.330000	418.000000	0.000000	116.000000	55.000000	0.000000	-31.000000
1.590000	56.280000	30.080000	420.000000	0.000000	116.000000	55.000000	0.000000	-25.000000
1.600000	56.280000	29.870000	418.000000	0.000000	116.000000	55.000000	0.000000	-21.000000
1.610000	56.380000	29.650000	418.000000	0.000000	117.000000	56.000000	10.000000	-22.000000
1.620000	56.380000	29.650000	414.000000	0.000000	117.000000	56.000000	0.000000	0.000000
1.630000	56.380000	29.650000	407.000000	0.000000	117.000000	56.000000	0.000000	0.000000
1.640000	56.670000	29.420000	402.000000	0.000000	117.000000	56.000000	29.000000	-23.000000
1.650000	56.800000	29.420000	415.000000	0.000000	117.000000	56.000000	13.000000	0.000000
1.660000	56.970000	29.560000	415.000000	0.000000	117.000000	56.000000	17.000000	14.000000
1.670000	57.130000	29.810000	417.000000	0.000000	117.000000	56.000000	16.000000	25.000000
1.680000	57.270000	30.050000	425.000000	0.000000	117.000000	56.000000	14.000000	24.000000
1.690000	57.420000	30.270000	414.000000	0.000000	117.000000	56.000000	15.000000	22.000000
1.700000	57.500000	30.480000	425.000000	0.000000	117.000000	56.000000	8.000000	21.000000
1.710000	57.500000	30.660000	415.000000	0.000000	117.000000	56.000000	0.000000	18.000000
1.720000	57.500000	30.850000	418.000000	0.000000	117.000000	56.000000	0.000000	19.000000
1.730000	57.500000	31.030000	420.000000	0.000000	117.000000	56.000000	0.000000	18.000000
1.740000	57.430000	31.190000	428.000000	0.000000	117.000000	56.000000	-7.000000	16.000000
1.750000	57.370000	31.280000	446.000000	0.000000	117.000000	56.000000	-6.000000	9.000000
1.760000	57.370000	31.280000	445.000000	0.000000	117.000000	56.000000	0.000000	0.000000
1.770000	57.310000	31.280000	443.000000	0.000000	117.000000	56.000000	-6.000000	0.000000
1.780000	57.310000	31.280000	446.000000	0.000000	117.000000	56.000000	0.000000	0.000000
1.790000	57.310000	31.280000	438.000000	0.000000	117.000000	56.000000	0.000000	0.000000
1.800000	57.310000	31.280000	438.000000	0.000000	117.000000	56.000000	0.000000	0.000000
1.810000	57.310000	31.130000	436.000000	0.000000	117.000000	56.000000	0.000000	-15.000000
1.820000	57.310000	30.950000	436.000000	0.000000	117.000000	56.000000	0.000000	-18.000000
1.830000	57.310000	30.760000	438.000000	0.000000	117.000000	56.000000	0.000000	-19.000000
1.840000	57.360000	30.560000	433.000000	0.000000	117.000000	56.000000	5.000000	-20.000000
1.850000	57.470000	30.360000	430.000000	0.000000	117.000000	56.000000	11.000000	-20.000000
1.860000	57.590000	30.180000	425.000000	0.000000	117.000000	56.000000	12.000000	-18.000000
1.870000	57.710000	30.050000	418.000000	0.000000	117.000000	56.000000	12.000000	-13.000000
1.880000	57.880000	29.930000	418.000000	0.000000	117.000000	56.000000	17.000000	-12.000000
1.890000	58.040000	29.930000	420.000000	0.000000	115.000000	55.000000	16.000000	0.000000
1.900000	58.240000	29.930000	414.000000	0.000000	114.000000	55.000000	20.000000	0.000000
1.910000	58.410000	30.020000	425.000000	0.000000	114.000000	55.000000	17.000000	9.000000
1.920000	58.570000	30.160000	417.000000	0.000000	113.000000	54.000000	16.000000	14.000000
1.930000	58.770000	30.340000	425.000000	0.000000	113.000000	54.000000	20.000000	18.000000
1.940000	58.960000	30.560000	430.000000	0.000000	113.000000	54.000000	19.000000	22.000000
1.950000	59.150000	30.850000	438.000000	0.000000	112.000000	53.000000	19.000000	29.000000
1.960000	59.310000	31.200000	443.000000	0.000000	112.000000	53.000000	16.000000	35.000000
1.970000	59.480000	31.600000	444.000000	0.000000	113.000000	54.000000	17.000000	40.000000
1.980000	59.550000	32.010000	441.000000	0.000000	113.000000	54.000000	7.000000	41.000000
1.990000	59.550000	32.410000	433.000000	0.000000	114.000000	53.000000	0.000000	40.000000
2.000000	59.420000	32.790000	431.000000	0.000000	114.000000	53.000000	-13.000000	38.000000
2.010000	59.220000	33.150000	420.000000	0.000000	114.000000	53.000000	-20.000000	36.000000
2.020000	58.980000	33.470000	422.000000	0.000000	114.000000	53.000000	-24.000000	32.000000
2.030000	58.770000	33.700000	422.000000	0.000000	114.000000	53.000000	-21.000000	23.000000
2.040000	58.590000	33.840000	430.000000	0.000000	113.000000	54.000000	-18.000000	14.000000
2.050000	58.450000	33.890000	438.000000	0.000000	113.000000	54.000000	-14.000000	5.000000
2.060000	58.330000	33.890000	435.000000	0.000000	113.000000	54.000000	-12.000000	0.000000
2.070000	58.250000	33.890000	435.000000	0.000000	113.000000	54.000000	-8.000000	0.000000
2.080000	58.200000	33.770000	427.000000	0.000000	112.000000	53.000000	-5.000000	-12.000000
2.090000	58.200000	33.670000	428.000000	0.000000	112.000000	53.000000	0.000000	-10.000000
2.100000	58.200000	33.560000	423.000000	0.000000	112.000000	53.000000	0.000000	-11.000000
2.110000	58.280000	33.350000	427.000000	0.000000	112.000000	53.000000	8.000000	-21.000000
2.120000	58.360000	33.110000	438.000000	0.000000	112.000000	53.000000	8.000000	-24.000000
2.130000	58.460000	32.810000	435.000000	0.000000	112.000000	53.000000	10.000000	-30.000000
2.140000	58.580000	32.460000	428.000000	0.000000	112.000000	53.000000	12.000000	-35.000000
2.150000	58.720000	32.080000	423.000000	0.000000	112.000000	53.000000	14.000000	-38.000000
2.160000	58.850000	31.680000	425.000000	0.000000	112.000000	53.000000	13.000000	-40.000000
2.170000	58.970000	31.310000	425.000000	0.000000	114.000000	53.000000	12.000000	-37.000000
2.180000	59.140000	31.020000	423.000000	0.000000	114.000000	53.000000	17.000000	-29.000000
2.190000	59.290000	30.760000	423.000000	0.000000	114.000000	53.000000	15.000000	-26.000000
2.200000	59.430000	30.540000	428.000000	0.000000	114.000000	53.000000	14.000000	-22.000000
2.210000	59.600000	30.430000	427.000000	0.000000	114.000000	53.000000	17.000000	-11.000000
