t	x	y	pressure	penup	azimuth	inclination	v_x	v_y
0.000000	50.430000	64.250000	185.000000	1.000000	147.000000	53.000000	0.000000	0.000000
0.010000	50.590000	64.560000	282.000000	0.000000	148.000000	54.000000	16.000000	31.000000
0.020000	50.650000	64.670000	359.000000	0.000000	148.000000	54.000000	6.000000	11.000000
0.030000	50.650000	64.740000	431.000000	0.000000	147.000000	55.000000	0.000000	7.000000
0.040000	50.650000	64.740000	465.000000	0.000000	149.000000	55.000000	0.000000	0.000000
0.050000	50.650000	64.740000	489.000000	0.000000	149.000000	55.000000	0.000000	0.000000
0.060000	50.650000	64.660000	512.000000	0.000000	149.000000	55.000000	0.000000	-8.000000
0.070000	50.650000	64.520000	539.000000	0.000000	150.000000	55.000000	0.000000	-14.000000
0.080000	50.720000	64.300000	577.000000	0.000000	150.000000	55.000000	7.000000	-22.000000
0.090000	50.790000	63.940000	597.000000	0.000000	150.000000	55.000000	7.000000	-36.000000
0.100000	50.850000	63.490000	610.000000	0.000000	149.000000	55.000000	6.000000	-45.000000
0.110000	50.900000	63.050000	624.000000	0.000000	149.000000	55.000000	5.000000	-44.000000
0.120000	50.900000	62.580000	641.000000	0.000000	147.000000	55.000000	0.000000	-47.000000
0.130000	50.900000	62.070000	641.000000	0.000000	148.000000	54.000000	0.000000	-51.000000
0.140000	50.900000	61.540000	641.000000	0.000000	147.000000	53.000000	0.000000	-53.000000
0.150000	50.900000	61.020000	630.000000	0.000000	147.000000	53.000000	0.000000	-52.000000
0.160000	50.900000	60.580000	611.000000	0.000000	147.000000	53.000000	0.000000	-44.000000
0.170000	50.900000	60.320000	545.000000	0.000000	145.000000	54.000000	0.000000	-26.000000
0.180000	50.900000	60.180000	448.000000	0.000000	145.000000	54.000000	0.000000	-14.000000
0.190000	50.900000	60.180000	291.000000	0.000000	145.000000	54.000000	0.000000	0.000000
0.200000	50.900000	60.180000	0.000000	1.000000	146.000000	54.000000	0.000000	0.000000
0.210000	50.900000	60.430000	0.000000	0.000000	146.000000	54.000000	0.000000	25.000000
0.220000	50.840000	60.760000	0.000000	0.000000	146.000000	54.000000	-6.000000	33.000000
0.230000	50.710000	61.120000	0.000000	0.000000	147.000000	55.000000	-13.000000	36.000000
0.240000	50.480000	61.490000	0.000000	0.000000	147.000000	55.000000	-23.000000	37.000000
0.250000	50.170000	61.830000	0.000000	0.000000	147.000000	55.000000	-31.000000	34.000000
0.260000	49.920000	62.210000	0.000000	0.000000	147.000000	55.000000	-25.000000	38.000000
0.270000	49.710000	62.630000	0.000000	0.000000	147.000000	55.000000	-21.000000	42.000000
0.280000	49.560000	63.070000	0.000000	0.000000	147.000000	55.000000	-15.000000	44.000000
0.290000	49.490000	63.390000	0.000000	0.000000	148.000000	54.000000	-7.000000	32.000000
0.300000	49.440000	63.700000	0.000000	0.000000	150.000000	54.000000	-5.000000	31.000000
0.310000	49.440000	63.700000	180.000000	1.000000	150.000000	54.000000	0.000000	0.000000
0.320000	49.370000	64.290000	251.000000	0.000000	150.000000	54.000000	-7.000000	59.000000
0.330000	49.370000	64.590000	309.000000	0.000000	151.000000	54.000000	0.000000	30.000000
0.340000	49.290000	64.720000	400.000000	0.000000	151.000000	54.000000	-8.000000	13.000000
0.350000	49.290000	64.860000	448.000000	0.000000	153.000000	55.000000	0.000000	14.000000
0.360000	49.290000	65.020000	473.000000	0.000000	153.000000	55.000000	0.000000	16.000000
0.370000	49.380000	65.110000	495.000000	0.000000	152.000000	56.000000	9.000000	9.000000
0.380000	49.590000	65.200000	519.000000	0.000000	152.000000	56.000000	21.000000	9.000000
0.390000	49.900000	65.280000	515.000000	0.000000	152.000000	56.000000	31.000000	8.000000
0.400000	50.280000	65.360000	529.000000	0.000000	152.000000	56.000000	38.000000	8.000000
0.410000	50.720000	65.430000	544.000000	0.000000	152.000000	56.000000	44.000000	7.000000
0.420000	51.130000	65.430000	556.000000	0.000000	152.000000	56.000000	41.000000	0.000000
0.430000	51.510000	65.360000	565.000000	0.000000	152.000000	56.000000	38.000000	-7.000000
0.440000	51.840000	65.280000	568.000000	0.000000	150.000000	55.000000	33.000000	-8.000000
0.450000	52.180000	65.200000	570.000000	0.000000	150.000000	55.000000	34.000000	-8.000000
0.460000	52.520000	65.050000	562.000000	0.000000	150.000000	55.000000	34.000000	-15.000000
0.470000	52.690000	64.890000	543.000000	0.000000	149.000000	55.000000	17.000000	-16.000000
0.480000	52.760000	64.690000	540.000000	0.000000	149.000000	55.000000	7.000000	-20.000000
0.490000	52.760000	64.440000	544.000000	0.000000	149.000000	55.000000	0.000000	-25.000000
0.500000	52.760000	64.110000	524.000000	0.000000	147.000000	55.000000	0.000000	-33.000000
0.510000	52.700000	63.860000	519.000000	0.000000	148.000000	54.000000	-6.000000	-25.000000
0.520000	52.570000	63.660000	512.000000	0.000000	150.000000	54.000000	-13.000000	-20.000000
0.530000	52.370000	63.360000	514.000000	0.000000	150.000000	54.000000	-20.000000	-30.000000
0.540000	52.110000	63.160000	477.000000	0.000000	150.000000	54.000000	-26.000000	-20.000000
0.550000	51.880000	63.030000	427.000000	0.000000	150.000000	54.000000	-23.000000	-13.000000
0.560000	51.660000	62.900000	338.000000	0.000000	150.000000	54.000000	-22.000000	-13.000000
0.570000	51.450000	62.770000	106.000000	0.000000	150.000000	54.000000	-21.000000	-13.000000
0.580000	51.450000	62.770000	0.000000	1.000000	151.000000	53.000000	0.000000	0.000000
0.590000	51.100000	62.540000	0.000000	0.000000	151.000000	53.000000	-35.000000	-23.000000
0.600000	51.050000	62.540000	0.000000	0.000000	151.000000	53.000000	-5.000000	0.000000
0.610000	51.120000	62.540000	0.000000	0.000000	151.000000	53.000000	7.000000	0.000000
0.620000	51.270000	62.610000	0.000000	0.000000	151.000000	53.000000	15.000000	7.000000
0.630000	51.510000	62.610000	0.000000	0.000000	151.000000	53.000000	24.000000	0.000000
0.640000	51.860000	62.670000	0.000000	0.000000	151.000000	53.000000	35.000000	6.000000
0.650000	52.250000	62.670000	0.000000	0.000000	149.000000	53.000000	39.000000	0.000000
0.660000	52.650000	62.670000	0.000000	0.000000	149.000000	53.000000	40.000000	0.000000
0.670000	52.970000	62.670000	0.000000	0.000000	148.000000	53.000000	32.000000	0.000000
0.680000	53.230000	62.670000	0.000000	0.000000	148.000000	53.000000	26.000000	0.000000
0.690000	53.340000	62.610000	0.000000	0.000000	148.000000	53.000000	11.000000	-6.000000
0.700000	53.390000	62.610000	0.000000	0.000000	147.000000	52.000000	5.000000	0.000000
0.710000	53.390000	62.520000	0.000000	0.000000	147.000000	52.000000	0.000000	-9.000000
0.720000	53.470000	62.520000	0.000000	0.000000	148.000000	53.000000	8.000000	0.000000
0.730000	53.540000	62.520000	0.000000	0.000000	148.000000	53.000000	7.000000	0.000000
0.740000	53.540000	62.520000	144.000000	1.000000	148.000000	53.000000	0.000000	0.000000
0.750000	53.540000	62.520000	218.000000	0.000000	148.000000	53.000000	0.000000	0.000000
0.760000	53.540000	62.520000	332.000000	0.000000	148.000000	53.000000	0.000000	0.000000
0.770000	53.690000	62.650000	441.000000	0.000000	148.000000	53.000000	15.000000	13.000000
0.780000	53.690000	62.710000	514.000000	0.000000	148.000000	53.000000	0.000000	6.000000
0.790000	53.690000	62.710000	559.000000	0.000000	148.000000	53.000000	0.000000	0.000000
0.800000	53.690000	62.710000	594.000000	0.000000	149.000000	53.000000	0.000000	0.000000
0.810000	53.690000	62.710000	620.000000	0.000000	149.000000	53.000000	0.000000	0.000000
0.820000	53.610000	62.710000	631.000000	0.000000	149.000000	53.000000	-8.000000	0.000000
0.830000	53.560000	62.710000	641.000000	0.000000	149.000000	53.000000	-5.000000	0.000000
0.840000	53.410000	62.710000	645.000000	0.000000	149.000000	53.000000	-15.000000	0.000000
0.850000	53.260000	62.710000	644.000000	0.000000	149.000000	53.000000	-15.000000	0.000000
0.860000	53.020000	62.610000	641.000000	0.000000	149.000000	53.000000	-24.000000	-10.000000
0.870000	52.730000	62.470000	642.000000	0.000000	149.000000	53.000000	-29.000000	-14.000000
0.880000	52.480000	62.290000	636.000000	0.000000	148.000000	54.000000	-25.000000	-18.000000
0.890000	52.250000	62.080000	630.000000	0.000000	148.000000	54.000000	-23.000000	-21.000000
0.900000	52.070000	61.880000	616.000000	0.000000	148.000000	54.000000	-18.000000	-20.000000
0.910000	52.010000	61.690000	613.000000	0.000000	147.000000	53.000000	-6.000000	-19.000000
0.920000	52.010000	61.540000	603.000000	0.000000	147.000000	53.000000	0.000000	-15.000000
0.930000	52.010000	61.410000	594.000000	0.000000	147.000000	53.000000	0.000000	-13.000000
0.940000	52.130000	61.290000	569.000000	0.000000	146.000000	53.000000	12.000000	-12.000000
0.950000	52.230000	61.210000	565.000000	0.000000	146.000000	53.000000	10.000000	-8.000000
0.960000	52.370000	61.150000	559.000000	0.000000	146.000000	53.000000	14.000000	-6.000000
0.970000	52.540000	61.240000	557.000000	0.000000	146.000000	53.000000	17.000000	9.000000
0.980000	52.770000	61.390000	556.000000	0.000000	146.000000	53.000000	23.000000	15.000000
0.990000	53.000000	61.580000	550.000000	0.000000	146.000000	53.000000	23.000000	19.000000
1.000000	53.240000	61.840000	550.000000	0.000000	147.000000	53.000000	24.000000	26.000000
1.010000	53.430000	62.100000	556.000000	0.000000	147.000000	53.000000	19.000000	26.000000
1.020000	53.580000	62.360000	562.000000	0.000000	147.000000	53.000000	15.000000	26.000000
1.030000	53.680000	62.530000	569.000000	0.000000	147.000000	53.000000	10.000000	17.000000
1.040000	53.680000	62.640000	595.000000	0.000000	148.000000	54.000000	0.000000	11.000000
1.050000	53.680000	62.640000	603.000000	0.000000	148.000000	54.000000	0.000000	0.000000
1.060000	53.680000	62.640000	614.000000	0.000000	148.000000	54.000000	0.000000	0.000000
1.070000	53.680000	62.640000	609.000000	0.000000	148.000000	54.000000	0.000000	0.000000
1.080000	53.680000	62.640000	613.000000	0.000000	148.000000	54.000000	0.000000	0.000000
1.090000	53.630000	62.590000	611.000000	0.000000	148.000000	54.000000	-5.000000	-5.000000
1.100000	53.630000	62.510000	609.000000	0.000000	148.000000	54.000000	0.000000	-8.000000
1.110000	53.630000	62.420000	613.000000	0.000000	148.000000	54.000000	0.000000	-9.000000
1.120000	53.630000	62.420000	606.000000	0.000000	148.000000	54.000000	0.000000	0.000000
1.130000	53.750000	62.020000	597.000000	0.000000	148.000000	54.000000	12.000000	-40.000000
1.140000	53.840000	61.840000	585.000000	0.000000	148.000000	54.000000	9.000000	-18.000000
1.150000	53.940000	61.680000	586.000000	0.000000	148.000000	54.000000	10.000000	-16.000000
1.160000	54.060000	61.550000	572.000000	0.000000	148.000000	54.000000	12.000000	-13.000000
1.170000	54.230000	61.450000	567.000000	0.000000	148.000000	54.000000	17.000000	-10.000000
1.180000	54.400000	61.370000	556.000000	0.000000	148.000000	54.000000	17.000000	-8.000000
1.190000	54.550000	61.370000	536.000000	0.000000	148.000000	54.000000	15.000000	0.000000
1.200000	54.690000	61.450000	532.000000	0.000000	148.000000	54.000000	14.000000	8.000000
1.210000	54.870000	61.620000	527.000000	0.000000	148.000000	54.000000	18.000000	17.000000
1.220000	55.050000	61.850000	527.000000	0.000000	148.000000	54.000000	18.000000	23.000000
1.230000	55.250000	62.110000	530.000000	0.000000	148.000000	54.000000	20.000000	26.000000
1.240000	55.350000	62.300000	540.000000	0.000000	150.000000	54.000000	10.000000	19.000000
1.250000	55.350000	62.470000	537.000000	0.000000	150.000000	54.000000	0.000000	17.000000
1.260000	55.410000	62.580000	561.000000	0.000000	150.000000	54.000000	6.000000	11.000000
1.270000	55.410000	62.650000	584.000000	0.000000	150.000000	54.000000	0.000000	7.000000
1.280000	55.360000	62.650000	595.000000	0.000000	150.000000	54.000000	-5.000000	0.000000
1.290000	55.360000	62.650000	613.000000	0.000000	150.000000	54.000000	0.000000	0.000000
1.300000	55.360000	62.650000	619.000000	0.000000	150.000000	54.000000	0.000000	0.000000
1.310000	55.360000	62.700000	613.000000	0.000000	150.000000	54.000000	0.000000	5.000000
1.320000	55.360000	62.700000	617.000000	0.000000	150.000000	54.000000	0.000000	0.000000
1.330000	55.360000	62.700000	617.000000	0.000000	150.000000	54.000000	0.000000	0.000000
1.340000	55.360000	62.700000	617.000000	0.000000	150.000000	54.000000	0.000000	0.000000
1.350000	55.360000	62.640000	611.000000	0.000000	150.000000	54.000000	0.000000	-6.000000
1.360000	55.360000	62.640000	614.000000	0.000000	150.000000	54.000000	0.000000	0.000000
1.370000	55.360000	62.560000	617.000000	0.000000	150.000000	54.000000	0.000000	-8.000000
1.380000	55.360000	62.450000	614.000000	0.000000	150.000000	54.000000	0.000000	-11.000000
1.390000	55.360000	62.340000	611.000000	0.000000	150.000000	54.000000	0.000000	-11.000000
1.400000	55.360000	62.220000	610.000000	0.000000	150.000000	54.000000	0.000000	-12.000000
1.410000	55.410000	62.090000	610.000000	0.000000	150.000000	54.000000	5.000000	-13.000000
1.420000	55.480000	61.950000	613.000000	0.000000	150.000000	54.000000	7.000000	-14.000000
1.430000	55.570000	61.820000	606.000000	0.000000	150.000000	54.000000	9.000000	-13.000000
1.440000	55.680000	61.710000	594.000000	0.000000	150.000000	54.000000	11.000000	-11.000000
1.450000	55.810000	61.620000	591.000000	0.000000	150.000000	54.000000	13.000000	-9.000000
1.460000	55.940000	61.560000	572.000000	0.000000	150.000000	54.000000	13.000000	-6.000000
1.470000	56.140000	61.560000	557.000000	0.000000	150.000000	54.000000	20.000000	0.000000
1.480000	56.330000	61.700000	537.000000	0.000000	150.000000	54.000000	19.000000	14.000000
1.490000	56.500000	61.840000	537.000000	0.000000	151.000000	54.000000	17.000000	14.000000
1.500000	56.620000	62.010000	529.000000	0.000000	151.000000	54.000000	12.000000	17.000000
1.510000	56.760000	62.210000	530.000000	0.000000	151.000000	54.000000	14.000000	20.000000
1.520000	56.820000	62.350000	535.000000	0.000000	151.000000	54.000000	6.000000	14.000000
1.530000	56.820000	62.490000	556.000000	0.000000	151.000000	54.000000	0.000000	14.000000
1.540000	56.820000	62.590000	570.000000	0.000000	151.000000	54.000000	0.000000	10.000000
1.550000	56.820000	62.670000	570.000000	0.000000	151.000000	54.000000	0.000000	8.000000
1.560000	56.820000	62.720000	578.000000	0.000000	151.000000	54.000000	0.000000	5.000000
1.570000	56.820000	62.720000	581.000000	0.000000	151.000000	54.000000	0.000000	0.000000
1.580000	56.770000	62.790000	581.000000	0.000000	151.000000	54.000000	-5.000000	7.000000
1.590000	56.770000	62.790000	581.000000	0.000000	151.000000	54.000000	0.000000	0.000000
1.600000	56.770000	62.790000	580.000000	0.000000	152.000000	54.000000	0.000000	0.000000
1.610000	56.770000	62.790000	586.000000	0.000000	152.000000	54.000000	0.000000	0.000000
1.620000	56.770000	62.790000	586.000000	0.000000	152.000000	54.000000	0.000000	0.000000
1.630000	56.770000	62.790000	589.000000	0.000000	152.000000	54.000000	0.000000	0.000000
1.640000	56.770000	62.690000	591.000000	0.000000	152.000000	54.000000	0.000000	-10.000000
1.650000	56.770000	62.610000	591.000000	0.000000	152.000000	54.000000	0.000000	-8.000000
1.660000	56.770000	62.520000	591.000000	0.000000	152.000000	54.000000	0.000000	-9.000000
1.670000	56.770000	62.410000	586.000000	0.000000	151.000000	54.000000	0.000000	-11.000000
1.680000	56.820000	62.290000	595.000000	0.000000	151.000000	54.000000	5.000000	-12.000000
1.690000	56.870000	62.150000	585.000000	0.000000	151.000000	54.000000	5.000000	-14.000000
1.700000	56.960000	62.050000	591.000000	0.000000	151.000000	54.000000	9.000000	-10.000000
1.710000	57.080000	62.000000	589.000000	0.000000	151.000000	54.000000	12.000000	-5.000000
1.720000	57.210000	62.000000	586.000000	0.000000	151.000000	54.000000	13.000000	0.000000
1.730000	57.370000	61.940000	578.000000	0.000000	151.000000	54.000000	16.000000	-6.000000
1.740000	57.530000	61.940000	570.000000	0.000000	151.000000	54.000000	16.000000	0.000000
1.750000	57.690000	61.940000	560.000000	0.000000	153.000000	55.000000	16.000000	0.000000
1.760000	57.830000	62.050000	570.000000	0.000000	153.000000	55.000000	14.000000	11.000000
1.770000	57.960000	62.190000	561.000000	0.000000	153.000000	55.000000	13.000000	14.000000
1.780000	58.120000	62.370000	562.000000	0.000000	151.000000	54.000000	16.000000	18.000000
1.790000	58.300000	62.630000	562.000000	0.000000	151.000000	54.000000	18.000000	26.000000
1.800000	58.430000	62.890000	561.000000	0.000000	150.000000	54.000000	13.000000	26.000000
1.810000	58.530000	63.200000	561.000000	0.000000	150.000000	54.000000	10.000000	31.000000
1.820000	58.650000	63.550000	554.000000	0.000000	150.000000	54.000000	12.000000	35.000000
1.830000	58.740000	64.030000	565.000000	0.000000	148.000000	54.000000	9.000000	48.000000
1.840000	58.800000	64.580000	570.000000	0.000000	150.000000	54.000000	6.000000	55.000000
1.850000	58.800000	65.170000	563.000000	0.000000	150.000000	54.000000	0.000000	59.000000
1.860000	58.800000	65.710000	588.000000	0.000000	151.000000	54.000000	0.000000	54.000000
1.870000	58.740000	66.080000	585.000000	0.000000	152.000000	56.000000	-6.000000	37.000000
1.880000	58.570000	66.330000	619.000000	0.000000	152.000000	56.000000	-17.000000	25.000000
1.890000	58.460000	66.470000	616.000000	0.000000	153.000000	56.000000	-11.000000	14.000000
1.900000	58.400000	66.570000	628.000000	0.000000	153.000000	56.000000	-6.000000	10.000000
1.910000	58.400000	66.570000	628.000000	0.000000	154.000000	57.000000	0.000000	0.000000
1.920000	58.400000	66.570000	622.000000	0.000000	154.000000	57.000000	0.000000	0.000000
1.930000	58.340000	66.570000	624.000000	0.000000	154.000000	57.000000	-6.000000	0.000000
1.940000	58.270000	66.390000	625.000000	0.000000	152.000000	57.000000	-7.000000	-18.000000
1.950000	58.170000	66.180000	625.000000	0.000000	152.000000	57.000000	-10.000000	-21.000000
1.960000	58.170000	65.950000	628.000000	0.000000	151.000000	56.000000	0.000000	-23.000000
1.970000	58.100000	65.600000	633.000000	0.000000	151.000000	56.000000	-7.000000	-35.000000
1.980000	58.010000	65.160000	647.000000	0.000000	149.000000	56.000000	-9.000000	-44.000000
1.990000	58.010000	64.700000	638.000000	0.000000	150.000000	55.000000	0.000000	-46.000000
2.000000	58.010000	64.230000	643.000000	0.000000	149.000000	55.000000	0.000000	-47.000000
2.010000	58.010000	63.740000	647.000000	0.000000	147.000000	55.000000	0.000000	-49.000000
2.020000	58.100000	63.270000	649.000000	0.000000	146.000000	54.000000	9.000000	-47.000000
2.030000	58.240000	62.880000	649.000000	0.000000	147.000000	53.000000	14.000000	-39.000000
2.040000	58.410000	62.520000	652.000000	0.000000	146.000000	53.000000	17.000000	-36.000000
2.050000	58.590000	62.210000	652.000000	0.000000	146.000000	53.000000	18.000000	-31.000000
2.060000	58.800000	62.000000	640.000000	0.000000	146.000000	53.000000	21.000000	-21.000000
2.070000	59.010000	61.870000	638.000000	0.000000	146.000000	53.000000	21.000000	-13.000000
2.080000	59.240000	61.870000	622.000000	0.000000	148.000000	53.000000	23.000000	0.000000
2.090000	59.490000	61.870000	616.000000	0.000000	148.000000	53.000000	25.000000	0.000000
2.100000	59.730000	62.050000	600.000000	0.000000	148.000000	53.000000	24.000000	18.000000
2.110000	59.950000	62.220000	592.000000	0.000000	149.000000	53.000000	22.000000	17.000000
2.120000	60.140000	62.410000	595.000000	0.000000	149.000000	53.000000	19.000000	19.000000
2.130000	60.300000	62.610000	588.000000	0.000000	149.000000	53.000000	16.000000	20.000000
2.140000	60.380000	62.810000	570.000000	0.000000	151.000000	53.000000	8.000000	20.000000
2.150000	60.460000	63.010000	569.000000	0.000000	151.000000	53.000000	8.000000	20.000000
2.160000	60.550000	63.220000	574.000000	0.000000	152.000000	54.000000	9.000000	21.000000
2.170000	60.600000	63.340000	581.000000	0.000000	153.000000	54.000000	5.000000	12.000000
2.180000	60.600000	63.460000	585.000000	0.000000	155.000000	54.000000	0.000000	12.000000
2.190000	60.600000	63.530000	600.000000	0.000000	155.000000	54.000000	0.000000	7.000000
2.200000	60.520000	63.530000	608.000000	0.000000	155.000000	54.000000	-8.000000	0.000000
2.210000	60.520000	63.530000	605.000000	0.000000	155.000000	54.000000	0.000000	0.000000
2.220000	60.520000	63.530000	606.000000	0.000000	155.000000	54.000000	0.000000	0.000000
