t	x	y	pressure	penup	azimuth	inclination	v_x	v_y
0.000000	54.780000	46.190000	180.000000	1.000000	107.000000	62.000000	0.000000	0.000000
0.010000	54.600000	45.840000	301.000000	0.000000	107.000000	62.000000	-18.000000	-35.000000
0.020000	54.490000	45.750000	329.000000	0.000000	105.000000	61.000000	-11.000000	-9.000000
0.030000	54.430000	45.750000	384.000000	0.000000	105.000000	61.000000	-6.000000	0.000000
0.040000	54.430000	45.700000	425.000000	0.000000	103.000000	61.000000	0.000000	-5.000000
0.050000	54.550000	45.700000	465.000000	0.000000	103.000000	61.000000	12.000000	0.000000
0.060000	54.660000	45.700000	510.000000	0.000000	103.000000	61.000000	11.000000	0.000000
0.070000	54.820000	45.850000	519.000000	0.000000	101.000000	62.000000	16.000000	15.000000
0.080000	55.090000	46.040000	543.000000	0.000000	101.000000	62.000000	27.000000	19.000000
0.090000	55.430000	46.430000	586.000000	0.000000	101.000000	62.000000	34.000000	39.000000
0.100000	55.840000	46.970000	602.000000	0.000000	101.000000	62.000000	41.000000	54.000000
0.110000	56.270000	47.610000	608.000000	0.000000	103.000000	61.000000	43.000000	64.000000
0.120000	56.690000	48.570000	614.000000	0.000000	103.000000	61.000000	42.000000	96.000000
0.130000	57.040000	49.530000	619.000000	0.000000	105.000000	61.000000	35.000000	96.000000
0.140000	57.350000	50.460000	619.000000	0.000000	107.000000	61.000000	31.000000	93.000000
0.150000	57.640000	51.370000	620.000000	0.000000	109.000000	62.000000	29.000000	91.000000
0.160000	57.810000	52.270000	620.000000	0.000000	111.000000	61.000000	17.000000	90.000000
0.170000	57.900000	53.110000	617.000000	0.000000	113.000000	61.000000	9.000000	84.000000
0.180000	57.900000	53.760000	613.000000	0.000000	114.000000	61.000000	0.000000	65.000000
0.190000	57.720000	54.300000	600.000000	0.000000	116.000000	60.000000	-18.000000	54.000000
0.200000	57.470000	54.760000	597.000000	0.000000	116.000000	60.000000	-25.000000	46.000000
0.210000	57.120000	55.050000	581.000000	0.000000	118.000000	60.000000	-35.000000	29.000000
0.220000	56.710000	55.240000	588.000000	0.000000	116.000000	60.000000	-41.000000	19.000000
0.230000	56.270000	55.160000	581.000000	0.000000	116.000000	60.000000	-44.000000	-8.000000
0.240000	55.820000	55.030000	581.000000	0.000000	116.000000	60.000000	-45.000000	-13.000000
0.250000	55.380000	54.630000	580.000000	0.000000	115.000000	60.000000	-44.000000	-40.000000
0.260000	55.160000	54.080000	569.000000	0.000000	115.000000	60.000000	-22.000000	-55.000000
0.270000	55.090000	53.330000	561.000000	0.000000	115.000000	60.000000	-7.000000	-75.000000
0.280000	55.360000	52.500000	553.000000	0.000000	115.000000	60.000000	27.000000	-83.000000
0.290000	55.670000	51.620000	551.000000	0.000000	117.000000	59.000000	31.000000	-88.000000
0.300000	56.180000	50.840000	553.000000	0.000000	117.000000	59.000000	51.000000	-78.000000
0.310000	56.810000	50.120000	554.000000	0.000000	117.000000	59.000000	63.000000	-72.000000
0.320000	57.490000	49.430000	561.000000	0.000000	117.000000	59.000000	68.000000	-69.000000
0.330000	58.110000	48.820000	561.000000	0.000000	118.000000	60.000000	62.000000	-61.000000
0.340000	58.570000	48.250000	559.000000	0.000000	118.000000	60.000000	46.000000	-57.000000
0.350000	58.950000	47.720000	568.000000	0.000000	116.000000	60.000000	38.000000	-53.000000
0.360000	59.060000	47.200000	585.000000	0.000000	117.000000	61.000000	11.000000	-52.000000
0.370000	58.890000	46.650000	624.000000	0.000000	115.000000	62.000000	-17.000000	-55.000000
0.380000	58.530000	46.050000	661.000000	0.000000	115.000000	63.000000	-36.000000	-60.000000
0.390000	57.790000	45.390000	693.000000	0.000000	113.000000	63.000000	-74.000000	-66.000000
0.400000	56.870000	44.730000	707.000000	0.000000	111.000000	64.000000	-92.000000	-66.000000
0.410000	55.820000	44.130000	725.000000	0.000000	109.000000	64.000000	-105.000000	-60.000000
0.420000	54.630000	43.570000	722.000000	0.000000	108.000000	63.000000	-119.000000	-56.000000
0.430000	53.400000	43.130000	720.000000	0.000000	106.000000	63.000000	-123.000000	-44.000000
0.440000	52.140000	42.750000	722.000000	0.000000	106.000000	63.000000	-126.000000	-38.000000
0.450000	51.020000	42.400000	727.000000	0.000000	105.000000	62.000000	-112.000000	-35.000000
0.460000	50.160000	42.230000	728.000000	0.000000	105.000000	61.000000	-86.000000	-17.000000
0.470000	49.460000	42.230000	717.000000	0.000000	107.000000	61.000000	-70.000000	0.000000
0.480000	49.030000	42.230000	722.000000	0.000000	106.000000	60.000000	-43.000000	0.000000
0.490000	48.920000	42.380000	697.000000	0.000000	106.000000	60.000000	-11.000000	15.000000
0.500000	49.010000	42.790000	666.000000	0.000000	108.000000	60.000000	9.000000	41.000000
0.510000	49.480000	43.380000	665.000000	0.000000	107.000000	59.000000	47.000000	59.000000
0.520000	50.760000	44.540000	668.000000	0.000000	107.000000	59.000000	128.000000	116.000000
0.530000	52.580000	46.070000	675.000000	0.000000	107.000000	59.000000	182.000000	153.000000
0.540000	55.140000	47.840000	693.000000	0.000000	108.000000	60.000000	256.000000	177.000000
0.550000	58.210000	49.970000	708.000000	0.000000	108.000000	60.000000	307.000000	213.000000
0.560000	61.630000	51.990000	714.000000	0.000000	110.000000	60.000000	342.000000	202.000000
0.570000	65.180000	53.940000	719.000000	0.000000	113.000000	61.000000	355.000000	195.000000
0.580000	68.510000	55.750000	681.000000	0.000000	114.000000	62.000000	333.000000	181.000000
0.590000	71.700000	57.260000	553.000000	0.000000	116.000000	63.000000	319.000000	151.000000
0.600000	74.460000	58.570000	113.000000	0.000000	121.000000	63.000000	276.000000	131.000000
0.610000	74.460000	58.570000	0.000000	1.000000	125.000000	64.000000	0.000000	0.000000
0.620000	78.180000	60.280000	0.000000	0.000000	129.000000	64.000000	372.000000	171.000000
0.630000	78.960000	60.670000	0.000000	0.000000	132.000000	64.000000	78.000000	39.000000
0.640000	78.960000	60.760000	0.000000	0.000000	132.000000	64.000000	0.000000	9.000000
0.650000	78.450000	60.560000	0.000000	0.000000	135.000000	64.000000	-51.000000	-20.000000
0.660000	77.790000	60.160000	0.000000	0.000000	135.000000	64.000000	-66.000000	-40.000000
0.670000	77.280000	59.850000	0.000000	0.000000	135.000000	64.000000	-51.000000	-31.000000
0.680000	76.860000	59.530000	0.000000	0.000000	135.000000	65.000000	-42.000000	-32.000000
0.690000	76.450000	59.210000	0.000000	0.000000	133.000000	66.000000	-41.000000	-32.000000
0.700000	76.060000	58.860000	0.000000	0.000000	133.000000	66.000000	-39.000000	-35.000000
0.710000	75.700000	58.480000	0.000000	0.000000	133.000000	67.000000	-36.000000	-38.000000
0.720000	75.130000	58.060000	0.000000	0.000000	135.000000	67.000000	-57.000000	-42.000000
0.730000	74.410000	57.590000	0.000000	0.000000	140.000000	65.000000	-72.000000	-47.000000
0.740000	73.690000	57.120000	0.000000	0.000000	144.000000	62.000000	-72.000000	-47.000000
0.750000	72.750000	56.620000	0.000000	0.000000	146.000000	60.000000	-94.000000	-50.000000
0.760000	71.670000	56.090000	0.000000	0.000000	148.000000	56.000000	-108.000000	-53.000000
0.770000	70.590000	55.540000	0.000000	0.000000	147.000000	52.000000	-108.000000	-55.000000
0.780000	69.550000	54.980000	0.000000	0.000000	145.000000	48.000000	-104.000000	-56.000000
0.790000	68.570000	54.450000	0.000000	0.000000	144.000000	46.000000	-98.000000	-53.000000
0.800000	67.780000	53.930000	0.000000	0.000000	140.000000	45.000000	-79.000000	-52.000000
0.810000	67.110000	53.450000	0.000000	0.000000	138.000000	45.000000	-67.000000	-48.000000
0.820000	66.610000	53.050000	0.000000	0.000000	136.000000	46.000000	-50.000000	-40.000000
0.830000	66.140000	52.700000	0.000000	0.000000	135.000000	47.000000	-47.000000	-35.000000
0.840000	65.730000	52.480000	0.000000	0.000000	135.000000	50.000000	-41.000000	-22.000000
0.850000	65.380000	52.290000	0.000000	0.000000	135.000000	52.000000	-35.000000	-19.000000
0.860000	65.040000	52.120000	0.000000	0.000000	134.000000	54.000000	-34.000000	-17.000000
0.870000	64.720000	51.950000	0.000000	0.000000	136.000000	56.000000	-32.000000	-17.000000
0.880000	64.480000	51.770000	0.000000	0.000000	136.000000	58.000000	-24.000000	-18.000000
0.890000	64.290000	51.580000	0.000000	0.000000	138.000000	60.000000	-19.000000	-19.000000
0.900000	63.670000	51.340000	0.000000	0.000000	138.000000	61.000000	-62.000000	-24.000000
0.910000	63.390000	51.080000	0.000000	0.000000	135.000000	62.000000	-28.000000	-26.000000
0.920000	63.340000	50.800000	0.000000	0.000000	132.000000	61.000000	-5.000000	-28.000000
0.930000	63.140000	50.740000	0.000000	0.000000	129.000000	60.000000	-20.000000	-6.000000
0.940000	62.960000	50.670000	0.000000	0.000000	128.000000	61.000000	-18.000000	-7.000000
0.950000	62.860000	50.600000	0.000000	0.000000	126.000000	60.000000	-10.000000	-7.000000
0.960000	62.860000	50.600000	0.000000	0.000000	125.000000	60.000000	0.000000	0.000000
0.970000	62.810000	50.700000	0.000000	0.000000	124.000000	60.000000	-5.000000	10.000000
0.980000	62.750000	50.700000	0.000000	0.000000	124.000000	60.000000	-6.000000	0.000000
0.990000	62.660000	50.750000	0.000000	0.000000	122.000000	60.000000	-9.000000	5.000000
1.000000	62.590000	50.750000	0.000000	0.000000	122.000000	60.000000	-7.000000	0.000000
1.010000	62.520000	50.750000	0.000000	0.000000	122.000000	60.000000	-7.000000	0.000000
1.020000	62.430000	50.840000	0.000000	0.000000	122.000000	60.000000	-9.000000	9.000000
1.030000	62.300000	50.890000	0.000000	0.000000	122.000000	60.000000	-13.000000	5.000000
1.040000	62.140000	50.960000	0.000000	0.000000	122.000000	60.000000	-16.000000	7.000000
1.050000	61.910000	51.050000	0.000000	0.000000	122.000000	60.000000	-23.000000	9.000000
1.060000	61.690000	51.120000	0.000000	0.000000	122.000000	60.000000	-22.000000	7.000000
1.070000	61.510000	51.190000	0.000000	0.000000	122.000000	60.000000	-18.000000	7.000000
1.080000	61.320000	51.190000	0.000000	0.000000	122.000000	60.000000	-19.000000	0.000000
1.090000	61.150000	51.250000	0.000000	0.000000	122.000000	60.000000	-17.000000	6.000000
1.100000	60.980000	51.250000	0.000000	0.000000	124.000000	60.000000	-17.000000	0.000000
1.110000	60.890000	51.300000	0.000000	0.000000	124.000000	60.000000	-9.000000	5.000000
1.120000	60.820000	51.300000	0.000000	0.000000	124.000000	60.000000	-7.000000	0.000000
1.130000	60.820000	51.360000	0.000000	0.000000	124.000000	60.000000	0.000000	6.000000
1.140000	60.770000	51.360000	0.000000	0.000000	124.000000	60.000000	-5.000000	0.000000
1.150000	60.770000	51.360000	0.000000	0.000000	124.000000	60.000000	0.000000	0.000000
1.160000	60.830000	51.360000	0.000000	0.000000	124.000000	60.000000	6.000000	0.000000
1.170000	60.890000	51.450000	0.000000	0.000000	124.000000	60.000000	6.000000	9.000000
1.180000	60.990000	51.540000	0.000000	0.000000	124.000000	60.000000	10.000000	9.000000
1.190000	61.090000	51.640000	0.000000	0.000000	124.000000	60.000000	10.000000	10.000000
1.200000	61.160000	51.730000	0.000000	0.000000	124.000000	60.000000	7.000000	9.000000
1.210000	61.210000	51.840000	0.000000	0.000000	124.000000	60.000000	5.000000	11.000000
1.220000	61.210000	51.950000	0.000000	0.000000	124.000000	60.000000	0.000000	11.000000
1.230000	61.290000	52.050000	0.000000	0.000000	124.000000	60.000000	8.000000	10.000000
1.240000	61.350000	52.170000	0.000000	0.000000	125.000000	60.000000	6.000000	12.000000
1.250000	61.420000	52.170000	0.000000	0.000000	125.000000	60.000000	7.000000	0.000000
1.260000	61.510000	52.170000	0.000000	0.000000	125.000000	60.000000	9.000000	0.000000
1.270000	61.510000	52.170000	67.000000	1.000000	125.000000	60.000000	0.000000	0.000000
1.280000	61.720000	52.880000	119.000000	0.000000	125.000000	60.000000	21.000000	71.000000
1.290000	61.720000	52.990000	207.000000	0.000000	125.000000	60.000000	0.000000	11.000000
1.300000	61.790000	53.230000	291.000000	0.000000	125.000000	60.000000	7.000000	24.000000
1.310000	61.790000	53.520000	354.000000	0.000000	125.000000	60.000000	0.000000	29.000000
1.320000	61.710000	53.840000	440.000000	0.000000	125.000000	60.000000	-8.000000	32.000000
1.330000	61.480000	54.020000	510.000000	0.000000	123.000000	61.000000	-23.000000	18.000000
1.340000	61.180000	54.140000	537.000000	0.000000	123.000000	61.000000	-30.000000	12.000000
1.350000	60.760000	54.040000	572.000000	0.000000	123.000000	61.000000	-42.000000	-10.000000
1.360000	60.270000	53.820000	605.000000	0.000000	123.000000	61.000000	-49.000000	-22.000000
1.370000	59.720000	53.360000	631.000000	0.000000	123.000000	61.000000	-55.000000	-46.000000
1.380000	59.170000	52.520000	673.000000	0.000000	122.000000	60.000000	-55.000000	-84.000000
1.390000	58.630000	51.430000	722.000000	0.000000	122.000000	60.000000	-54.000000	-109.000000
1.400000	58.100000	50.310000	745.000000	0.000000	122.000000	60.000000	-53.000000	-112.000000
1.410000	57.840000	49.170000	737.000000	0.000000	121.000000	59.000000	-26.000000	-114.000000
1.420000	57.840000	48.280000	716.000000	0.000000	119.000000	60.000000	0.000000	-89.000000
1.430000	58.020000	47.570000	669.000000	0.000000	119.000000	60.000000	18.000000	-71.000000
1.440000	58.360000	47.150000	616.000000	0.000000	117.000000	59.000000	34.000000	-42.000000
1.450000	58.750000	46.940000	557.000000	0.000000	116.000000	60.000000	39.000000	-21.000000
1.460000	59.270000	46.870000	491.000000	0.000000	114.000000	61.000000	52.000000	-7.000000
1.470000	59.870000	47.010000	438.000000	0.000000	114.000000	62.000000	60.000000	14.000000
1.480000	60.400000	47.330000	418.000000	0.000000	114.000000	62.000000	53.000000	32.000000
1.490000	60.860000	47.760000	423.000000	0.000000	112.000000	62.000000	46.000000	43.000000
1.500000	61.280000	48.240000	418.000000	0.000000	112.000000	62.000000	42.000000	48.000000
1.510000	61.620000	48.720000	423.000000	0.000000	112.000000	62.000000	34.000000	48.000000
1.520000	61.880000	49.200000	431.000000	0.000000	112.000000	62.000000	26.000000	48.000000
1.530000	62.090000	49.630000	440.000000	0.000000	114.000000	62.000000	21.000000	43.000000
1.540000	62.250000	50.020000	450.000000	0.000000	115.000000	62.000000	16.000000	39.000000
1.550000	62.250000	50.350000	493.000000	0.000000	115.000000	62.000000	0.000000	33.000000
1.560000	62.250000	50.600000	529.000000	0.000000	117.000000	61.000000	0.000000	25.000000
1.570000	62.110000	50.770000	567.000000	0.000000	117.000000	61.000000	-14.000000	17.000000
1.580000	61.880000	50.860000	578.000000	0.000000	119.000000	61.000000	-23.000000	9.000000
1.590000	61.590000	50.860000	614.000000	0.000000	119.000000	61.000000	-29.000000	0.000000
1.600000	61.320000	50.860000	611.000000	0.000000	119.000000	61.000000	-27.000000	0.000000
1.610000	61.040000	50.740000	611.000000	0.000000	120.000000	60.000000	-28.000000	-12.000000
1.620000	60.770000	50.460000	630.000000	0.000000	120.000000	60.000000	-27.000000	-28.000000
1.630000	60.540000	50.090000	634.000000	0.000000	122.000000	61.000000	-23.000000	-37.000000
1.640000	60.410000	49.720000	627.000000	0.000000	122.000000	61.000000	-13.000000	-37.000000
1.650000	60.410000	49.360000	594.000000	0.000000	122.000000	61.000000	0.000000	-36.000000
1.660000	60.560000	49.100000	567.000000	0.000000	122.000000	61.000000	15.000000	-26.000000
1.670000	60.820000	48.920000	551.000000	0.000000	120.000000	62.000000	26.000000	-18.000000
1.680000	61.100000	48.920000	543.000000	0.000000	120.000000	62.000000	28.000000	0.000000
1.690000	61.390000	48.970000	535.000000	0.000000	120.000000	62.000000	29.000000	5.000000
1.700000	61.660000	49.090000	521.000000	0.000000	119.000000	61.000000	27.000000	12.000000
1.710000	61.920000	49.260000	515.000000	0.000000	119.000000	61.000000	26.000000	17.000000
1.720000	62.170000	49.430000	513.000000	0.000000	119.000000	61.000000	25.000000	17.000000
1.730000	62.330000	49.610000	512.000000	0.000000	119.000000	61.000000	16.000000	18.000000
1.740000	62.450000	49.710000	522.000000	0.000000	119.000000	61.000000	12.000000	10.000000
1.750000	62.530000	49.800000	522.000000	0.000000	119.000000	61.000000	8.000000	9.000000
1.760000	62.640000	49.870000	522.000000	0.000000	119.000000	61.000000	11.000000	7.000000
1.770000	62.770000	49.950000	512.000000	0.000000	119.000000	61.000000	13.000000	8.000000
1.780000	62.930000	50.020000	512.000000	0.000000	119.000000	61.000000	16.000000	7.000000
1.790000	63.100000	50.130000	512.000000	0.000000	119.000000	60.000000	17.000000	11.000000
1.800000	63.260000	50.280000	522.000000	0.000000	119.000000	60.000000	16.000000	15.000000
1.810000	63.400000	50.480000	512.000000	0.000000	119.000000	60.000000	14.000000	20.000000
1.820000	63.530000	50.780000	515.000000	0.000000	119.000000	60.000000	13.000000	30.000000
1.830000	63.660000	51.150000	509.000000	0.000000	119.000000	60.000000	13.000000	37.000000
1.840000	63.730000	51.700000	512.000000	0.000000	119.000000	60.000000	7.000000	55.000000
1.850000	63.730000	52.280000	519.000000	0.000000	119.000000	60.000000	0.000000	58.000000
1.860000	63.730000	52.880000	516.000000	0.000000	119.000000	60.000000	0.000000	60.000000
1.870000	63.730000	53.350000	535.000000	0.000000	119.000000	60.000000	0.000000	47.000000
1.880000	63.730000	53.560000	537.000000	0.000000	119.000000	60.000000	0.000000	21.000000
1.890000	63.730000	53.560000	521.000000	0.000000	119.000000	60.000000	0.000000	0.000000
1.900000	63.810000	53.510000	521.000000	0.000000	119.000000	60.000000	8.000000	-5.000000
1.910000	63.920000	53.210000	527.000000	0.000000	119.000000	60.000000	11.000000	-30.000000
1.920000	64.030000	52.760000	538.000000	0.000000	119.000000	60.000000	11.000000	-45.000000
1.930000	64.030000	52.100000	543.000000	0.000000	121.000000	59.000000	0.000000	-66.000000
1.940000	64.030000	51.470000	561.000000	0.000000	121.000000	59.000000	0.000000	-63.000000
1.950000	64.030000	50.860000	568.000000	0.000000	121.000000	59.000000	0.000000	-61.000000
1.960000	63.930000	50.330000	563.000000	0.000000	121.000000	59.000000	-10.000000	-53.000000
1.970000	63.780000	49.990000	563.000000	0.000000	122.000000	60.000000	-15.000000	-34.000000
1.980000	63.700000	49.790000	563.000000	0.000000	122.000000	60.000000	-8.000000	-20.000000
1.990000	63.640000	49.790000	560.000000	0.000000	122.000000	60.000000	-6.000000	0.000000
2.000000	63.640000	49.790000	562.000000	0.000000	122.000000	60.000000	0.000000	0.000000
2.010000	63.580000	50.000000	553.000000	0.000000	122.000000	60.000000	-6.000000	21.000000
2.020000	63.580000	50.290000	536.000000	0.000000	122.000000	60.000000	0.000000	29.000000
2.030000	63.630000	50.550000	544.000000	0.000000	122.000000	60.000000	5.000000	26.000000
2.040000	63.730000	50.770000	544.000000	0.000000	122.000000	60.000000	10.000000	22.000000
2.050000	63.910000	50.930000	540.000000	0.000000	122.000000	60.000000	18.000000	16.000000
2.060000	64.110000	51.080000	538.000000	0.000000	122.000000	60.000000	20.000000	15.000000
2.070000	64.360000	51.240000	535.000000	0.000000	122.000000	60.000000	25.000000	16.000000
2.080000	64.610000	51.360000	533.000000	0.000000	122.000000	60.000000	25.000000	12.000000
2.090000	64.880000	51.470000	535.000000	0.000000	122.000000	60.000000	27.000000	11.000000
2.100000	65.160000	51.630000	537.000000	0.000000	122.000000	60.000000	28.000000	16.000000
2.110000	65.450000	51.820000	538.000000	0.000000	122.000000	60.000000	29.000000	19.000000
2.120000	65.730000	52.010000	546.000000	0.000000	123.000000	61.000000	28.000000	19.000000
2.130000	65.940000	52.290000	545.000000	0.000000	123.000000	61.000000	21.000000	28.000000
2.140000	66.100000	52.640000	548.000000	0.000000	123.000000	61.000000	16.000000	35.000000
2.150000	66.210000	52.980000	570.000000	0.000000	123.000000	61.000000	11.000000	34.000000
2.160000	66.210000	53.260000	589.000000	0.000000	124.000000	62.000000	0.000000	28.000000
2.170000	66.210000	53.450000	616.000000	0.000000	124.000000	62.000000	0.000000	19.000000
2.180000	66.040000	53.510000	634.000000	0.000000	124.000000	62.000000	-17.000000	6.000000
2.190000	65.830000	53.510000	652.000000	0.000000	124.000000	62.000000	-21.000000	0.000000
2.200000	65.560000	53.250000	667.000000	0.000000	124.000000	62.000000	-27.000000	-26.000000
2.210000	65.250000	52.770000	675.000000	0.000000	124.000000	62.000000	-31.000000	-48.000000
