t	x	y	pressure	penup	azimuth	inclination	v_x	v_y
0.000000	50.640000	6.940000	302.000000	1.000000	141.000000	61.000000	0.000000	0.000000
0.010000	50.980000	6.480000	376.000000	0.000000	142.000000	61.000000	34.000000	-46.000000
0.020000	51.030000	6.480000	418.000000	0.000000	144.000000	61.000000	5.000000	0.000000
0.030000	51.150000	6.480000	436.000000	0.000000	144.000000	61.000000	12.000000	0.000000
0.040000	51.390000	6.810000	504.000000	0.000000	147.000000	61.000000	24.000000	33.000000
0.050000	51.720000	7.300000	559.000000	0.000000	147.000000	61.000000	33.000000	49.000000
0.060000	51.990000	7.940000	616.000000	0.000000	146.000000	62.000000	27.000000	64.000000
0.070000	52.190000	8.670000	636.000000	0.000000	146.000000	62.000000	20.000000	73.000000
0.080000	52.340000	9.460000	656.000000	0.000000	144.000000	62.000000	15.000000	79.000000
0.090000	52.160000	10.330000	667.000000	0.000000	143.000000	63.000000	-18.000000	87.000000
0.100000	51.700000	11.180000	731.000000	0.000000	141.000000	64.000000	-46.000000	85.000000
0.110000	51.040000	12.000000	770.000000	0.000000	138.000000	65.000000	-66.000000	82.000000
0.120000	50.440000	12.450000	799.000000	0.000000	135.000000	65.000000	-60.000000	45.000000
0.130000	49.850000	12.680000	830.000000	0.000000	133.000000	66.000000	-59.000000	23.000000
0.140000	49.300000	12.840000	846.000000	0.000000	132.000000	65.000000	-55.000000	16.000000
0.150000	49.020000	12.840000	860.000000	0.000000	130.000000	65.000000	-28.000000	0.000000
0.160000	48.900000	12.790000	846.000000	0.000000	130.000000	65.000000	-12.000000	-5.000000
0.170000	48.970000	12.690000	846.000000	0.000000	130.000000	65.000000	7.000000	-10.000000
0.180000	49.340000	12.400000	840.000000	0.000000	129.000000	64.000000	37.000000	-29.000000
0.190000	49.900000	11.980000	821.000000	0.000000	129.000000	64.000000	56.000000	-42.000000
0.200000	50.800000	11.510000	827.000000	0.000000	130.000000	63.000000	90.000000	-47.000000
0.210000	51.850000	11.060000	808.000000	0.000000	129.000000	64.000000	105.000000	-45.000000
0.220000	53.010000	10.620000	791.000000	0.000000	129.000000	64.000000	116.000000	-44.000000
0.230000	53.930000	10.150000	787.000000	0.000000	130.000000	65.000000	92.000000	-47.000000
0.240000	54.640000	9.770000	787.000000	0.000000	130.000000	65.000000	71.000000	-38.000000
0.250000	55.210000	9.440000	797.000000	0.000000	132.000000	65.000000	57.000000	-33.000000
0.260000	55.570000	9.220000	785.000000	0.000000	132.000000	65.000000	36.000000	-22.000000
0.270000	55.720000	9.030000	758.000000	0.000000	133.000000	66.000000	15.000000	-19.000000
0.280000	55.720000	8.870000	737.000000	0.000000	133.000000	66.000000	0.000000	-16.000000
0.290000	55.430000	8.670000	724.000000	0.000000	135.000000	67.000000	-29.000000	-20.000000
0.300000	54.880000	8.460000	727.000000	0.000000	135.000000	67.000000	-55.000000	-21.000000
0.310000	54.150000	8.210000	721.000000	0.000000	137.000000	66.000000	-73.000000	-25.000000
0.320000	53.280000	8.000000	731.000000	0.000000	137.000000	66.000000	-87.000000	-21.000000
0.330000	52.330000	7.810000	745.000000	0.000000	137.000000	66.000000	-95.000000	-19.000000
0.340000	51.330000	7.640000	755.000000	0.000000	138.000000	65.000000	-100.000000	-17.000000
0.350000	50.590000	7.640000	783.000000	0.000000	137.000000	65.000000	-74.000000	0.000000
0.360000	50.230000	7.640000	815.000000	0.000000	138.000000	64.000000	-36.000000	0.000000
0.370000	50.130000	7.770000	833.000000	0.000000	138.000000	64.000000	-10.000000	13.000000
0.380000	50.420000	8.150000	858.000000	0.000000	138.000000	64.000000	29.000000	38.000000
0.390000	51.220000	8.710000	906.000000	0.000000	138.000000	64.000000	80.000000	56.000000
0.400000	52.370000	9.480000	926.000000	0.000000	138.000000	64.000000	115.000000	77.000000
0.410000	53.810000	10.380000	937.000000	0.000000	138.000000	64.000000	144.000000	90.000000
0.420000	55.410000	11.360000	946.000000	0.000000	135.000000	64.000000	160.000000	98.000000
0.430000	57.120000	12.600000	965.000000	0.000000	133.000000	65.000000	171.000000	124.000000
0.440000	58.780000	13.680000	965.000000	0.000000	132.000000	65.000000	166.000000	108.000000
0.450000	60.170000	14.660000	951.000000	0.000000	132.000000	65.000000	139.000000	98.000000
0.460000	61.370000	15.390000	887.000000	0.000000	132.000000	65.000000	120.000000	73.000000
0.470000	62.260000	15.910000	790.000000	0.000000	132.000000	65.000000	89.000000	52.000000
0.480000	62.750000	16.300000	566.000000	0.000000	132.000000	64.000000	49.000000	39.000000
0.490000	62.960000	16.430000	27.000000	0.000000	133.000000	63.000000	21.000000	13.000000
0.500000	62.960000	16.430000	0.000000	1.000000	137.000000	62.000000	0.000000	0.000000
0.510000	62.250000	16.090000	0.000000	0.000000	138.000000	61.000000	-71.000000	-34.000000
0.520000	61.280000	15.640000	0.000000	0.000000	139.000000	61.000000	-97.000000	-45.000000
0.530000	60.230000	15.020000	0.000000	0.000000	141.000000	60.000000	-105.000000	-62.000000
0.540000	59.150000	14.300000	0.000000	0.000000	142.000000	59.000000	-108.000000	-72.000000
0.550000	58.040000	13.570000	0.000000	0.000000	142.000000	59.000000	-111.000000	-73.000000
0.560000	57.180000	12.840000	0.000000	0.000000	144.000000	60.000000	-86.000000	-73.000000
0.570000	56.550000	12.110000	0.000000	0.000000	144.000000	60.000000	-63.000000	-73.000000
0.580000	56.060000	11.370000	0.000000	0.000000	142.000000	61.000000	-49.000000	-74.000000
0.590000	55.800000	10.860000	0.000000	0.000000	144.000000	61.000000	-26.000000	-51.000000
0.600000	55.800000	10.530000	0.000000	0.000000	143.000000	62.000000	0.000000	-33.000000
0.610000	55.900000	10.280000	0.000000	0.000000	141.000000	63.000000	10.000000	-25.000000
0.620000	56.080000	10.190000	0.000000	0.000000	141.000000	64.000000	18.000000	-9.000000
0.630000	56.300000	10.190000	0.000000	0.000000	142.000000	65.000000	22.000000	0.000000
0.640000	56.590000	10.310000	0.000000	0.000000	142.000000	66.000000	29.000000	12.000000
0.650000	56.910000	10.510000	0.000000	0.000000	140.000000	67.000000	32.000000	20.000000
0.660000	57.280000	10.760000	0.000000	0.000000	140.000000	67.000000	37.000000	25.000000
0.670000	57.680000	11.030000	0.000000	0.000000	139.000000	68.000000	40.000000	27.000000
0.680000	58.100000	11.440000	0.000000	0.000000	139.000000	68.000000	42.000000	41.000000
0.690000	58.100000	11.440000	88.000000	1.000000	137.000000	69.000000	0.000000	0.000000
0.700000	58.590000	12.400000	207.000000	0.000000	137.000000	69.000000	49.000000	96.000000
0.710000	58.590000	12.800000	245.000000	0.000000	135.000000	68.000000	0.000000	40.000000
0.720000	58.500000	13.170000	393.000000	0.000000	135.000000	68.000000	-9.000000	37.000000
0.730000	58.370000	13.530000	509.000000	0.000000	133.000000	67.000000	-13.000000	36.000000
0.740000	58.120000	13.720000	594.000000	0.000000	133.000000	67.000000	-25.000000	19.000000
0.750000	57.730000	13.720000	636.000000	0.000000	131.000000	67.000000	-39.000000	0.000000
0.760000	57.250000	13.720000	666.000000	0.000000	131.000000	67.000000	-48.000000	0.000000
0.770000	56.750000	13.350000	675.000000	0.000000	130.000000	66.000000	-50.000000	-37.000000
0.780000	56.100000	12.750000	687.000000	0.000000	130.000000	66.000000	-65.000000	-60.000000
0.790000	55.340000	11.970000	717.000000	0.000000	130.000000	66.000000	-76.000000	-78.000000
0.800000	54.660000	11.070000	722.000000	0.000000	130.000000	66.000000	-68.000000	-90.000000
0.810000	54.230000	10.230000	737.000000	0.000000	130.000000	66.000000	-43.000000	-84.000000
0.820000	53.970000	9.600000	737.000000	0.000000	130.000000	66.000000	-26.000000	-63.000000
0.830000	53.970000	9.100000	728.000000	0.000000	130.000000	66.000000	0.000000	-50.000000
0.840000	54.270000	8.840000	727.000000	0.000000	130.000000	66.000000	30.000000	-26.000000
0.850000	54.700000	8.730000	727.000000	0.000000	130.000000	66.000000	43.000000	-11.000000
0.860000	55.210000	8.730000	733.000000	0.000000	132.000000	65.000000	51.000000	0.000000
0.870000	55.770000	8.880000	702.000000	0.000000	132.000000	65.000000	56.000000	15.000000
0.880000	56.400000	9.070000	644.000000	0.000000	133.000000	66.000000	63.000000	19.000000
0.890000	56.910000	9.290000	616.000000	0.000000	133.000000	66.000000	51.000000	22.000000
0.900000	57.330000	9.530000	595.000000	0.000000	135.000000	67.000000	42.000000	24.000000
0.910000	57.660000	9.730000	570.000000	0.000000	135.000000	67.000000	33.000000	20.000000
0.920000	57.870000	9.920000	568.000000	0.000000	133.000000	67.000000	21.000000	19.000000
0.930000	57.990000	10.120000	565.000000	0.000000	133.000000	67.000000	12.000000	20.000000
0.940000	58.090000	10.330000	570.000000	0.000000	133.000000	67.000000	10.000000	21.000000
0.950000	58.090000	10.530000	588.000000	0.000000	131.000000	68.000000	0.000000	20.000000
0.960000	58.020000	10.690000	616.000000	0.000000	131.000000	68.000000	-7.000000	16.000000
0.970000	57.890000	10.780000	653.000000	0.000000	130.000000	67.000000	-13.000000	9.000000
0.980000	57.770000	10.780000	681.000000	0.000000	130.000000	67.000000	-12.000000	0.000000
0.990000	57.540000	10.780000	697.000000	0.000000	128.000000	66.000000	-23.000000	0.000000
1.000000	57.230000	10.640000	708.000000	0.000000	128.000000	66.000000	-31.000000	-14.000000
1.010000	56.960000	10.450000	722.000000	0.000000	130.000000	67.000000	-27.000000	-19.000000
1.020000	56.710000	10.200000	724.000000	0.000000	130.000000	67.000000	-25.000000	-25.000000
1.030000	56.520000	9.920000	743.000000	0.000000	130.000000	67.000000	-19.000000	-28.000000
1.040000	56.390000	9.600000	754.000000	0.000000	131.000000	68.000000	-13.000000	-32.000000
1.050000	56.330000	9.400000	758.000000	0.000000	131.000000	68.000000	-6.000000	-20.000000
1.060000	56.410000	9.290000	761.000000	0.000000	131.000000	68.000000	8.000000	-11.000000
1.070000	56.570000	9.230000	761.000000	0.000000	131.000000	68.000000	16.000000	-6.000000
1.080000	56.840000	9.300000	760.000000	0.000000	131.000000	68.000000	27.000000	7.000000
1.090000	57.150000	9.450000	758.000000	0.000000	131.000000	68.000000	31.000000	15.000000
1.100000	57.420000	9.590000	763.000000	0.000000	133.000000	67.000000	27.000000	14.000000
1.110000	57.640000	9.690000	751.000000	0.000000	135.000000	68.000000	22.000000	10.000000
1.120000	57.720000	9.690000	757.000000	0.000000	135.000000	68.000000	8.000000	0.000000
1.130000	57.770000	9.690000	774.000000	0.000000	135.000000	68.000000	5.000000	0.000000
1.140000	57.770000	9.570000	773.000000	0.000000	135.000000	68.000000	0.000000	-12.000000
1.150000	57.850000	9.450000	751.000000	0.000000	135.000000	68.000000	8.000000	-12.000000
1.160000	57.920000	9.290000	710.000000	0.000000	135.000000	68.000000	7.000000	-16.000000
1.170000	58.010000	9.190000	595.000000	0.000000	135.000000	68.000000	9.000000	-10.000000
1.180000	58.060000	9.130000	277.000000	0.000000	135.000000	68.000000	5.000000	-6.000000
1.190000	58.060000	9.130000	0.000000	1.000000	133.000000	67.000000	0.000000	0.000000
1.200000	58.060000	9.060000	0.000000	0.000000	133.000000	67.000000	0.000000	-7.000000
1.210000	57.980000	9.120000	0.000000	0.000000	131.000000	67.000000	-8.000000	6.000000
1.220000	57.890000	9.240000	0.000000	0.000000	131.000000	67.000000	-9.000000	12.000000
1.230000	57.840000	9.480000	0.000000	0.000000	130.000000	66.000000	-5.000000	24.000000
1.240000	57.840000	9.800000	0.000000	0.000000	131.000000	67.000000	0.000000	32.000000
1.250000	57.920000	10.180000	0.000000	0.000000	131.000000	67.000000	8.000000	38.000000
1.260000	57.980000	10.680000	0.000000	0.000000	131.000000	67.000000	6.000000	50.000000
1.270000	58.040000	11.150000	0.000000	0.000000	133.000000	66.000000	6.000000	47.000000
1.280000	58.120000	11.600000	0.000000	0.000000	133.000000	66.000000	8.000000	45.000000
1.290000	58.200000	11.860000	0.000000	0.000000	132.000000	65.000000	8.000000	26.000000
1.300000	58.200000	11.860000	493.000000	1.000000	132.000000	65.000000	0.000000	0.000000
1.310000	58.200000	11.860000	610.000000	0.000000	132.000000	65.000000	0.000000	0.000000
1.320000	57.900000	11.840000	625.000000	0.000000	130.000000	65.000000	-30.000000	-2.000000
1.330000	57.830000	11.600000	617.000000	0.000000	128.000000	65.000000	-7.000000	-24.000000
1.340000	57.880000	11.290000	617.000000	0.000000	128.000000	65.000000	5.000000	-31.000000
1.350000	58.050000	11.130000	642.000000	0.000000	130.000000	66.000000	17.000000	-16.000000
1.360000	58.360000	11.020000	643.000000	0.000000	128.000000	66.000000	31.000000	-11.000000
1.370000	58.750000	10.950000	647.000000	0.000000	130.000000	67.000000	39.000000	-7.000000
1.380000	59.180000	10.950000	644.000000	0.000000	130.000000	67.000000	43.000000	0.000000
1.390000	59.590000	10.870000	646.000000	0.000000	130.000000	67.000000	41.000000	-8.000000
1.400000	59.850000	10.740000	670.000000	0.000000	130.000000	67.000000	26.000000	-13.000000
1.410000	60.020000	10.540000	700.000000	0.000000	130.000000	67.000000	17.000000	-20.000000
1.420000	60.020000	10.260000	717.000000	0.000000	130.000000	67.000000	0.000000	-28.000000
1.430000	59.930000	9.950000	720.000000	0.000000	130.000000	67.000000	-9.000000	-31.000000
1.440000	59.730000	9.640000	722.000000	0.000000	130.000000	67.000000	-20.000000	-31.000000
1.450000	59.470000	9.450000	721.000000	0.000000	130.000000	67.000000	-26.000000	-19.000000
1.460000	59.230000	9.340000	721.000000	0.000000	130.000000	67.000000	-24.000000	-11.000000
1.470000	58.990000	9.290000	716.000000	0.000000	130.000000	67.000000	-24.000000	-5.000000
1.480000	58.830000	9.360000	673.000000	0.000000	130.000000	67.000000	-16.000000	7.000000
1.490000	58.680000	9.510000	661.000000	0.000000	131.000000	67.000000	-15.000000	15.000000
1.500000	58.590000	9.710000	655.000000	0.000000	131.000000	67.000000	-9.000000	20.000000
1.510000	58.650000	9.990000	653.000000	0.000000	131.000000	67.000000	6.000000	28.000000
1.520000	58.800000	10.230000	659.000000	0.000000	131.000000	67.000000	15.000000	24.000000
1.530000	59.040000	10.400000	671.000000	0.000000	131.000000	67.000000	24.000000	17.000000
1.540000	59.320000	10.530000	667.000000	0.000000	131.000000	67.000000	28.000000	13.000000
1.550000	59.680000	10.640000	685.000000	0.000000	133.000000	67.000000	36.000000	11.000000
1.560000	60.060000	10.770000	697.000000	0.000000	131.000000	68.000000	38.000000	13.000000
1.570000	60.440000	10.910000	703.000000	0.000000	131.000000	68.000000	38.000000	14.000000
1.580000	60.820000	11.100000	708.000000	0.000000	131.000000	68.000000	38.000000	19.000000
1.590000	61.140000	11.340000	708.000000	0.000000	131.000000	68.000000	32.000000	24.000000
1.600000	61.420000	11.610000	708.000000	0.000000	131.000000	68.000000	28.000000	27.000000
1.610000	61.540000	11.900000	716.000000	0.000000	131.000000	68.000000	12.000000	29.000000
1.620000	61.540000	12.210000	720.000000	0.000000	131.000000	68.000000	0.000000	31.000000
1.630000	61.540000	12.460000	740.000000	0.000000	131.000000	68.000000	0.000000	25.000000
1.640000	61.340000	12.620000	750.000000	0.000000	131.000000	68.000000	-20.000000	16.000000
1.650000	61.170000	12.620000	762.000000	0.000000	131.000000	68.000000	-17.000000	0.000000
1.660000	61.010000	12.620000	779.000000	0.000000	130.000000	67.000000	-16.000000	0.000000
1.670000	60.880000	12.510000	785.000000	0.000000	130.000000	67.000000	-13.000000	-11.000000
1.680000	60.790000	12.230000	790.000000	0.000000	130.000000	67.000000	-9.000000	-28.000000
1.690000	60.700000	11.840000	791.000000	0.000000	130.000000	67.000000	-9.000000	-39.000000
1.700000	60.700000	11.440000	799.000000	0.000000	130.000000	67.000000	0.000000	-40.000000
1.710000	60.770000	11.100000	784.000000	0.000000	131.000000	67.000000	7.000000	-34.000000
1.720000	60.880000	10.790000	765.000000	0.000000	131.000000	67.000000	11.000000	-31.000000
1.730000	61.020000	10.600000	693.000000	0.000000	130.000000	67.000000	14.000000	-19.000000
1.740000	61.190000	10.480000	600.000000	0.000000	130.000000	67.000000	17.000000	-12.000000
1.750000	61.190000	10.480000	420.000000	0.000000	130.000000	67.000000	0.000000	0.000000
1.760000	61.610000	10.350000	117.000000	0.000000	131.000000	68.000000	42.000000	-13.000000
1.770000	61.610000	10.350000	0.000000	1.000000	131.000000	68.000000	0.000000	0.000000
1.780000	61.980000	10.410000	0.000000	0.000000	131.000000	68.000000	37.000000	6.000000
1.790000	62.060000	10.520000	0.000000	0.000000	131.000000	68.000000	8.000000	11.000000
1.800000	62.060000	10.670000	0.000000	0.000000	131.000000	68.000000	0.000000	15.000000
1.810000	61.970000	10.850000	0.000000	0.000000	131.000000	68.000000	-9.000000	18.000000
1.820000	61.820000	11.100000	0.000000	0.000000	133.000000	67.000000	-15.000000	25.000000
1.830000	61.820000	11.100000	244.000000	1.000000	133.000000	67.000000	0.000000	0.000000
1.840000	61.720000	11.710000	369.000000	0.000000	133.000000	67.000000	-10.000000	61.000000
1.850000	61.720000	11.930000	413.000000	0.000000	133.000000	67.000000	0.000000	22.000000
1.860000	61.770000	12.110000	466.000000	0.000000	133.000000	67.000000	5.000000	18.000000
1.870000	61.910000	12.230000	517.000000	0.000000	133.000000	67.000000	14.000000	12.000000
1.880000	62.200000	12.310000	591.000000	0.000000	133.000000	67.000000	29.000000	8.000000
1.890000	62.600000	12.360000	641.000000	0.000000	133.000000	67.000000	40.000000	5.000000
1.900000	62.910000	12.360000	664.000000	0.000000	133.000000	67.000000	31.000000	0.000000
1.910000	63.150000	12.170000	670.000000	0.000000	133.000000	67.000000	24.000000	-19.000000
1.920000	63.350000	11.920000	676.000000	0.000000	131.000000	68.000000	20.000000	-25.000000
1.930000	63.480000	11.550000	676.000000	0.000000	130.000000	67.000000	13.000000	-37.000000
1.940000	63.540000	11.240000	671.000000	0.000000	131.000000	68.000000	6.000000	-31.000000
1.950000	63.540000	10.980000	653.000000	0.000000	131.000000	68.000000	0.000000	-26.000000
1.960000	63.590000	10.750000	595.000000	0.000000	131.000000	68.000000	5.000000	-23.000000
1.970000	63.640000	10.620000	417.000000	0.000000	131.000000	68.000000	5.000000	-13.000000
1.980000	63.640000	10.560000	93.000000	0.000000	131.000000	68.000000	0.000000	-6.000000
1.990000	63.640000	10.560000	0.000000	1.000000	131.000000	68.000000	0.000000	0.000000
2.000000	63.400000	10.610000	0.000000	0.000000	131.000000	68.000000	-24.000000	5.000000
2.010000	63.120000	10.690000	0.000000	0.000000	131.000000	68.000000	-28.000000	8.000000
2.020000	62.770000	10.740000	0.000000	0.000000	131.000000	68.000000	-35.000000	5.000000
2.030000	62.460000	10.740000	0.000000	0.000000	131.000000	68.000000	-31.000000	0.000000
2.040000	62.210000	10.790000	0.000000	0.000000	133.000000	67.000000	-25.000000	5.000000
2.050000	62.210000	10.790000	245.000000	1.000000	131.000000	67.000000	0.000000	0.000000
2.060000	62.210000	10.790000	562.000000	0.000000	131.000000	67.000000	0.000000	0.000000
2.070000	62.210000	10.790000	586.000000	0.000000	131.000000	67.000000	0.000000	0.000000
2.080000	62.210000	10.790000	546.000000	0.000000	131.000000	67.000000	0.000000	0.000000
2.090000	62.370000	11.160000	493.000000	0.000000	131.000000	67.000000	16.000000	37.000000
2.100000	62.790000	11.420000	444.000000	0.000000	133.000000	67.000000	42.000000	26.000000
2.110000	63.170000	11.730000	405.000000	0.000000	131.000000	68.000000	38.000000	31.000000
2.120000	63.490000	11.910000	341.000000	0.000000	131.000000	68.000000	32.000000	18.000000
2.130000	63.760000	12.080000	282.000000	0.000000	131.000000	68.000000	27.000000	17.000000
2.140000	63.990000	12.240000	239.000000	0.000000	131.000000	68.000000	23.000000	16.000000
2.150000	64.180000	12.410000	242.000000	0.000000	131.000000	68.000000	19.000000	17.000000
2.160000	64.360000	12.580000	262.000000	0.000000	131.000000	68.000000	18.000000	17.000000
2.170000	64.500000	12.760000	304.000000	0.000000	133.000000	67.000000	14.000000	18.000000
2.180000	64.620000	12.960000	361.000000	0.000000	133.000000	67.000000	12.000000	20.000000
2.190000	64.620000	13.090000	447.000000	0.000000	133.000000	67.000000	0.000000	13.000000
2.200000	64.620000	13.190000	527.000000	0.000000	133.000000	67.000000	0.000000	10.000000
2.210000	64.450000	13.190000	567.000000	0.000000	133.000000	67.000000	-17.000000	0.000000
