t	x	y	pressure	penup	azimuth	inclination	v_x	v_y
0.000000	53.920000	40.400000	371.000000	1.000000	135.000000	59.000000	0.000000	0.000000
0.010000	54.240000	40.220000	356.000000	0.000000	135.000000	59.000000	32.000000	-18.000000
0.020000	54.300000	40.560000	345.000000	0.000000	134.000000	60.000000	6.000000	34.000000
0.030000	54.720000	41.070000	364.000000	0.000000	134.000000	60.000000	42.000000	51.000000
0.040000	55.140000	41.900000	441.000000	0.000000	135.000000	60.000000	42.000000	83.000000
0.050000	55.560000	42.890000	448.000000	0.000000	135.000000	60.000000	42.000000	99.000000
0.060000	55.760000	43.980000	450.000000	0.000000	135.000000	60.000000	20.000000	109.000000
0.070000	55.820000	45.220000	514.000000	0.000000	136.000000	61.000000	6.000000	124.000000
0.080000	55.510000	46.440000	611.000000	0.000000	136.000000	61.000000	-31.000000	122.000000
0.090000	55.020000	47.370000	696.000000	0.000000	136.000000	61.000000	-49.000000	93.000000
0.100000	54.420000	48.120000	739.000000	0.000000	138.000000	60.000000	-60.000000	75.000000
0.110000	53.820000	48.480000	788.000000	0.000000	138.000000	60.000000	-60.000000	36.000000
0.120000	53.220000	48.560000	819.000000	0.000000	138.000000	60.000000	-60.000000	8.000000
0.130000	52.790000	48.450000	827.000000	0.000000	139.000000	60.000000	-43.000000	-11.000000
0.140000	52.470000	48.280000	827.000000	0.000000	139.000000	60.000000	-32.000000	-17.000000
0.150000	52.530000	48.060000	819.000000	0.000000	139.000000	58.000000	6.000000	-22.000000
0.160000	52.790000	47.630000	832.000000	0.000000	139.000000	58.000000	26.000000	-43.000000
0.170000	53.170000	47.080000	824.000000	0.000000	139.000000	58.000000	38.000000	-55.000000
0.180000	53.910000	46.550000	811.000000	0.000000	139.000000	58.000000	74.000000	-53.000000
0.190000	54.790000	46.020000	796.000000	0.000000	139.000000	58.000000	88.000000	-53.000000
0.200000	55.770000	45.500000	751.000000	0.000000	138.000000	59.000000	98.000000	-52.000000
0.210000	56.680000	44.960000	722.000000	0.000000	138.000000	59.000000	91.000000	-54.000000
0.220000	57.450000	44.500000	696.000000	0.000000	136.000000	60.000000	77.000000	-46.000000
0.230000	58.130000	44.100000	679.000000	0.000000	136.000000	60.000000	68.000000	-40.000000
0.240000	58.440000	43.730000	676.000000	0.000000	135.000000	60.000000	31.000000	-37.000000
0.250000	58.370000	43.400000	678.000000	0.000000	135.000000	60.000000	-7.000000	-33.000000
0.260000	58.040000	43.110000	676.000000	0.000000	135.000000	60.000000	-33.000000	-29.000000
0.270000	57.280000	42.810000	682.000000	0.000000	135.000000	60.000000	-76.000000	-30.000000
0.280000	56.350000	42.540000	702.000000	0.000000	135.000000	60.000000	-93.000000	-27.000000
0.290000	55.300000	42.280000	710.000000	0.000000	136.000000	60.000000	-105.000000	-26.000000
0.300000	54.160000	42.010000	763.000000	0.000000	136.000000	60.000000	-114.000000	-27.000000
0.310000	53.080000	41.930000	832.000000	0.000000	136.000000	60.000000	-108.000000	-8.000000
0.320000	52.390000	41.980000	860.000000	0.000000	136.000000	60.000000	-69.000000	5.000000
0.330000	51.930000	42.070000	864.000000	0.000000	136.000000	60.000000	-46.000000	9.000000
0.340000	52.070000	42.410000	896.000000	0.000000	135.000000	59.000000	14.000000	34.000000
0.350000	52.780000	42.920000	923.000000	0.000000	135.000000	59.000000	71.000000	51.000000
0.360000	53.880000	43.770000	942.000000	0.000000	135.000000	59.000000	110.000000	85.000000
0.370000	55.640000	44.820000	977.000000	0.000000	135.000000	59.000000	176.000000	105.000000
0.380000	57.570000	46.010000	982.000000	0.000000	135.000000	59.000000	193.000000	119.000000
0.390000	59.610000	47.040000	977.000000	0.000000	135.000000	59.000000	204.000000	103.000000
0.400000	61.280000	48.050000	994.000000	0.000000	136.000000	60.000000	167.000000	101.000000
0.410000	62.750000	48.860000	941.000000	0.000000	136.000000	60.000000	147.000000	81.000000
0.420000	64.090000	49.550000	890.000000	0.000000	136.000000	60.000000	134.000000	69.000000
0.430000	64.850000	50.070000	759.000000	0.000000	139.000000	60.000000	76.000000	52.000000
0.440000	65.210000	50.390000	483.000000	0.000000	139.000000	60.000000	36.000000	32.000000
0.450000	65.210000	50.390000	0.000000	1.000000	142.000000	59.000000	0.000000	0.000000
0.460000	64.840000	50.590000	0.000000	0.000000	143.000000	59.000000	-37.000000	20.000000
0.470000	63.900000	50.430000	0.000000	0.000000	143.000000	59.000000	-94.000000	-16.000000
0.480000	62.640000	50.080000	0.000000	0.000000	144.000000	58.000000	-126.000000	-35.000000
0.490000	61.250000	49.550000	0.000000	0.000000	144.000000	58.000000	-139.000000	-53.000000
0.500000	59.910000	48.850000	0.000000	0.000000	143.000000	59.000000	-134.000000	-70.000000
0.510000	58.740000	48.040000	0.000000	0.000000	143.000000	59.000000	-117.000000	-81.000000
0.520000	57.670000	47.220000	0.000000	0.000000	143.000000	59.000000	-107.000000	-82.000000
0.530000	56.880000	46.490000	0.000000	0.000000	142.000000	59.000000	-79.000000	-73.000000
0.540000	56.470000	45.820000	0.000000	0.000000	141.000000	59.000000	-41.000000	-67.000000
0.550000	56.320000	45.380000	0.000000	0.000000	139.000000	60.000000	-15.000000	-44.000000
0.560000	56.450000	45.120000	0.000000	0.000000	139.000000	60.000000	13.000000	-26.000000
0.570000	56.790000	44.980000	0.000000	0.000000	138.000000	60.000000	34.000000	-14.000000
0.580000	57.270000	44.980000	0.000000	0.000000	138.000000	60.000000	48.000000	0.000000
0.590000	57.270000	44.980000	108.000000	1.000000	136.000000	61.000000	0.000000	0.000000
0.600000	58.490000	45.450000	127.000000	0.000000	136.000000	61.000000	122.000000	47.000000
0.610000	59.040000	45.890000	161.000000	0.000000	138.000000	61.000000	55.000000	44.000000
0.620000	59.660000	46.400000	247.000000	0.000000	138.000000	61.000000	62.000000	51.000000
0.630000	60.110000	46.970000	348.000000	0.000000	138.000000	61.000000	45.000000	57.000000
0.640000	60.450000	47.470000	446.000000	0.000000	140.000000	62.000000	34.000000	50.000000
0.650000	60.660000	47.940000	570.000000	0.000000	140.000000	62.000000	21.000000	47.000000
0.660000	60.660000	48.330000	671.000000	0.000000	140.000000	62.000000	0.000000	39.000000
0.670000	60.480000	48.490000	711.000000	0.000000	141.000000	61.000000	-18.000000	16.000000
0.680000	60.120000	48.490000	745.000000	0.000000	141.000000	61.000000	-36.000000	0.000000
0.690000	59.570000	48.300000	749.000000	0.000000	142.000000	61.000000	-55.000000	-19.000000
0.700000	58.880000	47.830000	755.000000	0.000000	141.000000	60.000000	-69.000000	-47.000000
0.710000	58.030000	47.190000	755.000000	0.000000	141.000000	60.000000	-85.000000	-64.000000
0.720000	57.170000	46.370000	754.000000	0.000000	139.000000	60.000000	-86.000000	-82.000000
0.730000	56.300000	45.530000	776.000000	0.000000	139.000000	60.000000	-87.000000	-84.000000
0.740000	55.770000	44.650000	779.000000	0.000000	138.000000	60.000000	-53.000000	-88.000000
0.750000	55.510000	43.940000	773.000000	0.000000	136.000000	60.000000	-26.000000	-71.000000
0.760000	55.420000	43.350000	762.000000	0.000000	136.000000	60.000000	-9.000000	-59.000000
0.770000	55.790000	43.040000	749.000000	0.000000	135.000000	60.000000	37.000000	-31.000000
0.780000	56.350000	42.920000	725.000000	0.000000	135.000000	60.000000	56.000000	-12.000000
0.790000	57.040000	42.920000	696.000000	0.000000	135.000000	60.000000	69.000000	0.000000
0.800000	57.740000	43.240000	679.000000	0.000000	135.000000	60.000000	70.000000	32.000000
0.810000	58.360000	43.590000	641.000000	0.000000	135.000000	60.000000	62.000000	35.000000
0.820000	58.920000	43.960000	647.000000	0.000000	135.000000	60.000000	56.000000	37.000000
0.830000	59.350000	44.330000	641.000000	0.000000	135.000000	60.000000	43.000000	37.000000
0.840000	59.700000	44.720000	647.000000	0.000000	135.000000	60.000000	35.000000	39.000000
0.850000	59.990000	45.120000	662.000000	0.000000	135.000000	60.000000	29.000000	40.000000
0.860000	60.090000	45.350000	691.000000	0.000000	135.000000	60.000000	10.000000	23.000000
0.870000	60.090000	45.540000	739.000000	0.000000	134.000000	61.000000	0.000000	19.000000
0.880000	59.960000	45.650000	788.000000	0.000000	134.000000	61.000000	-13.000000	11.000000
0.890000	59.840000	45.720000	818.000000	0.000000	134.000000	61.000000	-12.000000	7.000000
0.900000	59.610000	45.720000	818.000000	0.000000	134.000000	61.000000	-23.000000	0.000000
0.910000	59.310000	45.580000	823.000000	0.000000	134.000000	61.000000	-30.000000	-14.000000
0.920000	58.920000	45.340000	824.000000	0.000000	134.000000	61.000000	-39.000000	-24.000000
0.930000	58.460000	44.870000	827.000000	0.000000	134.000000	61.000000	-46.000000	-47.000000
0.940000	57.960000	44.430000	818.000000	0.000000	134.000000	61.000000	-50.000000	-44.000000
0.950000	57.680000	44.010000	819.000000	0.000000	134.000000	61.000000	-28.000000	-42.000000
0.960000	57.680000	43.750000	817.000000	0.000000	132.000000	60.000000	0.000000	-26.000000
0.970000	57.780000	43.640000	821.000000	0.000000	132.000000	60.000000	10.000000	-11.000000
0.980000	58.040000	43.640000	812.000000	0.000000	134.000000	60.000000	26.000000	0.000000
0.990000	58.430000	43.760000	808.000000	0.000000	134.000000	60.000000	39.000000	12.000000
1.000000	58.910000	43.930000	806.000000	0.000000	134.000000	60.000000	48.000000	17.000000
1.010000	59.200000	44.110000	797.000000	0.000000	134.000000	60.000000	29.000000	18.000000
1.020000	59.310000	44.040000	800.000000	0.000000	134.000000	60.000000	11.000000	-7.000000
1.030000	59.310000	43.920000	796.000000	0.000000	134.000000	60.000000	0.000000	-12.000000
1.040000	59.310000	43.720000	763.000000	0.000000	134.000000	60.000000	0.000000	-20.000000
1.050000	59.310000	43.490000	671.000000	0.000000	134.000000	60.000000	0.000000	-23.000000
1.060000	59.250000	43.300000	394.000000	0.000000	134.000000	60.000000	-6.000000	-19.000000
1.070000	59.250000	43.300000	0.000000	1.000000	134.000000	60.000000	0.000000	0.000000
1.080000	59.360000	43.240000	0.000000	0.000000	135.000000	60.000000	11.000000	-6.000000
1.090000	59.360000	43.470000	0.000000	0.000000	135.000000	60.000000	0.000000	23.000000
1.100000	59.210000	43.740000	0.000000	0.000000	136.000000	61.000000	-15.000000	27.000000
1.110000	59.160000	44.040000	0.000000	0.000000	136.000000	61.000000	-5.000000	30.000000
1.120000	59.160000	44.440000	0.000000	0.000000	138.000000	61.000000	0.000000	40.000000
1.130000	59.300000	44.830000	0.000000	0.000000	139.000000	61.000000	14.000000	39.000000
1.140000	59.500000	45.220000	0.000000	0.000000	141.000000	61.000000	20.000000	39.000000
1.150000	59.690000	45.540000	0.000000	0.000000	141.000000	61.000000	19.000000	32.000000
1.160000	59.690000	45.540000	80.000000	1.000000	140.000000	62.000000	0.000000	0.000000
1.170000	60.010000	46.030000	285.000000	0.000000	140.000000	62.000000	32.000000	49.000000
1.180000	60.090000	46.210000	335.000000	0.000000	141.000000	63.000000	8.000000	18.000000
1.190000	60.090000	46.380000	463.000000	0.000000	141.000000	63.000000	0.000000	17.000000
1.200000	60.340000	46.470000	537.000000	0.000000	140.000000	63.000000	25.000000	9.000000
1.210000	60.570000	46.520000	589.000000	0.000000	140.000000	63.000000	23.000000	5.000000
1.220000	60.830000	46.520000	599.000000	0.000000	140.000000	63.000000	26.000000	0.000000
1.230000	61.170000	46.350000	627.000000	0.000000	140.000000	63.000000	34.000000	-17.000000
1.240000	61.550000	46.130000	641.000000	0.000000	140.000000	63.000000	38.000000	-22.000000
1.250000	61.700000	45.820000	675.000000	0.000000	140.000000	63.000000	15.000000	-31.000000
1.260000	61.700000	45.400000	725.000000	0.000000	138.000000	63.000000	0.000000	-42.000000
1.270000	61.570000	44.930000	770.000000	0.000000	138.000000	63.000000	-13.000000	-47.000000
1.280000	61.340000	44.460000	793.000000	0.000000	138.000000	63.000000	-23.000000	-47.000000
1.290000	61.060000	44.110000	802.000000	0.000000	138.000000	61.000000	-28.000000	-35.000000
1.300000	60.740000	43.830000	803.000000	0.000000	138.000000	61.000000	-32.000000	-28.000000
1.310000	60.470000	43.720000	787.000000	0.000000	138.000000	61.000000	-27.000000	-11.000000
1.320000	60.250000	43.720000	777.000000	0.000000	136.000000	61.000000	-22.000000	0.000000
1.330000	60.090000	43.800000	742.000000	0.000000	136.000000	61.000000	-16.000000	8.000000
1.340000	59.970000	44.000000	714.000000	0.000000	136.000000	61.000000	-12.000000	20.000000
1.350000	59.970000	44.270000	640.000000	0.000000	136.000000	61.000000	0.000000	27.000000
1.360000	60.080000	44.580000	614.000000	0.000000	136.000000	61.000000	11.000000	31.000000
1.370000	60.290000	44.870000	614.000000	0.000000	136.000000	61.000000	21.000000	29.000000
1.380000	60.550000	45.130000	624.000000	0.000000	136.000000	61.000000	26.000000	26.000000
1.390000	60.880000	45.330000	638.000000	0.000000	138.000000	61.000000	33.000000	20.000000
1.400000	61.270000	45.530000	676.000000	0.000000	138.000000	61.000000	39.000000	20.000000
1.410000	61.670000	45.720000	700.000000	0.000000	138.000000	61.000000	40.000000	19.000000
1.420000	62.070000	45.910000	691.000000	0.000000	138.000000	63.000000	40.000000	19.000000
1.430000	62.460000	46.130000	703.000000	0.000000	138.000000	63.000000	39.000000	22.000000
1.440000	62.730000	46.360000	705.000000	0.000000	138.000000	63.000000	27.000000	23.000000
1.450000	62.920000	46.620000	725.000000	0.000000	138.000000	63.000000	19.000000	26.000000
1.460000	62.920000	46.830000	745.000000	0.000000	140.000000	62.000000	0.000000	21.000000
1.470000	62.780000	46.950000	768.000000	0.000000	140.000000	62.000000	-14.000000	12.000000
1.480000	62.590000	46.950000	777.000000	0.000000	138.000000	61.000000	-19.000000	0.000000
1.490000	62.290000	46.950000	790.000000	0.000000	138.000000	61.000000	-30.000000	0.000000
1.500000	61.950000	46.740000	787.000000	0.000000	138.000000	61.000000	-34.000000	-21.000000
1.510000	61.590000	46.450000	805.000000	0.000000	139.000000	61.000000	-36.000000	-29.000000
1.520000	61.450000	46.050000	809.000000	0.000000	139.000000	61.000000	-14.000000	-40.000000
1.530000	61.450000	45.660000	806.000000	0.000000	138.000000	61.000000	0.000000	-39.000000
1.540000	61.590000	45.290000	768.000000	0.000000	138.000000	61.000000	14.000000	-37.000000
1.550000	61.830000	45.020000	724.000000	0.000000	138.000000	61.000000	24.000000	-27.000000
1.560000	62.130000	44.840000	613.000000	0.000000	138.000000	61.000000	30.000000	-18.000000
1.570000	62.460000	44.730000	398.000000	0.000000	138.000000	61.000000	33.000000	-11.000000
1.580000	62.780000	44.730000	66.000000	0.000000	138.000000	61.000000	32.000000	0.000000
1.590000	62.780000	44.730000	0.000000	1.000000	138.000000	61.000000	0.000000	0.000000
1.600000	63.200000	45.020000	0.000000	0.000000	138.000000	61.000000	42.000000	29.000000
1.610000	63.270000	45.290000	0.000000	0.000000	138.000000	61.000000	7.000000	27.000000
1.620000	63.270000	45.590000	0.000000	0.000000	138.000000	61.000000	0.000000	30.000000
1.630000	63.270000	45.590000	91.000000	1.000000	140.000000	62.000000	0.000000	0.000000
1.640000	63.220000	46.160000	190.000000	0.000000	140.000000	62.000000	-5.000000	57.000000
1.650000	63.270000	46.400000	299.000000	0.000000	140.000000	62.000000	5.000000	24.000000
1.660000	63.370000	46.590000	425.000000	0.000000	140.000000	62.000000	10.000000	19.000000
1.670000	63.540000	46.760000	537.000000	0.000000	140.000000	62.000000	17.000000	17.000000
1.680000	63.740000	46.830000	620.000000	0.000000	140.000000	62.000000	20.000000	7.000000
1.690000	63.980000	46.830000	658.000000	0.000000	140.000000	62.000000	24.000000	0.000000
1.700000	64.160000	46.750000	700.000000	0.000000	140.000000	62.000000	18.000000	-8.000000
1.710000	64.280000	46.520000	727.000000	0.000000	140.000000	62.000000	12.000000	-23.000000
1.720000	64.280000	46.200000	750.000000	0.000000	141.000000	61.000000	0.000000	-32.000000
1.730000	64.280000	45.900000	754.000000	0.000000	141.000000	61.000000	0.000000	-30.000000
1.740000	64.280000	45.600000	754.000000	0.000000	141.000000	63.000000	0.000000	-30.000000
1.750000	64.280000	45.340000	748.000000	0.000000	141.000000	63.000000	0.000000	-26.000000
1.760000	64.280000	45.110000	691.000000	0.000000	141.000000	63.000000	0.000000	-23.000000
1.770000	64.280000	44.940000	586.000000	0.000000	141.000000	63.000000	0.000000	-17.000000
1.780000	64.330000	44.850000	354.000000	0.000000	141.000000	63.000000	5.000000	-9.000000
1.790000	64.330000	44.850000	0.000000	1.000000	141.000000	63.000000	0.000000	0.000000
1.800000	64.330000	44.850000	0.000000	0.000000	141.000000	63.000000	0.000000	0.000000
1.810000	64.330000	45.050000	0.000000	0.000000	141.000000	63.000000	0.000000	20.000000
1.820000	64.150000	45.280000	0.000000	0.000000	141.000000	63.000000	-18.000000	23.000000
1.830000	63.950000	45.410000	0.000000	0.000000	141.000000	63.000000	-20.000000	13.000000
1.840000	63.710000	45.510000	0.000000	0.000000	143.000000	62.000000	-24.000000	10.000000
1.850000	63.710000	45.510000	281.000000	1.000000	141.000000	63.000000	0.000000	0.000000
1.860000	63.710000	45.510000	400.000000	0.000000	141.000000	63.000000	0.000000	0.000000
1.870000	63.710000	45.510000	449.000000	0.000000	140.000000	62.000000	0.000000	0.000000
1.880000	63.710000	45.510000	514.000000	0.000000	140.000000	62.000000	0.000000	0.000000
1.890000	63.710000	45.510000	512.000000	0.000000	140.000000	62.000000	0.000000	0.000000
1.900000	64.050000	45.770000	423.000000	0.000000	140.000000	62.000000	34.000000	26.000000
1.910000	64.350000	45.920000	280.000000	0.000000	140.000000	62.000000	30.000000	15.000000
1.920000	64.720000	46.120000	137.000000	0.000000	140.000000	62.000000	37.000000	20.000000
1.930000	65.000000	46.330000	90.000000	0.000000	140.000000	62.000000	28.000000	21.000000
1.940000	65.220000	46.540000	112.000000	0.000000	140.000000	62.000000	22.000000	21.000000
1.950000	65.370000	46.680000	205.000000	0.000000	140.000000	62.000000	15.000000	14.000000
1.960000	65.470000	46.820000	363.000000	0.000000	141.000000	63.000000	10.000000	14.000000
1.970000	65.530000	46.970000	428.000000	0.000000	141.000000	63.000000	6.000000	15.000000
1.980000	65.530000	47.140000	514.000000	0.000000	141.000000	63.000000	0.000000	17.000000
1.990000	65.480000	47.240000	603.000000	0.000000	141.000000	63.000000	-5.000000	10.000000
2.000000	65.400000	47.290000	646.000000	0.000000	143.000000	62.000000	-8.000000	5.000000
2.010000	65.200000	47.290000	675.000000	0.000000	143.000000	62.000000	-20.000000	0.000000
2.020000	65.020000	47.150000	696.000000	0.000000	143.000000	62.000000	-18.000000	-14.000000
2.030000	64.860000	46.980000	705.000000	0.000000	144.000000	61.000000	-16.000000	-17.000000
2.040000	64.860000	46.800000	705.000000	0.000000	144.000000	61.000000	0.000000	-18.000000
2.050000	64.860000	46.630000	702.000000	0.000000	143.000000	62.000000	0.000000	-17.000000
2.060000	64.950000	46.490000	697.000000	0.000000	143.000000	62.000000	9.000000	-14.000000
2.070000	65.120000	46.370000	693.000000	0.000000	143.000000	62.000000	17.000000	-12.000000
2.080000	65.290000	46.270000	687.000000	0.000000	141.000000	63.000000	17.000000	-10.000000
2.090000	65.460000	46.170000	687.000000	0.000000	141.000000	63.000000	17.000000	-10.000000
2.100000	65.580000	46.060000	681.000000	0.000000	141.000000	63.000000	12.000000	-11.000000
2.110000	65.700000	45.990000	673.000000	0.000000	141.000000	63.000000	12.000000	-7.000000
2.120000	65.780000	45.990000	646.000000	0.000000	141.000000	63.000000	8.000000	0.000000
2.130000	65.830000	45.990000	572.000000	0.000000	141.000000	63.000000	5.000000	0.000000
2.140000	65.830000	45.990000	450.000000	0.000000	141.000000	63.000000	0.000000	0.000000
2.150000	65.880000	46.040000	228.000000	0.000000	141.000000	63.000000	5.000000	5.000000
2.160000	65.880000	46.040000	0.000000	1.000000	141.000000	63.000000	0.000000	0.000000
2.170000	65.800000	46.040000	0.000000	0.000000	141.000000	63.000000	-8.000000	0.000000
2.180000	65.800000	46.040000	0.000000	0.000000	141.000000	63.000000	0.000000	0.000000
2.190000	65.800000	46.040000	0.000000	0.000000	141.000000	63.000000	0.000000	0.000000
2.200000	65.800000	46.090000	0.000000	0.000000	140.000000	63.000000	0.000000	5.000000
