t	x	y	pressure	penup	azimuth	inclination	v_x	v_y
0.000000	13.860000	61.350000	132.000000	1.000000	146.000000	62.000000	0.000000	0.000000
0.010000	14.050000	60.790000	284.000000	0.000000	144.000000	61.000000	19.000000	-56.000000
0.020000	14.230000	60.660000	373.000000	0.000000	144.000000	61.000000	18.000000	-13.000000
0.030000	14.350000	60.600000	491.000000	0.000000	144.000000	61.000000	12.000000	-6.000000
0.040000	14.470000	60.600000	609.000000	0.000000	142.000000	61.000000	12.000000	0.000000
0.050000	14.610000	60.760000	673.000000	0.000000	142.000000	61.000000	14.000000	16.000000
0.060000	14.750000	61.020000	716.000000	0.000000	142.000000	61.000000	14.000000	26.000000
0.070000	15.050000	61.660000	727.000000	0.000000	142.000000	61.000000	30.000000	64.000000
0.080000	15.350000	62.560000	746.000000	0.000000	142.000000	61.000000	30.000000	90.000000
0.090000	15.650000	63.640000	754.000000	0.000000	144.000000	60.000000	30.000000	108.000000
0.100000	15.650000	65.040000	785.000000	0.000000	142.000000	61.000000	0.000000	140.000000
0.110000	15.490000	66.360000	833.000000	0.000000	142.000000	61.000000	-16.000000	132.000000
0.120000	15.150000	67.620000	906.000000	0.000000	142.000000	61.000000	-34.000000	126.000000
0.130000	14.750000	68.330000	959.000000	0.000000	142.000000	61.000000	-40.000000	71.000000
0.140000	14.320000	68.770000	985.000000	0.000000	142.000000	61.000000	-43.000000	44.000000
0.150000	13.850000	69.040000	995.000000	0.000000	142.000000	61.000000	-47.000000	27.000000
0.160000	13.390000	68.910000	978.000000	0.000000	142.000000	61.000000	-46.000000	-13.000000
0.170000	13.220000	68.700000	991.000000	0.000000	142.000000	59.000000	-17.000000	-21.000000
0.180000	13.220000	68.450000	967.000000	0.000000	142.000000	59.000000	0.000000	-25.000000
0.190000	13.300000	67.820000	941.000000	0.000000	141.000000	59.000000	8.000000	-63.000000
0.200000	13.680000	67.180000	944.000000	0.000000	139.000000	60.000000	38.000000	-64.000000
0.210000	14.270000	66.550000	929.000000	0.000000	139.000000	60.000000	59.000000	-63.000000
0.220000	15.150000	65.930000	914.000000	0.000000	138.000000	59.000000	88.000000	-62.000000
0.230000	16.030000	65.320000	896.000000	0.000000	136.000000	60.000000	88.000000	-61.000000
0.240000	16.920000	64.710000	879.000000	0.000000	136.000000	60.000000	89.000000	-61.000000
0.250000	17.570000	64.110000	836.000000	0.000000	136.000000	60.000000	65.000000	-60.000000
0.260000	18.050000	63.520000	812.000000	0.000000	138.000000	60.000000	48.000000	-59.000000
0.270000	18.280000	63.080000	800.000000	0.000000	138.000000	60.000000	23.000000	-44.000000
0.280000	18.080000	62.730000	799.000000	0.000000	138.000000	60.000000	-20.000000	-35.000000
0.290000	17.580000	62.410000	805.000000	0.000000	138.000000	60.000000	-50.000000	-32.000000
0.300000	16.640000	62.150000	821.000000	0.000000	138.000000	60.000000	-94.000000	-26.000000
0.310000	15.570000	61.920000	861.000000	0.000000	136.000000	60.000000	-107.000000	-23.000000
0.320000	14.400000	61.790000	900.000000	0.000000	138.000000	59.000000	-117.000000	-13.000000
0.330000	13.730000	61.850000	942.000000	0.000000	138.000000	59.000000	-67.000000	6.000000
0.340000	13.400000	62.050000	964.000000	0.000000	138.000000	59.000000	-33.000000	20.000000
0.350000	13.290000	62.400000	977.000000	0.000000	138.000000	59.000000	-11.000000	35.000000
0.360000	13.520000	63.000000	988.000000	0.000000	138.000000	59.000000	23.000000	60.000000
0.370000	14.400000	63.760000	981.000000	0.000000	138.000000	59.000000	88.000000	76.000000
0.380000	15.710000	64.720000	1012.000000	0.000000	138.000000	59.000000	131.000000	96.000000
0.390000	17.780000	65.790000	1023.000000	0.000000	138.000000	59.000000	207.000000	107.000000
0.400000	19.970000	66.930000	1023.000000	0.000000	139.000000	60.000000	219.000000	114.000000
0.410000	22.250000	67.860000	1014.000000	0.000000	139.000000	60.000000	228.000000	93.000000
0.420000	24.020000	68.730000	1002.000000	0.000000	139.000000	60.000000	177.000000	87.000000
0.430000	25.580000	69.540000	983.000000	0.000000	141.000000	60.000000	156.000000	81.000000
0.440000	27.000000	70.330000	914.000000	0.000000	142.000000	61.000000	142.000000	79.000000
0.450000	27.830000	70.880000	846.000000	0.000000	142.000000	61.000000	83.000000	55.000000
0.460000	28.120000	71.190000	666.000000	0.000000	144.000000	60.000000	29.000000	31.000000
0.470000	28.040000	71.350000	329.000000	0.000000	145.000000	59.000000	-8.000000	16.000000
0.480000	28.040000	71.350000	0.000000	1.000000	146.000000	58.000000	0.000000	0.000000
0.490000	25.970000	71.050000	0.000000	0.000000	147.000000	58.000000	-207.000000	-30.000000
0.500000	24.260000	70.660000	0.000000	0.000000	147.000000	58.000000	-171.000000	-39.000000
0.510000	22.810000	70.190000	0.000000	0.000000	146.000000	57.000000	-145.000000	-47.000000
0.520000	21.410000	69.700000	0.000000	0.000000	146.000000	57.000000	-140.000000	-49.000000
0.530000	20.100000	69.020000	0.000000	0.000000	144.000000	58.000000	-131.000000	-68.000000
0.540000	19.140000	68.230000	0.000000	0.000000	143.000000	57.000000	-96.000000	-79.000000
0.550000	18.400000	67.500000	0.000000	0.000000	142.000000	58.000000	-74.000000	-73.000000
0.560000	17.930000	66.840000	0.000000	0.000000	142.000000	58.000000	-47.000000	-66.000000
0.570000	17.710000	66.230000	0.000000	0.000000	142.000000	59.000000	-22.000000	-61.000000
0.580000	17.650000	65.720000	0.000000	0.000000	142.000000	59.000000	-6.000000	-51.000000
0.590000	17.730000	65.350000	0.000000	0.000000	142.000000	59.000000	8.000000	-37.000000
0.600000	17.950000	65.070000	0.000000	0.000000	144.000000	60.000000	22.000000	-28.000000
0.610000	18.270000	64.910000	0.000000	0.000000	144.000000	60.000000	32.000000	-16.000000
0.620000	18.590000	64.840000	0.000000	0.000000	144.000000	61.000000	32.000000	-7.000000
0.630000	18.900000	64.840000	0.000000	0.000000	144.000000	61.000000	31.000000	0.000000
0.640000	18.900000	64.840000	25.000000	1.000000	144.000000	61.000000	0.000000	0.000000
0.650000	19.500000	64.970000	108.000000	0.000000	144.000000	61.000000	60.000000	13.000000
0.660000	19.780000	65.140000	175.000000	0.000000	143.000000	62.000000	28.000000	17.000000
0.670000	20.080000	65.380000	241.000000	0.000000	143.000000	62.000000	30.000000	24.000000
0.680000	20.390000	65.710000	366.000000	0.000000	143.000000	62.000000	31.000000	33.000000
0.690000	20.700000	66.090000	473.000000	0.000000	143.000000	62.000000	31.000000	38.000000
0.700000	20.960000	66.550000	578.000000	0.000000	143.000000	62.000000	26.000000	46.000000
0.710000	21.120000	66.990000	663.000000	0.000000	143.000000	62.000000	16.000000	44.000000
0.720000	21.200000	67.350000	779.000000	0.000000	143.000000	62.000000	8.000000	36.000000
0.730000	21.100000	67.600000	793.000000	0.000000	143.000000	62.000000	-10.000000	25.000000
0.740000	20.840000	67.770000	819.000000	0.000000	143.000000	62.000000	-26.000000	17.000000
0.750000	20.470000	67.770000	839.000000	0.000000	143.000000	62.000000	-37.000000	0.000000
0.760000	19.960000	67.580000	834.000000	0.000000	141.000000	61.000000	-51.000000	-19.000000
0.770000	19.290000	67.090000	834.000000	0.000000	141.000000	61.000000	-67.000000	-49.000000
0.780000	18.500000	66.340000	836.000000	0.000000	141.000000	61.000000	-79.000000	-75.000000
0.790000	17.800000	65.420000	833.000000	0.000000	141.000000	61.000000	-70.000000	-92.000000
0.800000	17.360000	64.560000	827.000000	0.000000	141.000000	61.000000	-44.000000	-86.000000
0.810000	17.090000	63.820000	824.000000	0.000000	141.000000	61.000000	-27.000000	-74.000000
0.820000	17.090000	63.160000	809.000000	0.000000	139.000000	61.000000	0.000000	-66.000000
0.830000	17.270000	62.780000	787.000000	0.000000	139.000000	61.000000	18.000000	-38.000000
0.840000	17.620000	62.630000	790.000000	0.000000	139.000000	61.000000	35.000000	-15.000000
0.850000	18.140000	62.630000	759.000000	0.000000	138.000000	60.000000	52.000000	0.000000
0.860000	18.660000	62.870000	748.000000	0.000000	138.000000	60.000000	52.000000	24.000000
0.870000	19.190000	63.180000	727.000000	0.000000	139.000000	60.000000	53.000000	31.000000
0.880000	19.620000	63.530000	727.000000	0.000000	139.000000	60.000000	43.000000	35.000000
0.890000	19.990000	63.920000	722.000000	0.000000	139.000000	60.000000	37.000000	39.000000
0.900000	20.340000	64.320000	724.000000	0.000000	139.000000	60.000000	35.000000	40.000000
0.910000	20.540000	64.730000	725.000000	0.000000	139.000000	60.000000	20.000000	41.000000
0.920000	20.640000	65.040000	752.000000	0.000000	141.000000	60.000000	10.000000	31.000000
0.930000	20.550000	65.170000	760.000000	0.000000	141.000000	60.000000	-9.000000	13.000000
0.940000	20.360000	65.170000	753.000000	0.000000	141.000000	60.000000	-19.000000	0.000000
0.950000	20.110000	65.070000	760.000000	0.000000	139.000000	61.000000	-25.000000	-10.000000
0.960000	19.780000	64.810000	793.000000	0.000000	139.000000	61.000000	-33.000000	-26.000000
0.970000	19.470000	64.440000	796.000000	0.000000	139.000000	61.000000	-31.000000	-37.000000
0.980000	19.220000	64.050000	817.000000	0.000000	139.000000	61.000000	-25.000000	-39.000000
0.990000	19.140000	63.680000	832.000000	0.000000	139.000000	61.000000	-8.000000	-37.000000
1.000000	19.140000	63.420000	822.000000	0.000000	141.000000	60.000000	0.000000	-26.000000
1.010000	19.360000	63.240000	815.000000	0.000000	141.000000	60.000000	22.000000	-18.000000
1.020000	19.590000	63.160000	806.000000	0.000000	141.000000	60.000000	23.000000	-8.000000
1.030000	19.840000	63.160000	771.000000	0.000000	141.000000	60.000000	25.000000	0.000000
1.040000	20.130000	63.160000	749.000000	0.000000	139.000000	60.000000	29.000000	0.000000
1.050000	20.420000	63.250000	725.000000	0.000000	139.000000	60.000000	29.000000	9.000000
1.060000	20.610000	63.390000	717.000000	0.000000	139.000000	60.000000	19.000000	14.000000
1.070000	20.720000	63.530000	700.000000	0.000000	139.000000	60.000000	11.000000	14.000000
1.080000	20.720000	63.640000	694.000000	0.000000	139.000000	60.000000	0.000000	11.000000
1.090000	20.660000	63.750000	664.000000	0.000000	139.000000	60.000000	-6.000000	11.000000
1.100000	20.550000	63.840000	663.000000	0.000000	139.000000	60.000000	-11.000000	9.000000
1.110000	20.500000	63.890000	676.000000	0.000000	141.000000	60.000000	-5.000000	5.000000
1.120000	20.500000	63.890000	684.000000	0.000000	141.000000	60.000000	0.000000	0.000000
1.130000	20.500000	63.820000	694.000000	0.000000	141.000000	60.000000	0.000000	-7.000000
1.140000	20.560000	63.740000	699.000000	0.000000	141.000000	60.000000	6.000000	-8.000000
1.150000	20.660000	63.600000	696.000000	0.000000	141.000000	60.000000	10.000000	-14.000000
1.160000	20.770000	63.450000	697.000000	0.000000	141.000000	60.000000	11.000000	-15.000000
1.170000	20.890000	63.280000	675.000000	0.000000	141.000000	60.000000	12.000000	-17.000000
1.180000	21.030000	63.120000	608.000000	0.000000	141.000000	60.000000	14.000000	-16.000000
1.190000	21.170000	62.940000	418.000000	0.000000	141.000000	60.000000	14.000000	-18.000000
1.200000	21.220000	62.830000	122.000000	0.000000	141.000000	60.000000	5.000000	-11.000000
1.210000	21.220000	62.830000	0.000000	1.000000	141.000000	60.000000	0.000000	0.000000
1.220000	21.220000	62.860000	0.000000	0.000000	141.000000	60.000000	0.000000	3.000000
1.230000	21.220000	63.100000	0.000000	0.000000	141.000000	60.000000	0.000000	24.000000
1.240000	21.220000	63.440000	0.000000	0.000000	141.000000	60.000000	0.000000	34.000000
1.250000	21.280000	63.850000	0.000000	0.000000	141.000000	60.000000	6.000000	41.000000
1.260000	21.340000	64.270000	0.000000	0.000000	139.000000	60.000000	6.000000	42.000000
1.270000	21.420000	64.710000	0.000000	0.000000	139.000000	60.000000	8.000000	44.000000
1.280000	21.530000	64.950000	0.000000	0.000000	139.000000	60.000000	11.000000	24.000000
1.290000	21.640000	65.140000	0.000000	0.000000	142.000000	59.000000	11.000000	19.000000
1.300000	21.700000	65.240000	0.000000	0.000000	142.000000	59.000000	6.000000	10.000000
1.310000	21.700000	65.290000	0.000000	0.000000	142.000000	59.000000	0.000000	5.000000
1.320000	21.700000	65.290000	0.000000	0.000000	142.000000	59.000000	0.000000	0.000000
1.330000	21.700000	65.290000	0.000000	0.000000	142.000000	59.000000	0.000000	0.000000
1.340000	21.700000	65.180000	0.000000	0.000000	142.000000	59.000000	0.000000	-11.000000
1.350000	21.830000	65.060000	0.000000	0.000000	142.000000	59.000000	13.000000	-12.000000
1.360000	21.920000	64.900000	0.000000	0.000000	142.000000	59.000000	9.000000	-16.000000
1.370000	22.000000	64.730000	0.000000	0.000000	142.000000	59.000000	8.000000	-17.000000
1.380000	22.000000	64.560000	0.000000	0.000000	142.000000	59.000000	0.000000	-17.000000
1.390000	21.940000	64.450000	0.000000	0.000000	142.000000	59.000000	-6.000000	-11.000000
1.400000	21.840000	64.370000	0.000000	0.000000	142.000000	59.000000	-10.000000	-8.000000
1.410000	21.840000	64.370000	0.000000	0.000000	141.000000	60.000000	0.000000	0.000000
1.420000	21.840000	64.370000	0.000000	0.000000	141.000000	60.000000	0.000000	0.000000
1.430000	21.530000	64.840000	0.000000	0.000000	141.000000	60.000000	-31.000000	47.000000
1.440000	21.460000	65.220000	0.000000	0.000000	141.000000	60.000000	-7.000000	38.000000
1.450000	21.400000	65.690000	0.000000	0.000000	141.000000	60.000000	-6.000000	47.000000
1.460000	21.300000	66.210000	0.000000	0.000000	141.000000	60.000000	-10.000000	52.000000
1.470000	21.300000	66.210000	302.000000	1.000000	141.000000	60.000000	0.000000	0.000000
1.480000	21.050000	67.150000	446.000000	0.000000	141.000000	60.000000	-25.000000	94.000000
1.490000	20.940000	67.410000	542.000000	0.000000	141.000000	60.000000	-11.000000	26.000000
1.500000	20.940000	67.410000	605.000000	0.000000	139.000000	61.000000	0.000000	0.000000
1.510000	20.940000	67.410000	676.000000	0.000000	139.000000	61.000000	0.000000	0.000000
1.520000	21.040000	67.220000	734.000000	0.000000	141.000000	61.000000	10.000000	-19.000000
1.530000	21.180000	66.930000	763.000000	0.000000	141.000000	61.000000	14.000000	-29.000000
1.540000	21.310000	66.370000	779.000000	0.000000	141.000000	61.000000	13.000000	-56.000000
1.550000	21.420000	65.810000	787.000000	0.000000	141.000000	61.000000	11.000000	-56.000000
1.560000	21.560000	65.260000	780.000000	0.000000	141.000000	61.000000	14.000000	-55.000000
1.570000	21.730000	64.920000	757.000000	0.000000	141.000000	61.000000	17.000000	-34.000000
1.580000	21.910000	64.720000	749.000000	0.000000	141.000000	61.000000	18.000000	-20.000000
1.590000	22.080000	64.610000	736.000000	0.000000	141.000000	61.000000	17.000000	-11.000000
1.600000	22.340000	64.610000	739.000000	0.000000	141.000000	61.000000	26.000000	0.000000
1.610000	22.590000	64.690000	745.000000	0.000000	144.000000	61.000000	25.000000	8.000000
1.620000	22.840000	64.690000	750.000000	0.000000	144.000000	61.000000	25.000000	0.000000
1.630000	23.010000	64.460000	771.000000	0.000000	144.000000	61.000000	17.000000	-23.000000
1.640000	23.130000	64.180000	784.000000	0.000000	144.000000	61.000000	12.000000	-28.000000
1.650000	23.130000	63.850000	796.000000	0.000000	144.000000	61.000000	0.000000	-33.000000
1.660000	22.930000	63.540000	783.000000	0.000000	144.000000	61.000000	-20.000000	-31.000000
1.670000	22.650000	63.350000	784.000000	0.000000	145.000000	60.000000	-28.000000	-19.000000
1.680000	22.340000	63.230000	791.000000	0.000000	145.000000	60.000000	-31.000000	-12.000000
1.690000	21.960000	63.230000	787.000000	0.000000	145.000000	60.000000	-38.000000	0.000000
1.700000	21.540000	63.450000	755.000000	0.000000	145.000000	60.000000	-42.000000	22.000000
1.710000	21.160000	63.760000	727.000000	0.000000	145.000000	60.000000	-38.000000	31.000000
1.720000	20.830000	64.010000	703.000000	0.000000	144.000000	60.000000	-33.000000	25.000000
1.730000	20.740000	64.200000	662.000000	0.000000	144.000000	60.000000	-9.000000	19.000000
1.740000	20.790000	64.270000	662.000000	0.000000	144.000000	60.000000	5.000000	7.000000
1.750000	21.050000	64.320000	661.000000	0.000000	142.000000	61.000000	26.000000	5.000000
1.760000	21.480000	64.370000	650.000000	0.000000	142.000000	61.000000	43.000000	5.000000
1.770000	22.010000	64.500000	641.000000	0.000000	142.000000	61.000000	53.000000	13.000000
1.780000	22.730000	64.690000	636.000000	0.000000	144.000000	61.000000	72.000000	19.000000
1.790000	23.320000	64.900000	631.000000	0.000000	144.000000	61.000000	59.000000	21.000000
1.800000	23.820000	65.140000	631.000000	0.000000	144.000000	61.000000	50.000000	24.000000
1.810000	24.160000	65.420000	639.000000	0.000000	144.000000	61.000000	34.000000	28.000000
1.820000	24.340000	65.710000	643.000000	0.000000	146.000000	62.000000	18.000000	29.000000
1.830000	24.420000	65.980000	679.000000	0.000000	146.000000	62.000000	8.000000	27.000000
1.840000	24.420000	66.220000	711.000000	0.000000	146.000000	62.000000	0.000000	24.000000
1.850000	24.350000	66.410000	736.000000	0.000000	146.000000	62.000000	-7.000000	19.000000
1.860000	24.250000	66.520000	763.000000	0.000000	146.000000	62.000000	-10.000000	11.000000
1.870000	24.110000	66.520000	774.000000	0.000000	146.000000	62.000000	-14.000000	0.000000
1.880000	23.970000	66.460000	785.000000	0.000000	146.000000	62.000000	-14.000000	-6.000000
1.890000	23.830000	66.180000	794.000000	0.000000	146.000000	62.000000	-14.000000	-28.000000
1.900000	23.620000	65.780000	787.000000	0.000000	146.000000	62.000000	-21.000000	-40.000000
1.910000	23.370000	65.230000	796.000000	0.000000	146.000000	62.000000	-25.000000	-55.000000
1.920000	23.260000	64.680000	793.000000	0.000000	146.000000	62.000000	-11.000000	-55.000000
1.930000	23.180000	64.140000	768.000000	0.000000	146.000000	62.000000	-8.000000	-54.000000
1.940000	23.330000	63.840000	710.000000	0.000000	146.000000	62.000000	15.000000	-30.000000
1.950000	23.630000	63.670000	565.000000	0.000000	146.000000	62.000000	30.000000	-17.000000
1.960000	24.000000	63.670000	265.000000	0.000000	147.000000	61.000000	37.000000	0.000000
1.970000	24.000000	63.670000	0.000000	1.000000	145.000000	60.000000	0.000000	0.000000
1.980000	24.640000	64.100000	0.000000	0.000000	145.000000	60.000000	64.000000	43.000000
1.990000	24.810000	64.420000	0.000000	0.000000	145.000000	60.000000	17.000000	32.000000
2.000000	24.920000	64.760000	0.000000	0.000000	147.000000	61.000000	11.000000	34.000000
2.010000	25.030000	65.110000	0.000000	0.000000	147.000000	61.000000	11.000000	35.000000
2.020000	25.030000	65.460000	0.000000	0.000000	147.000000	61.000000	0.000000	35.000000
2.030000	25.030000	65.720000	0.000000	0.000000	147.000000	61.000000	0.000000	26.000000
2.040000	25.030000	65.720000	193.000000	1.000000	146.000000	62.000000	0.000000	0.000000
2.050000	25.080000	66.090000	334.000000	0.000000	146.000000	62.000000	5.000000	37.000000
2.060000	25.140000	66.160000	455.000000	0.000000	146.000000	62.000000	6.000000	7.000000
2.070000	25.240000	66.160000	536.000000	0.000000	146.000000	62.000000	10.000000	0.000000
2.080000	25.360000	66.160000	647.000000	0.000000	146.000000	62.000000	12.000000	0.000000
2.090000	25.540000	66.160000	694.000000	0.000000	146.000000	62.000000	18.000000	0.000000
2.100000	25.770000	66.090000	699.000000	0.000000	147.000000	62.000000	23.000000	-7.000000
2.110000	25.930000	65.950000	725.000000	0.000000	147.000000	62.000000	16.000000	-14.000000
2.120000	25.930000	65.950000	730.000000	0.000000	147.000000	62.000000	0.000000	0.000000
2.130000	26.050000	65.460000	727.000000	0.000000	147.000000	62.000000	12.000000	-49.000000
2.140000	26.050000	65.150000	727.000000	0.000000	149.000000	63.000000	0.000000	-31.000000
2.150000	25.860000	64.810000	699.000000	0.000000	149.000000	63.000000	-19.000000	-34.000000
2.160000	25.710000	64.440000	641.000000	0.000000	149.000000	63.000000	-15.000000	-37.000000
2.170000	25.580000	64.060000	518.000000	0.000000	149.000000	63.000000	-13.000000	-38.000000
2.180000	25.470000	63.810000	311.000000	0.000000	150.000000	62.000000	-11.000000	-25.000000
2.190000	25.470000	63.810000	0.000000	1.000000	148.000000	61.000000	0.000000	0.000000
2.200000	25.280000	63.540000	0.000000	0.000000	148.000000	61.000000	-19.000000	-27.000000
