t	x	y	pressure	penup	azimuth	inclination	v_x	v_y
0.000000	52.740000	59.730000	307.000000	1.000000	129.000000	59.000000	0.000000	0.000000
0.010000	52.530000	59.560000	332.000000	0.000000	131.000000	60.000000	-21.000000	-17.000000
0.020000	52.530000	59.870000	348.000000	0.000000	131.000000	60.000000	0.000000	31.000000
0.030000	52.660000	60.300000	441.000000	0.000000	131.000000	60.000000	13.000000	43.000000
0.040000	52.940000	61.080000	543.000000	0.000000	132.000000	60.000000	28.000000	78.000000
0.050000	53.270000	62.090000	561.000000	0.000000	132.000000	60.000000	33.000000	101.000000
0.060000	53.410000	63.250000	620.000000	0.000000	134.000000	60.000000	14.000000	116.000000
0.070000	53.410000	64.670000	752.000000	0.000000	134.000000	60.000000	0.000000	142.000000
0.080000	53.210000	65.740000	803.000000	0.000000	134.000000	60.000000	-20.000000	107.000000
0.090000	52.900000	66.580000	908.000000	0.000000	135.000000	59.000000	-31.000000	84.000000
0.100000	52.530000	66.970000	945.000000	0.000000	135.000000	59.000000	-37.000000	39.000000
0.110000	52.050000	67.180000	978.000000	0.000000	135.000000	59.000000	-48.000000	21.000000
0.120000	51.590000	67.260000	999.000000	0.000000	135.000000	59.000000	-46.000000	8.000000
0.130000	51.150000	67.150000	1012.000000	0.000000	136.000000	60.000000	-44.000000	-11.000000
0.140000	50.920000	67.000000	1009.000000	0.000000	136.000000	60.000000	-23.000000	-15.000000
0.150000	50.830000	66.680000	990.000000	0.000000	136.000000	60.000000	-9.000000	-32.000000
0.160000	50.970000	66.260000	992.000000	0.000000	136.000000	60.000000	14.000000	-42.000000
0.170000	51.450000	65.670000	962.000000	0.000000	136.000000	60.000000	48.000000	-59.000000
0.180000	52.160000	65.090000	951.000000	0.000000	136.000000	60.000000	71.000000	-58.000000
0.190000	53.020000	64.520000	903.000000	0.000000	136.000000	60.000000	86.000000	-57.000000
0.200000	53.920000	63.860000	867.000000	0.000000	136.000000	60.000000	90.000000	-66.000000
0.210000	54.870000	63.130000	817.000000	0.000000	138.000000	59.000000	95.000000	-73.000000
0.220000	55.460000	62.470000	788.000000	0.000000	138.000000	59.000000	59.000000	-66.000000
0.230000	55.820000	61.910000	782.000000	0.000000	138.000000	59.000000	36.000000	-56.000000
0.240000	55.890000	61.430000	785.000000	0.000000	138.000000	59.000000	7.000000	-48.000000
0.250000	55.650000	60.950000	785.000000	0.000000	138.000000	59.000000	-24.000000	-48.000000
0.260000	55.190000	60.520000	787.000000	0.000000	138.000000	59.000000	-46.000000	-43.000000
0.270000	54.380000	60.120000	790.000000	0.000000	138.000000	59.000000	-81.000000	-40.000000
0.280000	53.400000	59.760000	821.000000	0.000000	136.000000	60.000000	-98.000000	-36.000000
0.290000	52.300000	59.570000	825.000000	0.000000	136.000000	60.000000	-110.000000	-19.000000
0.300000	51.440000	59.490000	867.000000	0.000000	136.000000	60.000000	-86.000000	-8.000000
0.310000	50.910000	59.770000	881.000000	0.000000	135.000000	59.000000	-53.000000	28.000000
0.320000	50.610000	60.130000	896.000000	0.000000	135.000000	59.000000	-30.000000	36.000000
0.330000	50.710000	60.540000	903.000000	0.000000	135.000000	59.000000	10.000000	41.000000
0.340000	51.430000	61.190000	905.000000	0.000000	135.000000	59.000000	72.000000	65.000000
0.350000	52.560000	62.020000	912.000000	0.000000	135.000000	59.000000	113.000000	83.000000
0.360000	54.180000	62.970000	932.000000	0.000000	136.000000	60.000000	162.000000	95.000000
0.370000	56.130000	64.130000	929.000000	0.000000	136.000000	60.000000	195.000000	116.000000
0.380000	58.310000	65.290000	914.000000	0.000000	138.000000	59.000000	218.000000	116.000000
0.390000	60.090000	66.450000	908.000000	0.000000	139.000000	60.000000	178.000000	116.000000
0.400000	61.460000	67.210000	855.000000	0.000000	139.000000	60.000000	137.000000	76.000000
0.410000	62.550000	67.930000	818.000000	0.000000	141.000000	60.000000	109.000000	72.000000
0.420000	63.260000	68.390000	707.000000	0.000000	141.000000	60.000000	71.000000	46.000000
0.430000	63.630000	68.690000	488.000000	0.000000	141.000000	60.000000	37.000000	30.000000
0.440000	63.630000	68.690000	0.000000	1.000000	142.000000	61.000000	0.000000	0.000000
0.450000	63.520000	68.730000	0.000000	0.000000	142.000000	61.000000	-11.000000	4.000000
0.460000	62.660000	68.430000	0.000000	0.000000	142.000000	61.000000	-86.000000	-30.000000
0.470000	61.410000	67.990000	0.000000	0.000000	142.000000	61.000000	-125.000000	-44.000000
0.480000	60.400000	67.530000	0.000000	0.000000	142.000000	61.000000	-101.000000	-46.000000
0.490000	59.520000	67.040000	0.000000	0.000000	144.000000	60.000000	-88.000000	-49.000000
0.500000	58.730000	66.500000	0.000000	0.000000	144.000000	60.000000	-79.000000	-54.000000
0.510000	57.960000	65.850000	0.000000	0.000000	144.000000	60.000000	-77.000000	-65.000000
0.520000	57.370000	65.150000	0.000000	0.000000	144.000000	60.000000	-59.000000	-70.000000
0.530000	56.910000	64.440000	0.000000	0.000000	144.000000	60.000000	-46.000000	-71.000000
0.540000	56.660000	63.880000	0.000000	0.000000	144.000000	60.000000	-25.000000	-56.000000
0.550000	56.460000	63.410000	0.000000	0.000000	144.000000	60.000000	-20.000000	-47.000000
0.560000	56.360000	62.980000	0.000000	0.000000	144.000000	60.000000	-10.000000	-43.000000
0.570000	56.360000	62.470000	0.000000	0.000000	144.000000	60.000000	0.000000	-51.000000
0.580000	56.510000	62.530000	0.000000	0.000000	144.000000	60.000000	15.000000	6.000000
0.590000	56.790000	63.010000	0.000000	0.000000	144.000000	60.000000	28.000000	48.000000
0.600000	57.120000	63.270000	0.000000	0.000000	144.000000	60.000000	33.000000	26.000000
0.610000	57.120000	63.270000	27.000000	1.000000	144.000000	60.000000	0.000000	0.000000
0.620000	57.780000	64.040000	144.000000	0.000000	142.000000	61.000000	66.000000	77.000000
0.630000	58.080000	64.510000	264.000000	0.000000	142.000000	61.000000	30.000000	47.000000
0.640000	58.280000	64.970000	393.000000	0.000000	142.000000	61.000000	20.000000	46.000000
0.650000	58.400000	65.420000	570.000000	0.000000	142.000000	61.000000	12.000000	45.000000
0.660000	58.400000	65.670000	685.000000	0.000000	142.000000	61.000000	0.000000	25.000000
0.670000	58.170000	65.780000	737.000000	0.000000	142.000000	61.000000	-23.000000	11.000000
0.680000	57.860000	65.780000	770.000000	0.000000	142.000000	61.000000	-31.000000	0.000000
0.690000	57.420000	65.640000	796.000000	0.000000	142.000000	61.000000	-44.000000	-14.000000
0.700000	56.890000	65.260000	814.000000	0.000000	142.000000	61.000000	-53.000000	-38.000000
0.710000	56.290000	64.730000	815.000000	0.000000	142.000000	61.000000	-60.000000	-53.000000
0.720000	55.650000	63.910000	826.000000	0.000000	141.000000	60.000000	-64.000000	-82.000000
0.730000	55.080000	63.030000	822.000000	0.000000	141.000000	60.000000	-57.000000	-88.000000
0.740000	54.560000	62.210000	818.000000	0.000000	141.000000	60.000000	-52.000000	-82.000000
0.750000	54.360000	61.440000	815.000000	0.000000	139.000000	60.000000	-20.000000	-77.000000
0.760000	54.480000	61.000000	791.000000	0.000000	139.000000	60.000000	12.000000	-44.000000
0.770000	54.810000	60.760000	788.000000	0.000000	141.000000	59.000000	33.000000	-24.000000
0.780000	55.360000	60.660000	752.000000	0.000000	139.000000	58.000000	55.000000	-10.000000
0.790000	55.940000	60.810000	700.000000	0.000000	139.000000	58.000000	58.000000	15.000000
0.800000	56.580000	61.040000	667.000000	0.000000	138.000000	59.000000	64.000000	23.000000
0.810000	57.120000	61.330000	634.000000	0.000000	139.000000	60.000000	54.000000	29.000000
0.820000	57.610000	61.630000	625.000000	0.000000	139.000000	60.000000	49.000000	30.000000
0.830000	58.000000	61.940000	627.000000	0.000000	139.000000	60.000000	39.000000	31.000000
0.840000	58.300000	62.250000	642.000000	0.000000	141.000000	60.000000	30.000000	31.000000
0.850000	58.540000	62.520000	662.000000	0.000000	141.000000	60.000000	24.000000	27.000000
0.860000	58.590000	62.760000	703.000000	0.000000	141.000000	60.000000	5.000000	24.000000
0.870000	58.590000	62.920000	763.000000	0.000000	142.000000	61.000000	0.000000	16.000000
0.880000	58.500000	63.030000	757.000000	0.000000	142.000000	61.000000	-9.000000	11.000000
0.890000	58.320000	63.090000	771.000000	0.000000	144.000000	60.000000	-18.000000	6.000000
0.900000	58.040000	63.090000	784.000000	0.000000	144.000000	60.000000	-28.000000	0.000000
0.910000	57.690000	62.970000	788.000000	0.000000	144.000000	60.000000	-35.000000	-12.000000
0.920000	57.300000	62.730000	802.000000	0.000000	144.000000	60.000000	-39.000000	-24.000000
0.930000	56.920000	62.330000	836.000000	0.000000	144.000000	60.000000	-38.000000	-40.000000
0.940000	56.600000	61.920000	863.000000	0.000000	142.000000	59.000000	-32.000000	-41.000000
0.950000	56.490000	61.610000	861.000000	0.000000	142.000000	59.000000	-11.000000	-31.000000
0.960000	56.490000	61.380000	842.000000	0.000000	141.000000	60.000000	0.000000	-23.000000
0.970000	56.670000	61.220000	827.000000	0.000000	139.000000	60.000000	18.000000	-16.000000
0.980000	56.870000	61.140000	818.000000	0.000000	139.000000	60.000000	20.000000	-8.000000
0.990000	57.140000	61.140000	806.000000	0.000000	139.000000	60.000000	27.000000	0.000000
1.000000	57.480000	61.200000	799.000000	0.000000	139.000000	60.000000	34.000000	6.000000
1.010000	57.710000	61.290000	797.000000	0.000000	139.000000	60.000000	23.000000	9.000000
1.020000	57.880000	61.340000	797.000000	0.000000	139.000000	60.000000	17.000000	5.000000
1.030000	57.880000	61.340000	796.000000	0.000000	139.000000	60.000000	0.000000	0.000000
1.040000	57.940000	61.270000	787.000000	0.000000	139.000000	60.000000	6.000000	-7.000000
1.050000	58.000000	61.270000	785.000000	0.000000	141.000000	60.000000	6.000000	0.000000
1.060000	58.060000	61.120000	722.000000	0.000000	141.000000	60.000000	6.000000	-15.000000
1.070000	58.130000	61.010000	627.000000	0.000000	141.000000	60.000000	7.000000	-11.000000
1.080000	58.190000	60.900000	448.000000	0.000000	141.000000	60.000000	6.000000	-11.000000
1.090000	58.250000	60.900000	68.000000	0.000000	141.000000	60.000000	6.000000	0.000000
1.100000	58.250000	60.900000	0.000000	1.000000	139.000000	61.000000	0.000000	0.000000
1.110000	58.310000	61.140000	0.000000	0.000000	139.000000	61.000000	6.000000	24.000000
1.120000	58.310000	61.420000	0.000000	0.000000	139.000000	61.000000	0.000000	28.000000
1.130000	58.220000	61.770000	0.000000	0.000000	139.000000	61.000000	-9.000000	35.000000
1.140000	58.170000	62.260000	0.000000	0.000000	139.000000	61.000000	-5.000000	49.000000
1.150000	58.120000	62.820000	0.000000	0.000000	139.000000	61.000000	-5.000000	56.000000
1.160000	58.120000	63.440000	0.000000	0.000000	139.000000	61.000000	0.000000	62.000000
1.170000	58.060000	63.950000	0.000000	0.000000	141.000000	60.000000	-6.000000	51.000000
1.180000	58.060000	63.950000	467.000000	1.000000	141.000000	60.000000	0.000000	0.000000
1.190000	58.060000	63.950000	575.000000	0.000000	141.000000	60.000000	0.000000	0.000000
1.200000	58.060000	63.950000	645.000000	0.000000	141.000000	60.000000	0.000000	0.000000
1.210000	58.060000	63.950000	682.000000	0.000000	141.000000	60.000000	0.000000	0.000000
1.220000	58.100000	64.050000	724.000000	0.000000	141.000000	60.000000	4.000000	10.000000
1.230000	58.320000	63.910000	745.000000	0.000000	141.000000	60.000000	22.000000	-14.000000
1.240000	58.640000	63.730000	761.000000	0.000000	142.000000	61.000000	32.000000	-18.000000
1.250000	58.980000	63.460000	776.000000	0.000000	142.000000	61.000000	34.000000	-27.000000
1.260000	59.230000	63.150000	787.000000	0.000000	142.000000	61.000000	25.000000	-31.000000
1.270000	59.420000	62.720000	832.000000	0.000000	144.000000	61.000000	19.000000	-43.000000
1.280000	59.420000	62.220000	863.000000	0.000000	144.000000	61.000000	0.000000	-50.000000
1.290000	59.360000	61.760000	878.000000	0.000000	144.000000	61.000000	-6.000000	-46.000000
1.300000	59.260000	61.420000	897.000000	0.000000	146.000000	62.000000	-10.000000	-34.000000
1.310000	59.110000	61.150000	906.000000	0.000000	146.000000	62.000000	-15.000000	-27.000000
1.320000	58.970000	61.030000	899.000000	0.000000	146.000000	62.000000	-14.000000	-12.000000
1.330000	58.860000	61.030000	858.000000	0.000000	146.000000	62.000000	-11.000000	0.000000
1.340000	58.770000	61.140000	768.000000	0.000000	146.000000	62.000000	-9.000000	11.000000
1.350000	58.710000	61.420000	728.000000	0.000000	146.000000	62.000000	-6.000000	28.000000
1.360000	58.710000	61.690000	684.000000	0.000000	146.000000	62.000000	0.000000	27.000000
1.370000	58.810000	61.940000	673.000000	0.000000	146.000000	62.000000	10.000000	25.000000
1.380000	58.970000	62.140000	684.000000	0.000000	146.000000	62.000000	16.000000	20.000000
1.390000	59.200000	62.300000	697.000000	0.000000	146.000000	62.000000	23.000000	16.000000
1.400000	59.480000	62.460000	690.000000	0.000000	146.000000	62.000000	28.000000	16.000000
1.410000	59.810000	62.660000	702.000000	0.000000	146.000000	62.000000	33.000000	20.000000
1.420000	60.150000	62.920000	708.000000	0.000000	146.000000	62.000000	34.000000	26.000000
1.430000	60.500000	63.230000	713.000000	0.000000	146.000000	62.000000	35.000000	31.000000
1.440000	60.840000	63.550000	728.000000	0.000000	146.000000	62.000000	34.000000	32.000000
1.450000	61.020000	63.850000	754.000000	0.000000	146.000000	62.000000	18.000000	30.000000
1.460000	61.080000	64.140000	805.000000	0.000000	146.000000	62.000000	6.000000	29.000000
1.470000	61.080000	64.260000	834.000000	0.000000	146.000000	62.000000	0.000000	12.000000
1.480000	60.990000	64.350000	857.000000	0.000000	146.000000	62.000000	-9.000000	9.000000
1.490000	60.810000	64.350000	872.000000	0.000000	146.000000	62.000000	-18.000000	0.000000
1.500000	60.630000	64.240000	875.000000	0.000000	146.000000	62.000000	-18.000000	-11.000000
1.510000	60.460000	64.020000	875.000000	0.000000	146.000000	62.000000	-17.000000	-22.000000
1.520000	60.310000	63.680000	875.000000	0.000000	146.000000	62.000000	-15.000000	-34.000000
1.530000	60.240000	63.330000	872.000000	0.000000	146.000000	62.000000	-7.000000	-35.000000
1.540000	60.240000	62.960000	848.000000	0.000000	146.000000	62.000000	0.000000	-37.000000
1.550000	60.380000	62.680000	805.000000	0.000000	146.000000	62.000000	14.000000	-28.000000
1.560000	60.560000	62.450000	702.000000	0.000000	147.000000	61.000000	18.000000	-23.000000
1.570000	60.780000	62.290000	456.000000	0.000000	145.000000	60.000000	22.000000	-16.000000
1.580000	60.780000	62.290000	0.000000	1.000000	145.000000	60.000000	0.000000	0.000000
1.590000	61.180000	62.200000	0.000000	0.000000	145.000000	60.000000	40.000000	-9.000000
1.600000	61.280000	62.250000	0.000000	0.000000	145.000000	60.000000	10.000000	5.000000
1.610000	61.280000	62.430000	0.000000	0.000000	145.000000	60.000000	0.000000	18.000000
1.620000	61.340000	62.670000	0.000000	0.000000	145.000000	60.000000	6.000000	24.000000
1.630000	61.410000	62.990000	0.000000	0.000000	145.000000	60.000000	7.000000	32.000000
1.640000	61.520000	63.320000	0.000000	0.000000	144.000000	61.000000	11.000000	33.000000
1.650000	61.520000	63.320000	148.000000	1.000000	144.000000	61.000000	0.000000	0.000000
1.660000	61.790000	63.890000	260.000000	0.000000	144.000000	61.000000	27.000000	57.000000
1.670000	61.900000	64.080000	443.000000	0.000000	144.000000	61.000000	11.000000	19.000000
1.680000	62.030000	64.180000	592.000000	0.000000	144.000000	61.000000	13.000000	10.000000
1.690000	62.030000	64.180000	636.000000	0.000000	144.000000	61.000000	0.000000	0.000000
1.700000	62.030000	64.180000	694.000000	0.000000	144.000000	61.000000	0.000000	0.000000
1.710000	62.370000	64.080000	711.000000	0.000000	144.000000	61.000000	34.000000	-10.000000
1.720000	62.440000	63.820000	733.000000	0.000000	144.000000	61.000000	7.000000	-26.000000
1.730000	62.490000	63.540000	725.000000	0.000000	144.000000	61.000000	5.000000	-28.000000
1.740000	62.490000	63.250000	728.000000	0.000000	144.000000	61.000000	0.000000	-29.000000
1.750000	62.670000	63.040000	714.000000	0.000000	144.000000	61.000000	18.000000	-21.000000
1.760000	62.830000	62.890000	620.000000	0.000000	144.000000	61.000000	16.000000	-15.000000
1.770000	62.980000	62.800000	422.000000	0.000000	144.000000	61.000000	15.000000	-9.000000
1.780000	62.980000	62.800000	0.000000	1.000000	145.000000	60.000000	0.000000	0.000000
1.790000	63.130000	62.740000	0.000000	0.000000	144.000000	60.000000	15.000000	-6.000000
1.800000	63.010000	62.740000	0.000000	0.000000	144.000000	60.000000	-12.000000	0.000000
1.810000	62.790000	62.810000	0.000000	0.000000	144.000000	60.000000	-22.000000	7.000000
1.820000	62.500000	62.930000	0.000000	0.000000	144.000000	60.000000	-29.000000	12.000000
1.830000	62.170000	63.040000	0.000000	0.000000	144.000000	60.000000	-33.000000	11.000000
1.840000	61.860000	63.130000	0.000000	0.000000	144.000000	60.000000	-31.000000	9.000000
1.850000	61.550000	63.130000	0.000000	0.000000	145.000000	60.000000	-31.000000	0.000000
1.860000	61.550000	63.130000	394.000000	1.000000	145.000000	60.000000	0.000000	0.000000
1.870000	61.550000	63.130000	439.000000	0.000000	145.000000	60.000000	0.000000	0.000000
1.880000	61.550000	63.130000	468.000000	0.000000	145.000000	60.000000	0.000000	0.000000
1.890000	61.550000	63.130000	474.000000	0.000000	145.000000	60.000000	0.000000	0.000000
1.900000	61.930000	63.500000	405.000000	0.000000	145.000000	60.000000	38.000000	37.000000
1.910000	62.380000	63.660000	215.000000	0.000000	145.000000	60.000000	45.000000	16.000000
1.920000	62.880000	63.810000	1.000000	1.000000	144.000000	61.000000	0.000000	0.000000
1.930000	62.880000	63.810000	0.000000	0.000000	144.000000	61.000000	0.000000	0.000000
1.940000	63.770000	64.130000	0.000000	0.000000	144.000000	61.000000	89.000000	32.000000
1.950000	64.130000	64.330000	0.000000	0.000000	144.000000	61.000000	36.000000	20.000000
1.960000	64.440000	64.570000	0.000000	0.000000	144.000000	61.000000	31.000000	24.000000
1.970000	64.440000	64.570000	85.000000	1.000000	144.000000	61.000000	0.000000	0.000000
1.980000	64.870000	65.120000	228.000000	0.000000	144.000000	61.000000	43.000000	55.000000
1.990000	64.940000	65.410000	404.000000	0.000000	143.000000	62.000000	7.000000	29.000000
2.000000	64.940000	65.520000	563.000000	0.000000	143.000000	62.000000	0.000000	11.000000
2.010000	64.780000	65.590000	610.000000	0.000000	143.000000	62.000000	-16.000000	7.000000
2.020000	64.520000	65.540000	684.000000	0.000000	143.000000	62.000000	-26.000000	-5.000000
2.030000	64.230000	65.410000	700.000000	0.000000	143.000000	62.000000	-29.000000	-13.000000
2.040000	63.920000	65.190000	719.000000	0.000000	143.000000	62.000000	-31.000000	-22.000000
2.050000	63.700000	64.940000	725.000000	0.000000	143.000000	62.000000	-22.000000	-25.000000
2.060000	63.650000	64.700000	710.000000	0.000000	143.000000	62.000000	-5.000000	-24.000000
2.070000	63.710000	64.520000	711.000000	0.000000	143.000000	62.000000	6.000000	-18.000000
2.080000	63.920000	64.380000	707.000000	0.000000	144.000000	61.000000	21.000000	-14.000000
2.090000	64.170000	64.290000	707.000000	0.000000	144.000000	61.000000	25.000000	-9.000000
2.100000	64.480000	64.150000	708.000000	0.000000	142.000000	61.000000	31.000000	-14.000000
2.110000	64.660000	63.980000	719.000000	0.000000	144.000000	61.000000	18.000000	-17.000000
2.120000	64.740000	63.810000	727.000000	0.000000	144.000000	61.000000	8.000000	-17.000000
2.130000	64.740000	63.580000	739.000000	0.000000	144.000000	61.000000	0.000000	-23.000000
2.140000	64.740000	63.400000	728.000000	0.000000	144.000000	61.000000	0.000000	-18.000000
2.150000	64.670000	63.250000	693.000000	0.000000	144.000000	61.000000	-7.000000	-15.000000
2.160000	64.670000	63.180000	580.000000	0.000000	144.000000	61.000000	0.000000	-7.000000
2.170000	64.670000	63.180000	270.000000	0.000000	145.000000	60.000000	0.000000	0.000000
2.180000	64.670000	63.180000	0.000000	1.000000	145.000000	60.000000	0.000000	0.000000
2.190000	64.670000	63.300000	0.000000	0.000000	145.000000	60.000000	0.000000	12.000000
2.200000	64.670000	63.460000	0.000000	0.000000	145.000000	60.000000	0.000000	16.000000
2.210000	64.670000	63.680000	0.000000	0.000000	147.000000	61.000000	0.000000	22.000000
