t	x	y	pressure	penup	azimuth	inclination	v_x	v_y
0.000000	103.880000	14.730000	141.000000	1.000000	176.000000	35.000000	0.000000	0.000000
0.010000	103.600000	14.830000	182.000000	0.000000	175.000000	37.000000	-28.000000	10.000000
0.020000	103.600000	14.830000	196.000000	0.000000	175.000000	38.000000	0.000000	0.000000
0.030000	103.650000	14.830000	215.000000	0.000000	174.000000	40.000000	5.000000	0.000000
0.040000	103.810000	14.830000	237.000000	0.000000	174.000000	41.000000	16.000000	0.000000
0.050000	104.270000	14.890000	270.000000	0.000000	174.000000	42.000000	46.000000	6.000000
0.060000	104.920000	14.890000	327.000000	0.000000	174.000000	43.000000	65.000000	0.000000
0.070000	105.870000	14.890000	372.000000	0.000000	174.000000	43.000000	95.000000	0.000000
0.080000	107.330000	14.810000	388.000000	0.000000	175.000000	43.000000	146.000000	-8.000000
0.090000	109.120000	14.740000	417.000000	0.000000	175.000000	43.000000	179.000000	-7.000000
0.100000	111.380000	14.740000	418.000000	0.000000	175.000000	42.000000	226.000000	0.000000
0.110000	113.650000	14.900000	435.000000	0.000000	174.000000	41.000000	227.000000	16.000000
0.120000	115.930000	15.070000	449.000000	0.000000	174.000000	39.000000	228.000000	17.000000
0.130000	117.820000	15.300000	445.000000	0.000000	172.000000	37.000000	189.000000	23.000000
0.140000	119.110000	15.580000	448.000000	0.000000	172.000000	35.000000	129.000000	28.000000
0.150000	119.990000	15.850000	467.000000	0.000000	171.000000	33.000000	88.000000	27.000000
0.160000	120.170000	16.120000	494.000000	0.000000	171.000000	31.000000	18.000000	27.000000
0.170000	120.010000	16.490000	493.000000	0.000000	171.000000	30.000000	-16.000000	37.000000
0.180000	119.610000	16.920000	465.000000	0.000000	171.000000	30.000000	-40.000000	43.000000
0.190000	118.940000	17.400000	436.000000	0.000000	170.000000	31.000000	-67.000000	48.000000
0.200000	117.920000	17.810000	422.000000	0.000000	169.000000	33.000000	-102.000000	41.000000
0.210000	116.670000	18.170000	415.000000	0.000000	168.000000	35.000000	-125.000000	36.000000
0.220000	114.990000	18.510000	418.000000	0.000000	167.000000	38.000000	-168.000000	34.000000
0.230000	113.230000	18.800000	430.000000	0.000000	165.000000	42.000000	-176.000000	29.000000
0.240000	111.420000	19.030000	445.000000	0.000000	164.000000	45.000000	-181.000000	23.000000
0.250000	109.330000	19.030000	471.000000	0.000000	164.000000	48.000000	-209.000000	0.000000
0.260000	107.540000	18.980000	486.000000	0.000000	164.000000	50.000000	-179.000000	-5.000000
0.270000	105.950000	18.820000	491.000000	0.000000	166.000000	51.000000	-159.000000	-16.000000
0.280000	104.480000	18.410000	490.000000	0.000000	168.000000	52.000000	-147.000000	-41.000000
0.290000	103.470000	17.840000	483.000000	0.000000	171.000000	52.000000	-101.000000	-57.000000
0.300000	102.760000	17.180000	478.000000	0.000000	174.000000	51.000000	-71.000000	-66.000000
0.310000	102.500000	16.470000	473.000000	0.000000	175.000000	50.000000	-26.000000	-71.000000
0.320000	102.500000	15.560000	473.000000	0.000000	177.000000	49.000000	0.000000	-91.000000
0.330000	102.780000	14.550000	475.000000	0.000000	178.000000	48.000000	28.000000	-101.000000
0.340000	103.270000	13.410000	477.000000	0.000000	178.000000	47.000000	49.000000	-114.000000
0.350000	103.950000	12.190000	481.000000	0.000000	177.000000	47.000000	68.000000	-122.000000
0.360000	104.750000	10.910000	483.000000	0.000000	177.000000	46.000000	80.000000	-128.000000
0.370000	105.300000	10.100000	480.000000	0.000000	178.000000	46.000000	55.000000	-81.000000
0.380000	105.570000	9.390000	483.000000	0.000000	178.000000	46.000000	27.000000	-71.000000
0.390000	105.650000	8.760000	485.000000	0.000000	179.000000	46.000000	8.000000	-63.000000
0.400000	105.450000	8.220000	481.000000	0.000000	179.000000	46.000000	-20.000000	-54.000000
0.410000	104.830000	7.830000	481.000000	0.000000	180.000000	46.000000	-62.000000	-39.000000
0.420000	103.920000	7.530000	477.000000	0.000000	180.000000	46.000000	-91.000000	-30.000000
0.430000	102.580000	7.440000	464.000000	0.000000	180.000000	46.000000	-134.000000	-9.000000
0.440000	100.700000	7.520000	452.000000	0.000000	180.000000	46.000000	-188.000000	8.000000
0.450000	98.450000	7.710000	458.000000	0.000000	180.000000	47.000000	-225.000000	19.000000
0.460000	96.020000	8.080000	450.000000	0.000000	180.000000	47.000000	-243.000000	37.000000
0.470000	93.400000	8.520000	456.000000	0.000000	179.000000	47.000000	-262.000000	44.000000
0.480000	90.640000	9.010000	491.000000	0.000000	178.000000	48.000000	-276.000000	49.000000
0.490000	88.090000	9.430000	504.000000	0.000000	177.000000	49.000000	-255.000000	42.000000
0.500000	86.080000	9.740000	546.000000	0.000000	175.000000	51.000000	-201.000000	31.000000
0.510000	84.440000	9.990000	577.000000	0.000000	174.000000	52.000000	-164.000000	25.000000
0.520000	83.510000	10.210000	585.000000	0.000000	172.000000	53.000000	-93.000000	22.000000
0.530000	83.210000	10.410000	592.000000	0.000000	172.000000	54.000000	-30.000000	20.000000
0.540000	83.320000	10.590000	586.000000	0.000000	170.000000	54.000000	11.000000	18.000000
0.550000	84.290000	10.800000	599.000000	0.000000	170.000000	55.000000	97.000000	21.000000
0.560000	86.300000	11.000000	614.000000	0.000000	171.000000	55.000000	201.000000	20.000000
0.570000	89.000000	11.170000	630.000000	0.000000	171.000000	55.000000	270.000000	17.000000
0.580000	92.740000	11.170000	637.000000	0.000000	173.000000	55.000000	374.000000	0.000000
0.590000	97.350000	11.090000	647.000000	0.000000	174.000000	55.000000	461.000000	-8.000000
0.600000	102.530000	10.860000	643.000000	0.000000	175.000000	54.000000	518.000000	-23.000000
0.610000	108.180000	10.520000	639.000000	0.000000	175.000000	53.000000	565.000000	-34.000000
0.620000	113.860000	9.970000	624.000000	0.000000	174.000000	51.000000	568.000000	-55.000000
0.630000	119.010000	9.280000	572.000000	0.000000	172.000000	49.000000	515.000000	-69.000000
0.640000	123.790000	8.640000	149.000000	0.000000	171.000000	46.000000	478.000000	-64.000000
0.650000	126.990000	7.970000	13.000000	1.000000	170.000000	43.000000	0.000000	0.000000
0.660000	126.990000	7.210000	13.000000	0.000000	170.000000	41.000000	0.000000	-76.000000
0.670000	126.990000	7.210000	13.000000	0.000000	169.000000	39.000000	0.000000	0.000000
0.680000	126.990000	7.660000	13.000000	0.000000	169.000000	38.000000	0.000000	45.000000
0.690000	126.990000	7.980000	13.000000	0.000000	169.000000	38.000000	0.000000	32.000000
0.700000	126.990000	8.320000	13.000000	0.000000	169.000000	38.000000	0.000000	34.000000
0.710000	126.990000	8.650000	13.000000	0.000000	169.000000	38.000000	0.000000	33.000000
0.720000	126.990000	8.650000	0.000000	0.000000	169.000000	36.000000	0.000000	0.000000
0.730000	126.990000	9.220000	0.000000	0.000000	168.000000	33.000000	0.000000	57.000000
0.740000	126.990000	9.600000	0.000000	0.000000	166.000000	30.000000	0.000000	38.000000
0.750000	126.100000	10.030000	0.000000	0.000000	163.000000	29.000000	-89.000000	43.000000
0.760000	124.600000	10.420000	0.000000	0.000000	160.000000	29.000000	-150.000000	39.000000
0.770000	122.580000	10.920000	0.000000	0.000000	156.000000	28.000000	-202.000000	50.000000
0.780000	120.230000	11.500000	0.000000	0.000000	153.000000	27.000000	-235.000000	58.000000
0.790000	117.660000	12.270000	0.000000	0.000000	149.000000	26.000000	-257.000000	77.000000
0.800000	115.370000	12.990000	0.000000	0.000000	145.000000	25.000000	-229.000000	72.000000
0.810000	113.030000	13.420000	0.000000	0.000000	139.000000	24.000000	-234.000000	43.000000
0.820000	110.420000	13.670000	0.000000	0.000000	137.000000	23.000000	-261.000000	25.000000
0.830000	107.650000	13.880000	0.000000	0.000000	138.000000	23.000000	-277.000000	21.000000
0.840000	105.920000	13.990000	0.000000	0.000000	143.000000	25.000000	-173.000000	11.000000
0.850000	104.470000	13.990000	0.000000	0.000000	146.000000	26.000000	-145.000000	0.000000
0.860000	103.200000	13.990000	0.000000	0.000000	148.000000	26.000000	-127.000000	0.000000
0.870000	102.180000	14.100000	0.000000	0.000000	148.000000	26.000000	-102.000000	11.000000
0.880000	101.180000	14.220000	0.000000	0.000000	155.000000	28.000000	-100.000000	12.000000
0.890000	100.310000	14.350000	0.000000	0.000000	161.000000	29.000000	-87.000000	13.000000
0.900000	99.520000	14.470000	0.000000	0.000000	167.000000	29.000000	-79.000000	12.000000
0.910000	98.910000	14.610000	0.000000	0.000000	172.000000	30.000000	-61.000000	14.000000
0.920000	98.620000	14.680000	0.000000	0.000000	172.000000	30.000000	-29.000000	7.000000
0.930000	98.530000	14.680000	0.000000	0.000000	173.000000	30.000000	-9.000000	0.000000
0.940000	98.450000	14.680000	0.000000	0.000000	173.000000	30.000000	-8.000000	0.000000
0.950000	98.310000	14.600000	0.000000	0.000000	174.000000	30.000000	-14.000000	-8.000000
0.960000	97.930000	14.550000	0.000000	0.000000	174.000000	30.000000	-38.000000	-5.000000
0.970000	97.410000	14.550000	0.000000	0.000000	174.000000	32.000000	-52.000000	0.000000
0.980000	96.850000	14.500000	0.000000	0.000000	174.000000	35.000000	-56.000000	-5.000000
0.990000	96.300000	14.500000	0.000000	0.000000	174.000000	37.000000	-55.000000	0.000000
1.000000	95.750000	14.550000	0.000000	0.000000	173.000000	37.000000	-55.000000	5.000000
1.010000	95.440000	14.670000	0.000000	0.000000	173.000000	38.000000	-31.000000	12.000000
1.020000	95.300000	14.850000	0.000000	0.000000	172.000000	38.000000	-14.000000	18.000000
1.030000	95.300000	14.980000	0.000000	0.000000	171.000000	39.000000	0.000000	13.000000
1.040000	95.080000	15.090000	0.000000	0.000000	170.000000	39.000000	-22.000000	11.000000
1.050000	94.650000	15.010000	0.000000	0.000000	170.000000	40.000000	-43.000000	-8.000000
1.060000	94.060000	14.820000	0.000000	0.000000	170.000000	40.000000	-59.000000	-19.000000
1.070000	93.700000	14.820000	0.000000	0.000000	170.000000	40.000000	-36.000000	0.000000
1.080000	93.530000	14.820000	0.000000	0.000000	170.000000	40.000000	-17.000000	0.000000
1.090000	93.530000	14.880000	0.000000	0.000000	170.000000	40.000000	0.000000	6.000000
1.100000	93.590000	14.980000	0.000000	0.000000	170.000000	40.000000	6.000000	10.000000
1.110000	93.700000	15.070000	0.000000	0.000000	170.000000	40.000000	11.000000	9.000000
1.120000	93.820000	15.200000	0.000000	0.000000	171.000000	40.000000	12.000000	13.000000
1.130000	93.930000	15.360000	0.000000	0.000000	171.000000	40.000000	11.000000	16.000000
1.140000	94.050000	15.500000	0.000000	0.000000	171.000000	40.000000	12.000000	14.000000
1.150000	94.050000	15.590000	0.000000	0.000000	171.000000	40.000000	0.000000	9.000000
1.160000	93.870000	15.510000	0.000000	0.000000	171.000000	40.000000	-18.000000	-8.000000
1.170000	93.600000	15.330000	0.000000	0.000000	171.000000	40.000000	-27.000000	-18.000000
1.180000	93.270000	15.140000	0.000000	0.000000	171.000000	40.000000	-33.000000	-19.000000
1.190000	92.900000	14.960000	0.000000	0.000000	171.000000	40.000000	-37.000000	-18.000000
1.200000	92.500000	14.780000	0.000000	0.000000	171.000000	40.000000	-40.000000	-18.000000
1.210000	92.120000	14.580000	0.000000	0.000000	171.000000	40.000000	-38.000000	-20.000000
1.220000	91.740000	14.490000	0.000000	0.000000	171.000000	40.000000	-38.000000	-9.000000
1.230000	91.740000	14.490000	0.000000	0.000000	171.000000	40.000000	0.000000	0.000000
1.240000	91.790000	14.490000	0.000000	0.000000	170.000000	40.000000	5.000000	0.000000
1.250000	91.930000	14.490000	0.000000	0.000000	170.000000	40.000000	14.000000	0.000000
1.260000	91.930000	14.490000	0.000000	0.000000	170.000000	41.000000	0.000000	0.000000
1.270000	91.930000	14.360000	0.000000	0.000000	170.000000	41.000000	0.000000	-13.000000
1.280000	91.930000	14.250000	0.000000	0.000000	170.000000	41.000000	0.000000	-11.000000
1.290000	91.930000	14.140000	0.000000	0.000000	170.000000	42.000000	0.000000	-11.000000
1.300000	91.930000	14.010000	0.000000	0.000000	170.000000	42.000000	0.000000	-13.000000
1.310000	91.930000	13.920000	0.000000	0.000000	171.000000	43.000000	0.000000	-9.000000
1.320000	92.000000	13.840000	0.000000	0.000000	170.000000	44.000000	7.000000	-8.000000
1.330000	92.070000	13.840000	0.000000	0.000000	170.000000	45.000000	7.000000	0.000000
1.340000	92.150000	13.960000	0.000000	0.000000	171.000000	45.000000	8.000000	12.000000
1.350000	92.230000	14.060000	0.000000	0.000000	171.000000	46.000000	8.000000	10.000000
1.360000	92.290000	14.120000	0.000000	0.000000	171.000000	46.000000	6.000000	6.000000
1.370000	92.340000	14.170000	0.000000	0.000000	171.000000	46.000000	5.000000	5.000000
1.380000	92.400000	14.170000	0.000000	0.000000	171.000000	46.000000	6.000000	0.000000
1.390000	92.400000	14.170000	0.000000	0.000000	171.000000	46.000000	0.000000	0.000000
1.400000	92.400000	14.170000	0.000000	0.000000	171.000000	46.000000	0.000000	0.000000
1.410000	92.400000	14.170000	0.000000	0.000000	170.000000	45.000000	0.000000	0.000000
1.420000	92.400000	14.170000	0.000000	0.000000	170.000000	45.000000	0.000000	0.000000
1.430000	92.400000	14.170000	0.000000	0.000000	170.000000	46.000000	0.000000	0.000000
1.440000	92.400000	14.170000	0.000000	0.000000	171.000000	46.000000	0.000000	0.000000
1.450000	92.400000	14.170000	0.000000	0.000000	171.000000	46.000000	0.000000	0.000000
1.460000	92.400000	14.170000	0.000000	0.000000	170.000000	47.000000	0.000000	0.000000
1.470000	92.340000	13.920000	0.000000	0.000000	170.000000	47.000000	-6.000000	-25.000000
1.480000	92.250000	13.850000	0.000000	0.000000	170.000000	47.000000	-9.000000	-7.000000
1.490000	92.190000	13.780000	0.000000	0.000000	170.000000	48.000000	-6.000000	-7.000000
1.500000	92.190000	13.700000	0.000000	0.000000	170.000000	49.000000	0.000000	-8.000000
1.510000	92.190000	13.650000	0.000000	0.000000	171.000000	49.000000	0.000000	-5.000000
1.520000	92.260000	13.650000	0.000000	0.000000	170.000000	50.000000	7.000000	0.000000
1.530000	92.260000	13.570000	0.000000	0.000000	169.000000	50.000000	0.000000	-8.000000
1.540000	92.260000	13.570000	5.000000	0.000000	169.000000	51.000000	0.000000	0.000000
1.550000	92.260000	13.570000	70.000000	1.000000	167.000000	51.000000	0.000000	0.000000
1.560000	92.260000	13.570000	108.000000	0.000000	166.000000	52.000000	0.000000	0.000000
1.570000	92.260000	13.570000	184.000000	0.000000	164.000000	52.000000	0.000000	0.000000
1.580000	92.070000	13.290000	239.000000	0.000000	164.000000	53.000000	-19.000000	-28.000000
1.590000	92.070000	13.210000	282.000000	0.000000	162.000000	53.000000	0.000000	-8.000000
1.600000	92.070000	13.160000	327.000000	0.000000	161.000000	52.000000	0.000000	-5.000000
1.610000	92.200000	13.160000	372.000000	0.000000	160.000000	53.000000	13.000000	0.000000
1.620000	92.370000	13.160000	396.000000	0.000000	159.000000	53.000000	17.000000	0.000000
1.630000	92.650000	13.240000	418.000000	0.000000	159.000000	53.000000	28.000000	8.000000
1.640000	93.230000	13.450000	448.000000	0.000000	160.000000	53.000000	58.000000	21.000000
1.650000	94.000000	13.800000	474.000000	0.000000	160.000000	53.000000	77.000000	35.000000
1.660000	94.950000	14.380000	496.000000	0.000000	162.000000	54.000000	95.000000	58.000000
1.670000	95.910000	15.120000	518.000000	0.000000	164.000000	53.000000	96.000000	74.000000
1.680000	96.810000	15.970000	537.000000	0.000000	165.000000	53.000000	90.000000	85.000000
1.690000	97.680000	16.940000	537.000000	0.000000	167.000000	52.000000	87.000000	97.000000
1.700000	98.310000	17.990000	554.000000	0.000000	169.000000	51.000000	63.000000	105.000000
1.710000	98.840000	18.880000	561.000000	0.000000	170.000000	52.000000	53.000000	89.000000
1.720000	99.310000	19.760000	563.000000	0.000000	171.000000	51.000000	47.000000	88.000000
1.730000	99.590000	20.230000	564.000000	0.000000	173.000000	51.000000	28.000000	47.000000
1.740000	99.660000	20.440000	570.000000	0.000000	174.000000	51.000000	7.000000	21.000000
1.750000	99.580000	20.440000	545.000000	0.000000	175.000000	51.000000	-8.000000	0.000000
1.760000	99.440000	20.440000	538.000000	0.000000	175.000000	51.000000	-14.000000	0.000000
1.770000	99.040000	20.330000	518.000000	0.000000	176.000000	52.000000	-40.000000	-11.000000
1.780000	98.460000	20.090000	510.000000	0.000000	176.000000	52.000000	-58.000000	-24.000000
1.790000	97.740000	19.770000	496.000000	0.000000	176.000000	52.000000	-72.000000	-32.000000
1.800000	97.050000	19.440000	494.000000	0.000000	176.000000	52.000000	-69.000000	-33.000000
1.810000	96.380000	19.090000	496.000000	0.000000	175.000000	52.000000	-67.000000	-35.000000
1.820000	95.980000	18.690000	492.000000	0.000000	175.000000	52.000000	-40.000000	-40.000000
1.830000	95.730000	17.990000	497.000000	0.000000	174.000000	52.000000	-25.000000	-70.000000
1.840000	95.570000	17.090000	502.000000	0.000000	172.000000	52.000000	-16.000000	-90.000000
1.850000	95.570000	16.010000	504.000000	0.000000	173.000000	51.000000	0.000000	-108.000000
1.860000	95.710000	14.920000	491.000000	0.000000	173.000000	51.000000	14.000000	-109.000000
1.870000	96.040000	13.840000	491.000000	0.000000	171.000000	51.000000	33.000000	-108.000000
1.880000	96.340000	12.940000	481.000000	0.000000	171.000000	51.000000	30.000000	-90.000000
1.890000	96.600000	12.130000	481.000000	0.000000	173.000000	51.000000	26.000000	-81.000000
1.900000	96.830000	11.530000	477.000000	0.000000	173.000000	51.000000	23.000000	-60.000000
1.910000	96.920000	11.220000	475.000000	0.000000	172.000000	52.000000	9.000000	-31.000000
1.920000	96.920000	11.110000	481.000000	0.000000	172.000000	52.000000	0.000000	-11.000000
1.930000	96.920000	11.110000	485.000000	0.000000	173.000000	53.000000	0.000000	0.000000
1.940000	96.690000	11.110000	489.000000	0.000000	173.000000	53.000000	-23.000000	0.000000
1.950000	96.250000	11.230000	514.000000	0.000000	173.000000	54.000000	-44.000000	12.000000
1.960000	95.670000	11.340000	510.000000	0.000000	173.000000	54.000000	-58.000000	11.000000
1.970000	94.640000	11.660000	515.000000	0.000000	173.000000	54.000000	-103.000000	32.000000
1.980000	93.480000	12.110000	521.000000	0.000000	172.000000	54.000000	-116.000000	45.000000
1.990000	92.230000	12.610000	529.000000	0.000000	172.000000	54.000000	-125.000000	50.000000
2.000000	91.130000	13.110000	526.000000	0.000000	170.000000	55.000000	-110.000000	50.000000
2.010000	90.070000	13.620000	546.000000	0.000000	167.000000	54.000000	-106.000000	51.000000
2.020000	89.030000	14.120000	561.000000	0.000000	166.000000	54.000000	-104.000000	50.000000
2.030000	88.590000	14.430000	605.000000	0.000000	166.000000	54.000000	-44.000000	31.000000
2.040000	88.590000	14.620000	585.000000	0.000000	164.000000	54.000000	0.000000	19.000000
2.050000	88.770000	14.710000	586.000000	0.000000	164.000000	54.000000	18.000000	9.000000
2.060000	89.470000	14.810000	592.000000	0.000000	164.000000	54.000000	70.000000	10.000000
2.070000	90.800000	14.910000	603.000000	0.000000	165.000000	53.000000	133.000000	10.000000
2.080000	92.550000	14.910000	624.000000	0.000000	165.000000	53.000000	175.000000	0.000000
2.090000	95.460000	14.650000	634.000000	0.000000	166.000000	53.000000	291.000000	-26.000000
2.100000	98.990000	14.230000	645.000000	0.000000	168.000000	52.000000	353.000000	-42.000000
2.110000	102.920000	13.690000	642.000000	0.000000	169.000000	53.000000	393.000000	-54.000000
2.120000	107.630000	13.150000	589.000000	0.000000	170.000000	52.000000	471.000000	-54.000000
2.130000	112.680000	12.580000	453.000000	0.000000	170.000000	50.000000	505.000000	-57.000000
2.140000	112.680000	12.580000	0.000000	1.000000	170.000000	48.000000	0.000000	0.000000
2.150000	122.830000	11.240000	0.000000	0.000000	170.000000	46.000000	1015.000000	-134.000000
2.160000	125.610000	11.010000	0.000000	0.000000	171.000000	43.000000	278.000000	-23.000000
2.170000	126.990000	10.890000	0.000000	0.000000	170.000000	41.000000	138.000000	-12.000000
2.180000	126.990000	10.890000	0.000000	0.000000	171.000000	40.000000	0.000000	0.000000
2.190000	126.990000	10.450000	0.000000	0.000000	170.000000	39.000000	0.000000	-44.000000
2.200000	126.990000	10.130000	0.000000	0.000000	170.000000	39.000000	0.000000	-32.000000
2.210000	126.990000	9.870000	0.000000	0.000000	170.000000	39.000000	0.000000	-26.000000
