t	x	y	pressure	penup	azimuth	inclination	v_x	v_y
0.000000	14.570000	9.140000	58.000000	1.000000	180.000000	54.000000	0.000000	0.000000
0.010000	14.370000	8.870000	213.000000	0.000000	179.000000	55.000000	-20.000000	-27.000000
0.020000	14.290000	8.760000	287.000000	0.000000	179.000000	55.000000	-8.000000	-11.000000
0.030000	14.290000	8.760000	371.000000	0.000000	177.000000	55.000000	0.000000	0.000000
0.040000	14.290000	8.810000	439.000000	0.000000	177.000000	55.000000	0.000000	5.000000
0.050000	14.390000	8.910000	521.000000	0.000000	176.000000	55.000000	10.000000	10.000000
0.060000	14.610000	9.310000	594.000000	0.000000	177.000000	56.000000	22.000000	40.000000
0.070000	14.910000	9.910000	622.000000	0.000000	177.000000	56.000000	30.000000	60.000000
0.080000	15.250000	10.650000	642.000000	0.000000	177.000000	56.000000	34.000000	74.000000
0.090000	15.350000	11.720000	643.000000	0.000000	177.000000	56.000000	10.000000	107.000000
0.100000	15.280000	13.040000	646.000000	0.000000	177.000000	56.000000	-7.000000	132.000000
0.110000	14.880000	14.540000	699.000000	0.000000	177.000000	56.000000	-40.000000	150.000000
0.120000	14.300000	15.660000	733.000000	0.000000	177.000000	56.000000	-58.000000	112.000000
0.130000	13.600000	16.470000	757.000000	0.000000	175.000000	57.000000	-70.000000	81.000000
0.140000	12.970000	17.070000	785.000000	0.000000	174.000000	57.000000	-63.000000	60.000000
0.150000	12.380000	17.340000	796.000000	0.000000	172.000000	58.000000	-59.000000	27.000000
0.160000	11.870000	17.290000	784.000000	0.000000	168.000000	58.000000	-51.000000	-5.000000
0.170000	11.590000	17.020000	796.000000	0.000000	167.000000	58.000000	-28.000000	-27.000000
0.180000	11.460000	16.740000	780.000000	0.000000	165.000000	58.000000	-13.000000	-28.000000
0.190000	11.630000	16.290000	753.000000	0.000000	164.000000	58.000000	17.000000	-45.000000
0.200000	12.100000	15.740000	752.000000	0.000000	163.000000	57.000000	47.000000	-55.000000
0.210000	12.770000	15.180000	737.000000	0.000000	163.000000	57.000000	67.000000	-56.000000
0.220000	13.680000	14.610000	728.000000	0.000000	163.000000	56.000000	91.000000	-57.000000
0.230000	14.690000	14.010000	727.000000	0.000000	165.000000	55.000000	101.000000	-60.000000
0.240000	15.760000	13.420000	722.000000	0.000000	166.000000	54.000000	107.000000	-59.000000
0.250000	16.790000	12.830000	722.000000	0.000000	166.000000	53.000000	103.000000	-59.000000
0.260000	17.620000	12.210000	716.000000	0.000000	164.000000	54.000000	83.000000	-62.000000
0.270000	18.310000	11.600000	691.000000	0.000000	163.000000	54.000000	69.000000	-61.000000
0.280000	18.640000	11.050000	682.000000	0.000000	159.000000	55.000000	33.000000	-55.000000
0.290000	18.640000	10.620000	673.000000	0.000000	157.000000	56.000000	0.000000	-43.000000
0.300000	18.520000	10.230000	661.000000	0.000000	154.000000	55.000000	-12.000000	-39.000000
0.310000	18.010000	9.880000	649.000000	0.000000	150.000000	55.000000	-51.000000	-35.000000
0.320000	17.140000	9.560000	653.000000	0.000000	150.000000	55.000000	-87.000000	-32.000000
0.330000	16.040000	9.270000	681.000000	0.000000	150.000000	55.000000	-110.000000	-29.000000
0.340000	15.050000	9.270000	690.000000	0.000000	153.000000	55.000000	-99.000000	0.000000
0.350000	14.260000	9.380000	708.000000	0.000000	157.000000	56.000000	-79.000000	11.000000
0.360000	13.590000	9.630000	753.000000	0.000000	162.000000	56.000000	-67.000000	25.000000
0.370000	13.210000	9.910000	780.000000	0.000000	165.000000	56.000000	-38.000000	28.000000
0.380000	13.210000	10.310000	794.000000	0.000000	169.000000	57.000000	0.000000	40.000000
0.390000	13.390000	10.790000	787.000000	0.000000	173.000000	56.000000	18.000000	48.000000
0.400000	14.090000	11.510000	803.000000	0.000000	176.000000	56.000000	70.000000	72.000000
0.410000	15.230000	12.440000	818.000000	0.000000	177.000000	56.000000	114.000000	93.000000
0.420000	16.670000	13.510000	833.000000	0.000000	176.000000	56.000000	144.000000	107.000000
0.430000	18.340000	14.480000	845.000000	0.000000	173.000000	56.000000	167.000000	97.000000
0.440000	20.030000	15.440000	852.000000	0.000000	168.000000	56.000000	169.000000	96.000000
0.450000	21.820000	16.500000	842.000000	0.000000	163.000000	56.000000	179.000000	106.000000
0.460000	23.660000	17.640000	817.000000	0.000000	160.000000	56.000000	184.000000	114.000000
0.470000	25.120000	18.500000	794.000000	0.000000	155.000000	58.000000	146.000000	86.000000
0.480000	26.240000	19.140000	705.000000	0.000000	151.000000	58.000000	112.000000	64.000000
0.490000	27.130000	19.630000	550.000000	0.000000	147.000000	58.000000	89.000000	49.000000
0.500000	27.550000	19.890000	217.000000	0.000000	144.000000	58.000000	42.000000	26.000000
0.510000	27.550000	19.890000	0.000000	1.000000	143.000000	59.000000	0.000000	0.000000
0.520000	27.120000	19.870000	0.000000	0.000000	141.000000	60.000000	-43.000000	-2.000000
0.530000	26.300000	19.610000	0.000000	0.000000	138.000000	60.000000	-82.000000	-26.000000
0.540000	25.230000	19.150000	0.000000	0.000000	138.000000	60.000000	-107.000000	-46.000000
0.550000	24.000000	18.570000	0.000000	0.000000	138.000000	60.000000	-123.000000	-58.000000
0.560000	22.800000	17.840000	0.000000	0.000000	138.000000	60.000000	-120.000000	-73.000000
0.570000	21.610000	17.000000	0.000000	0.000000	138.000000	60.000000	-119.000000	-84.000000
0.580000	20.610000	16.100000	0.000000	0.000000	138.000000	59.000000	-100.000000	-90.000000
0.590000	19.730000	15.320000	0.000000	0.000000	142.000000	58.000000	-88.000000	-78.000000
0.600000	19.180000	14.650000	0.000000	0.000000	144.000000	57.000000	-55.000000	-67.000000
0.610000	18.850000	14.060000	0.000000	0.000000	146.000000	55.000000	-33.000000	-59.000000
0.620000	18.670000	13.620000	0.000000	0.000000	149.000000	55.000000	-18.000000	-44.000000
0.630000	18.670000	13.320000	0.000000	0.000000	151.000000	53.000000	0.000000	-30.000000
0.640000	18.670000	13.320000	0.000000	0.000000	152.000000	53.000000	0.000000	0.000000
0.650000	18.770000	12.890000	0.000000	0.000000	154.000000	52.000000	10.000000	-43.000000
0.660000	18.860000	12.830000	0.000000	0.000000	154.000000	52.000000	9.000000	-6.000000
0.670000	18.990000	12.890000	0.000000	0.000000	155.000000	52.000000	13.000000	6.000000
0.680000	19.180000	13.030000	0.000000	0.000000	154.000000	53.000000	19.000000	14.000000
0.690000	19.380000	13.170000	0.000000	0.000000	154.000000	53.000000	20.000000	14.000000
0.700000	19.610000	13.330000	0.000000	0.000000	153.000000	54.000000	23.000000	16.000000
0.710000	19.830000	13.500000	0.000000	0.000000	153.000000	54.000000	22.000000	17.000000
0.720000	20.020000	13.710000	0.000000	0.000000	153.000000	54.000000	19.000000	21.000000
0.730000	20.020000	13.710000	115.000000	1.000000	153.000000	54.000000	0.000000	0.000000
0.740000	20.410000	14.310000	161.000000	0.000000	153.000000	54.000000	39.000000	60.000000
0.750000	20.570000	14.740000	246.000000	0.000000	153.000000	54.000000	16.000000	43.000000
0.760000	20.710000	15.200000	317.000000	0.000000	152.000000	54.000000	14.000000	46.000000
0.770000	20.760000	15.680000	474.000000	0.000000	152.000000	54.000000	5.000000	48.000000
0.780000	20.760000	16.060000	518.000000	0.000000	152.000000	54.000000	0.000000	38.000000
0.790000	20.460000	16.410000	570.000000	0.000000	152.000000	54.000000	-30.000000	35.000000
0.800000	20.100000	16.570000	620.000000	0.000000	153.000000	53.000000	-36.000000	16.000000
0.810000	19.680000	16.570000	656.000000	0.000000	154.000000	52.000000	-42.000000	0.000000
0.820000	19.230000	16.370000	682.000000	0.000000	153.000000	52.000000	-45.000000	-20.000000
0.830000	18.700000	15.850000	676.000000	0.000000	153.000000	52.000000	-53.000000	-52.000000
0.840000	18.110000	15.140000	702.000000	0.000000	153.000000	51.000000	-59.000000	-71.000000
0.850000	17.520000	14.190000	700.000000	0.000000	152.000000	51.000000	-59.000000	-95.000000
0.860000	16.970000	13.200000	724.000000	0.000000	151.000000	51.000000	-55.000000	-99.000000
0.870000	16.670000	12.300000	717.000000	0.000000	150.000000	51.000000	-30.000000	-90.000000
0.880000	16.520000	11.470000	714.000000	0.000000	149.000000	51.000000	-15.000000	-83.000000
0.890000	16.660000	10.970000	691.000000	0.000000	148.000000	51.000000	14.000000	-50.000000
0.900000	16.950000	10.660000	685.000000	0.000000	146.000000	52.000000	29.000000	-31.000000
0.910000	17.330000	10.480000	676.000000	0.000000	145.000000	53.000000	38.000000	-18.000000
0.920000	17.740000	10.400000	662.000000	0.000000	145.000000	53.000000	41.000000	-8.000000
0.930000	18.130000	10.400000	619.000000	0.000000	143.000000	53.000000	39.000000	0.000000
0.940000	18.460000	10.520000	578.000000	0.000000	143.000000	53.000000	33.000000	12.000000
0.950000	18.750000	10.690000	521.000000	0.000000	145.000000	54.000000	29.000000	17.000000
0.960000	19.020000	10.940000	481.000000	0.000000	146.000000	54.000000	27.000000	25.000000
0.970000	19.290000	11.240000	466.000000	0.000000	146.000000	54.000000	27.000000	30.000000
0.980000	19.510000	11.660000	466.000000	0.000000	147.000000	55.000000	22.000000	42.000000
0.990000	19.690000	12.120000	473.000000	0.000000	147.000000	55.000000	18.000000	46.000000
1.000000	19.750000	12.620000	509.000000	0.000000	149.000000	55.000000	6.000000	50.000000
1.010000	19.750000	12.890000	548.000000	0.000000	149.000000	55.000000	0.000000	27.000000
1.020000	19.590000	13.130000	611.000000	0.000000	149.000000	55.000000	-16.000000	24.000000
1.030000	19.430000	13.220000	658.000000	0.000000	149.000000	55.000000	-16.000000	9.000000
1.040000	19.230000	13.220000	664.000000	0.000000	149.000000	55.000000	-20.000000	0.000000
1.050000	19.010000	13.040000	685.000000	0.000000	149.000000	55.000000	-22.000000	-18.000000
1.060000	18.800000	12.650000	691.000000	0.000000	149.000000	55.000000	-21.000000	-39.000000
1.070000	18.620000	12.110000	702.000000	0.000000	149.000000	55.000000	-18.000000	-54.000000
1.080000	18.500000	11.620000	702.000000	0.000000	149.000000	55.000000	-12.000000	-49.000000
1.090000	18.500000	11.280000	678.000000	0.000000	147.000000	55.000000	0.000000	-34.000000
1.100000	18.650000	11.050000	672.000000	0.000000	147.000000	55.000000	15.000000	-23.000000
1.110000	18.930000	11.050000	672.000000	0.000000	146.000000	55.000000	28.000000	0.000000
1.120000	19.230000	11.180000	673.000000	0.000000	146.000000	55.000000	30.000000	13.000000
1.130000	19.580000	11.470000	679.000000	0.000000	146.000000	55.000000	35.000000	29.000000
1.140000	19.770000	11.660000	682.000000	0.000000	148.000000	56.000000	19.000000	19.000000
1.150000	19.870000	11.660000	691.000000	0.000000	148.000000	56.000000	10.000000	0.000000
1.160000	19.950000	11.540000	694.000000	0.000000	148.000000	56.000000	8.000000	-12.000000
1.170000	19.950000	11.270000	676.000000	0.000000	148.000000	56.000000	0.000000	-27.000000
1.180000	19.950000	11.040000	608.000000	0.000000	148.000000	56.000000	0.000000	-23.000000
1.190000	20.040000	10.850000	415.000000	0.000000	148.000000	56.000000	9.000000	-19.000000
1.200000	20.150000	10.740000	96.000000	0.000000	148.000000	56.000000	11.000000	-11.000000
1.210000	20.150000	10.740000	0.000000	1.000000	149.000000	56.000000	0.000000	0.000000
1.220000	20.330000	10.850000	0.000000	0.000000	149.000000	56.000000	18.000000	11.000000
1.230000	20.330000	11.000000	0.000000	0.000000	149.000000	56.000000	0.000000	15.000000
1.240000	20.250000	11.190000	0.000000	0.000000	149.000000	56.000000	-8.000000	19.000000
1.250000	20.250000	11.400000	0.000000	0.000000	149.000000	56.000000	0.000000	21.000000
1.260000	20.250000	11.730000	0.000000	0.000000	149.000000	56.000000	0.000000	33.000000
1.270000	20.340000	12.180000	0.000000	0.000000	150.000000	55.000000	9.000000	45.000000
1.280000	20.440000	12.710000	0.000000	0.000000	150.000000	55.000000	10.000000	53.000000
1.290000	20.520000	13.420000	0.000000	0.000000	151.000000	54.000000	8.000000	71.000000
1.300000	20.590000	14.130000	0.000000	0.000000	151.000000	54.000000	7.000000	71.000000
1.310000	20.670000	14.830000	0.000000	0.000000	152.000000	54.000000	8.000000	70.000000
1.320000	20.780000	15.250000	0.000000	0.000000	152.000000	53.000000	11.000000	42.000000
1.330000	20.780000	15.250000	136.000000	1.000000	152.000000	53.000000	0.000000	0.000000
1.340000	20.780000	15.250000	311.000000	0.000000	152.000000	53.000000	0.000000	0.000000
1.350000	20.780000	15.250000	363.000000	0.000000	153.000000	52.000000	0.000000	0.000000
1.360000	20.570000	15.000000	423.000000	0.000000	153.000000	52.000000	-21.000000	-25.000000
1.370000	20.460000	14.550000	488.000000	0.000000	150.000000	52.000000	-11.000000	-45.000000
1.380000	20.370000	14.040000	519.000000	0.000000	150.000000	52.000000	-9.000000	-51.000000
1.390000	20.370000	13.560000	530.000000	0.000000	151.000000	53.000000	0.000000	-48.000000
1.400000	20.610000	13.090000	538.000000	0.000000	150.000000	54.000000	24.000000	-47.000000
1.410000	20.910000	12.790000	532.000000	0.000000	150.000000	54.000000	30.000000	-30.000000
1.420000	21.340000	12.630000	533.000000	0.000000	149.000000	55.000000	43.000000	-16.000000
1.430000	21.670000	12.450000	540.000000	0.000000	148.000000	56.000000	33.000000	-18.000000
1.440000	21.930000	12.240000	556.000000	0.000000	149.000000	56.000000	26.000000	-21.000000
1.450000	22.100000	11.960000	572.000000	0.000000	148.000000	57.000000	17.000000	-28.000000
1.460000	22.100000	11.650000	610.000000	0.000000	148.000000	57.000000	0.000000	-31.000000
1.470000	21.990000	11.340000	668.000000	0.000000	148.000000	57.000000	-11.000000	-31.000000
1.480000	21.760000	11.080000	700.000000	0.000000	150.000000	57.000000	-23.000000	-26.000000
1.490000	21.530000	10.950000	724.000000	0.000000	150.000000	57.000000	-23.000000	-13.000000
1.500000	21.300000	10.950000	728.000000	0.000000	150.000000	57.000000	-23.000000	0.000000
1.510000	21.100000	11.030000	708.000000	0.000000	150.000000	57.000000	-20.000000	8.000000
1.520000	20.920000	11.240000	673.000000	0.000000	150.000000	57.000000	-18.000000	21.000000
1.530000	20.790000	11.510000	638.000000	0.000000	150.000000	57.000000	-13.000000	27.000000
1.540000	20.720000	12.000000	586.000000	0.000000	150.000000	57.000000	-7.000000	49.000000
1.550000	20.720000	12.440000	591.000000	0.000000	150.000000	57.000000	0.000000	44.000000
1.560000	20.720000	12.800000	591.000000	0.000000	150.000000	57.000000	0.000000	36.000000
1.570000	20.890000	12.970000	580.000000	0.000000	148.000000	57.000000	17.000000	17.000000
1.580000	21.020000	13.040000	577.000000	0.000000	148.000000	57.000000	13.000000	7.000000
1.590000	21.260000	13.040000	560.000000	0.000000	148.000000	57.000000	24.000000	0.000000
1.600000	21.580000	13.110000	537.000000	0.000000	149.000000	56.000000	32.000000	7.000000
1.610000	21.920000	13.110000	447.000000	0.000000	149.000000	56.000000	34.000000	0.000000
1.620000	22.270000	13.220000	387.000000	0.000000	149.000000	56.000000	35.000000	11.000000
1.630000	22.560000	13.300000	354.000000	0.000000	149.000000	56.000000	29.000000	8.000000
1.640000	22.820000	13.390000	344.000000	0.000000	150.000000	57.000000	26.000000	9.000000
1.650000	23.010000	13.490000	333.000000	0.000000	150.000000	57.000000	19.000000	10.000000
1.660000	23.080000	13.600000	351.000000	0.000000	150.000000	57.000000	7.000000	11.000000
1.670000	23.080000	13.750000	379.000000	0.000000	150.000000	57.000000	0.000000	15.000000
1.680000	23.080000	13.960000	414.000000	0.000000	150.000000	57.000000	0.000000	21.000000
1.690000	22.970000	14.220000	507.000000	0.000000	150.000000	57.000000	-11.000000	26.000000
1.700000	22.820000	14.350000	565.000000	0.000000	151.000000	56.000000	-15.000000	13.000000
1.710000	22.680000	14.450000	602.000000	0.000000	151.000000	56.000000	-14.000000	10.000000
1.720000	22.540000	14.450000	628.000000	0.000000	151.000000	56.000000	-14.000000	0.000000
1.730000	22.410000	14.450000	643.000000	0.000000	151.000000	56.000000	-13.000000	0.000000
1.740000	22.310000	14.270000	666.000000	0.000000	151.000000	56.000000	-10.000000	-18.000000
1.750000	22.220000	13.940000	682.000000	0.000000	151.000000	56.000000	-9.000000	-33.000000
1.760000	22.220000	13.480000	696.000000	0.000000	151.000000	56.000000	0.000000	-46.000000
1.770000	22.220000	13.020000	691.000000	0.000000	151.000000	56.000000	0.000000	-46.000000
1.780000	22.320000	12.580000	668.000000	0.000000	151.000000	56.000000	10.000000	-44.000000
1.790000	22.480000	12.210000	599.000000	0.000000	150.000000	57.000000	16.000000	-37.000000
1.800000	22.680000	11.890000	445.000000	0.000000	150.000000	57.000000	20.000000	-32.000000
1.810000	22.890000	11.620000	191.000000	0.000000	150.000000	57.000000	21.000000	-27.000000
1.820000	22.890000	11.620000	0.000000	1.000000	150.000000	57.000000	0.000000	0.000000
1.830000	23.170000	11.420000	0.000000	0.000000	150.000000	57.000000	28.000000	-20.000000
1.840000	23.170000	11.590000	0.000000	0.000000	150.000000	57.000000	0.000000	17.000000
1.850000	23.170000	11.970000	0.000000	0.000000	150.000000	57.000000	0.000000	38.000000
1.860000	23.170000	12.500000	0.000000	0.000000	150.000000	57.000000	0.000000	53.000000
1.870000	23.170000	13.020000	0.000000	0.000000	150.000000	57.000000	0.000000	52.000000
1.880000	23.170000	13.500000	0.000000	0.000000	151.000000	56.000000	0.000000	48.000000
1.890000	23.280000	13.870000	0.000000	0.000000	149.000000	56.000000	11.000000	37.000000
1.900000	23.370000	14.130000	0.000000	0.000000	150.000000	55.000000	9.000000	26.000000
1.910000	23.470000	14.290000	0.000000	0.000000	150.000000	55.000000	10.000000	16.000000
1.920000	23.470000	14.290000	200.000000	1.000000	149.000000	55.000000	0.000000	0.000000
1.930000	23.470000	14.290000	281.000000	0.000000	150.000000	54.000000	0.000000	0.000000
1.940000	23.780000	14.350000	361.000000	0.000000	151.000000	54.000000	31.000000	6.000000
1.950000	23.780000	14.350000	425.000000	0.000000	150.000000	55.000000	0.000000	0.000000
1.960000	23.780000	14.350000	483.000000	0.000000	150.000000	55.000000	0.000000	0.000000
1.970000	24.060000	14.070000	510.000000	0.000000	152.000000	56.000000	28.000000	-28.000000
1.980000	24.190000	13.810000	512.000000	0.000000	151.000000	56.000000	13.000000	-26.000000
1.990000	24.270000	13.480000	489.000000	0.000000	152.000000	57.000000	8.000000	-33.000000
2.000000	24.320000	13.070000	455.000000	0.000000	151.000000	58.000000	5.000000	-41.000000
2.010000	24.320000	12.570000	361.000000	0.000000	151.000000	58.000000	0.000000	-50.000000
2.020000	24.320000	12.120000	210.000000	0.000000	150.000000	58.000000	0.000000	-45.000000
2.030000	24.220000	11.730000	1.000000	1.000000	150.000000	58.000000	0.000000	0.000000
2.040000	24.220000	11.730000	0.000000	0.000000	150.000000	58.000000	0.000000	0.000000
2.050000	23.950000	11.520000	0.000000	0.000000	150.000000	58.000000	-27.000000	-21.000000
2.060000	23.770000	11.620000	0.000000	0.000000	150.000000	58.000000	-18.000000	10.000000
2.070000	23.610000	11.900000	0.000000	0.000000	150.000000	58.000000	-16.000000	28.000000
2.080000	23.500000	12.240000	0.000000	0.000000	149.000000	58.000000	-11.000000	34.000000
2.090000	23.450000	12.620000	0.000000	0.000000	149.000000	58.000000	-5.000000	38.000000
2.100000	23.450000	12.870000	0.000000	0.000000	149.000000	58.000000	0.000000	25.000000
2.110000	23.450000	12.920000	0.000000	0.000000	150.000000	57.000000	0.000000	5.000000
2.120000	23.450000	12.920000	226.000000	1.000000	148.000000	57.000000	0.000000	0.000000
2.130000	23.450000	12.920000	259.000000	0.000000	148.000000	57.000000	0.000000	0.000000
2.140000	23.710000	12.790000	281.000000	0.000000	148.000000	57.000000	26.000000	-13.000000
2.150000	23.800000	12.840000	301.000000	0.000000	150.000000	57.000000	9.000000	5.000000
2.160000	23.970000	12.950000	304.000000	0.000000	150.000000	57.000000	17.000000	11.000000
2.170000	24.170000	13.130000	307.000000	0.000000	149.000000	58.000000	20.000000	18.000000
2.180000	24.420000	13.340000	225.000000	0.000000	150.000000	58.000000	25.000000	21.000000
2.190000	24.630000	13.560000	132.000000	0.000000	150.000000	58.000000	21.000000	22.000000
2.200000	24.810000	13.730000	12.000000	1.000000	150.000000	58.000000	0.000000	0.000000
2.210000	24.810000	13.730000	0.000000	0.000000	150.000000	58.000000	0.000000	0.000000
