t	x	y	pressure	penup	azimuth	inclination	v_x	v_y
0.000000	102.120000	68.000000	158.000000	1.000000	159.000000	55.000000	0.000000	0.000000
0.010000	102.120000	68.000000	196.000000	0.000000	159.000000	55.000000	0.000000	0.000000
0.020000	102.120000	68.000000	215.000000	0.000000	159.000000	55.000000	0.000000	0.000000
0.030000	102.120000	68.000000	242.000000	0.000000	159.000000	55.000000	0.000000	0.000000
0.040000	102.120000	68.000000	315.000000	0.000000	159.000000	55.000000	0.000000	0.000000
0.050000	102.120000	68.000000	377.000000	0.000000	159.000000	55.000000	0.000000	0.000000
0.060000	102.530000	67.750000	423.000000	0.000000	159.000000	55.000000	41.000000	-25.000000
0.070000	103.290000	67.640000	474.000000	0.000000	159.000000	55.000000	76.000000	-11.000000
0.080000	104.340000	67.540000	505.000000	0.000000	160.000000	55.000000	105.000000	-10.000000
0.090000	105.770000	67.480000	533.000000	0.000000	160.000000	55.000000	143.000000	-6.000000
0.100000	107.250000	67.480000	542.000000	0.000000	160.000000	55.000000	148.000000	0.000000
0.110000	108.940000	67.480000	556.000000	0.000000	162.000000	56.000000	169.000000	0.000000
0.120000	110.750000	67.610000	564.000000	0.000000	162.000000	56.000000	181.000000	13.000000
0.130000	112.280000	67.790000	574.000000	0.000000	163.000000	57.000000	153.000000	18.000000
0.140000	113.510000	68.130000	580.000000	0.000000	163.000000	57.000000	123.000000	34.000000
0.150000	114.530000	68.470000	572.000000	0.000000	164.000000	57.000000	102.000000	34.000000
0.160000	115.060000	68.820000	580.000000	0.000000	164.000000	57.000000	53.000000	35.000000
0.170000	115.180000	69.180000	584.000000	0.000000	164.000000	57.000000	12.000000	36.000000
0.180000	115.030000	69.560000	588.000000	0.000000	165.000000	56.000000	-15.000000	38.000000
0.190000	114.640000	69.890000	577.000000	0.000000	165.000000	56.000000	-39.000000	33.000000
0.200000	113.970000	70.140000	564.000000	0.000000	165.000000	56.000000	-67.000000	25.000000
0.210000	113.110000	70.330000	542.000000	0.000000	165.000000	55.000000	-86.000000	19.000000
0.220000	111.920000	70.490000	545.000000	0.000000	165.000000	55.000000	-119.000000	16.000000
0.230000	110.510000	70.610000	544.000000	0.000000	165.000000	55.000000	-141.000000	12.000000
0.240000	108.950000	70.610000	546.000000	0.000000	166.000000	54.000000	-156.000000	0.000000
0.250000	107.350000	70.520000	537.000000	0.000000	166.000000	54.000000	-160.000000	-9.000000
0.260000	105.790000	70.300000	556.000000	0.000000	166.000000	54.000000	-156.000000	-22.000000
0.270000	104.620000	70.060000	562.000000	0.000000	166.000000	53.000000	-117.000000	-24.000000
0.280000	103.690000	69.770000	561.000000	0.000000	166.000000	53.000000	-93.000000	-29.000000
0.290000	103.340000	69.450000	561.000000	0.000000	166.000000	53.000000	-35.000000	-32.000000
0.300000	103.290000	68.980000	564.000000	0.000000	165.000000	53.000000	-5.000000	-47.000000
0.310000	103.450000	68.430000	570.000000	0.000000	165.000000	53.000000	16.000000	-55.000000
0.320000	103.910000	67.790000	564.000000	0.000000	165.000000	53.000000	46.000000	-64.000000
0.330000	104.600000	67.130000	563.000000	0.000000	164.000000	54.000000	69.000000	-66.000000
0.340000	105.450000	66.420000	570.000000	0.000000	164.000000	54.000000	85.000000	-71.000000
0.350000	106.110000	65.760000	561.000000	0.000000	165.000000	55.000000	66.000000	-66.000000
0.360000	106.550000	65.120000	570.000000	0.000000	165.000000	55.000000	44.000000	-64.000000
0.370000	106.850000	64.590000	565.000000	0.000000	165.000000	56.000000	30.000000	-53.000000
0.380000	106.850000	64.060000	559.000000	0.000000	165.000000	56.000000	0.000000	-53.000000
0.390000	106.570000	63.530000	565.000000	0.000000	166.000000	56.000000	-28.000000	-53.000000
0.400000	106.050000	63.050000	562.000000	0.000000	166.000000	56.000000	-52.000000	-48.000000
0.410000	105.050000	62.590000	553.000000	0.000000	166.000000	56.000000	-100.000000	-46.000000
0.420000	103.540000	62.220000	562.000000	0.000000	166.000000	56.000000	-151.000000	-37.000000
0.430000	101.680000	61.980000	564.000000	0.000000	167.000000	55.000000	-186.000000	-24.000000
0.440000	99.310000	61.830000	565.000000	0.000000	167.000000	55.000000	-237.000000	-15.000000
0.450000	96.660000	61.830000	570.000000	0.000000	167.000000	55.000000	-265.000000	0.000000
0.460000	93.820000	61.920000	567.000000	0.000000	167.000000	54.000000	-284.000000	9.000000
0.470000	91.240000	62.090000	572.000000	0.000000	166.000000	54.000000	-258.000000	17.000000
0.480000	88.930000	62.380000	605.000000	0.000000	166.000000	54.000000	-231.000000	29.000000
0.490000	86.790000	62.700000	624.000000	0.000000	166.000000	53.000000	-214.000000	32.000000
0.500000	85.270000	63.040000	665.000000	0.000000	165.000000	53.000000	-152.000000	34.000000
0.510000	84.390000	63.380000	678.000000	0.000000	166.000000	53.000000	-88.000000	34.000000
0.520000	83.930000	63.690000	694.000000	0.000000	166.000000	53.000000	-46.000000	31.000000
0.530000	83.930000	63.960000	685.000000	0.000000	167.000000	52.000000	0.000000	27.000000
0.540000	84.570000	64.260000	696.000000	0.000000	167.000000	52.000000	64.000000	30.000000
0.550000	85.680000	64.620000	710.000000	0.000000	167.000000	52.000000	111.000000	36.000000
0.560000	87.690000	65.000000	727.000000	0.000000	168.000000	53.000000	201.000000	38.000000
0.570000	90.710000	65.270000	736.000000	0.000000	168.000000	53.000000	302.000000	27.000000
0.580000	94.400000	65.270000	748.000000	0.000000	168.000000	53.000000	369.000000	0.000000
0.590000	98.760000	65.170000	751.000000	0.000000	167.000000	54.000000	436.000000	-10.000000
0.600000	103.640000	64.880000	757.000000	0.000000	167.000000	54.000000	488.000000	-29.000000
0.610000	108.860000	64.400000	758.000000	0.000000	167.000000	55.000000	522.000000	-48.000000
0.620000	114.140000	63.790000	703.000000	0.000000	167.000000	55.000000	528.000000	-61.000000
0.630000	118.950000	63.170000	574.000000	0.000000	168.000000	56.000000	481.000000	-62.000000
0.640000	123.450000	62.580000	60.000000	0.000000	168.000000	56.000000	450.000000	-59.000000
0.650000	126.990000	62.090000	15.000000	0.000000	167.000000	57.000000	354.000000	-49.000000
0.660000	126.990000	61.650000	15.000000	0.000000	169.000000	58.000000	0.000000	-44.000000
0.670000	126.990000	61.570000	15.000000	0.000000	169.000000	58.000000	0.000000	-8.000000
0.680000	126.990000	61.680000	15.000000	0.000000	169.000000	58.000000	0.000000	11.000000
0.690000	126.990000	61.920000	15.000000	0.000000	169.000000	58.000000	0.000000	24.000000
0.700000	126.990000	61.920000	0.000000	1.000000	169.000000	58.000000	0.000000	0.000000
0.710000	126.990000	62.610000	0.000000	0.000000	168.000000	58.000000	0.000000	69.000000
0.720000	126.990000	63.090000	0.000000	0.000000	167.000000	58.000000	0.000000	48.000000
0.730000	125.440000	63.620000	0.000000	0.000000	165.000000	58.000000	-155.000000	53.000000
0.740000	122.850000	64.210000	0.000000	0.000000	163.000000	57.000000	-259.000000	59.000000
0.750000	120.190000	64.850000	0.000000	0.000000	160.000000	56.000000	-266.000000	64.000000
0.760000	117.640000	64.920000	0.000000	0.000000	156.000000	55.000000	-255.000000	7.000000
0.770000	115.160000	65.300000	0.000000	0.000000	154.000000	52.000000	-248.000000	38.000000
0.780000	112.010000	65.880000	0.000000	0.000000	153.000000	50.000000	-315.000000	58.000000
0.790000	108.890000	66.130000	0.000000	0.000000	153.000000	48.000000	-312.000000	25.000000
0.800000	106.450000	66.320000	0.000000	0.000000	155.000000	45.000000	-244.000000	19.000000
0.810000	104.460000	66.410000	0.000000	0.000000	156.000000	43.000000	-199.000000	9.000000
0.820000	102.190000	66.630000	0.000000	0.000000	157.000000	43.000000	-227.000000	22.000000
0.830000	100.420000	66.950000	0.000000	0.000000	158.000000	41.000000	-177.000000	32.000000
0.840000	98.970000	67.010000	0.000000	0.000000	157.000000	41.000000	-145.000000	6.000000
0.850000	97.710000	67.010000	0.000000	0.000000	157.000000	41.000000	-126.000000	0.000000
0.860000	96.680000	67.010000	0.000000	0.000000	157.000000	41.000000	-103.000000	0.000000
0.870000	95.810000	67.380000	0.000000	0.000000	157.000000	42.000000	-87.000000	37.000000
0.880000	95.460000	67.570000	0.000000	0.000000	156.000000	42.000000	-35.000000	19.000000
0.890000	95.460000	67.640000	0.000000	0.000000	154.000000	44.000000	0.000000	7.000000
0.900000	95.630000	67.730000	0.000000	0.000000	155.000000	45.000000	17.000000	9.000000
0.910000	95.770000	67.790000	0.000000	0.000000	155.000000	47.000000	14.000000	6.000000
0.920000	95.860000	67.790000	0.000000	0.000000	156.000000	48.000000	9.000000	0.000000
0.930000	95.860000	67.740000	0.000000	0.000000	157.000000	50.000000	0.000000	-5.000000
0.940000	95.860000	67.740000	0.000000	0.000000	158.000000	51.000000	0.000000	0.000000
0.950000	95.790000	67.740000	0.000000	0.000000	158.000000	52.000000	-7.000000	0.000000
0.960000	95.670000	67.630000	0.000000	0.000000	158.000000	52.000000	-12.000000	-11.000000
0.970000	95.510000	67.580000	0.000000	0.000000	158.000000	53.000000	-16.000000	-5.000000
0.980000	95.580000	67.580000	0.000000	0.000000	158.000000	53.000000	7.000000	0.000000
0.990000	95.380000	67.690000	0.000000	0.000000	156.000000	53.000000	-20.000000	11.000000
1.000000	95.000000	67.690000	0.000000	0.000000	156.000000	53.000000	-38.000000	0.000000
1.010000	94.770000	67.690000	0.000000	0.000000	156.000000	53.000000	-23.000000	0.000000
1.020000	94.480000	67.620000	0.000000	0.000000	156.000000	53.000000	-29.000000	-7.000000
1.030000	94.140000	67.530000	0.000000	0.000000	156.000000	53.000000	-34.000000	-9.000000
1.040000	93.790000	67.470000	0.000000	0.000000	156.000000	53.000000	-35.000000	-6.000000
1.050000	93.470000	67.470000	0.000000	0.000000	156.000000	53.000000	-32.000000	0.000000
1.060000	93.350000	67.470000	0.000000	0.000000	156.000000	53.000000	-12.000000	0.000000
1.070000	93.350000	67.470000	0.000000	0.000000	156.000000	53.000000	0.000000	0.000000
1.080000	93.350000	67.540000	0.000000	0.000000	156.000000	53.000000	0.000000	7.000000
1.090000	93.420000	67.540000	0.000000	0.000000	156.000000	53.000000	7.000000	0.000000
1.100000	93.420000	67.540000	0.000000	0.000000	156.000000	53.000000	0.000000	0.000000
1.110000	93.420000	67.540000	0.000000	0.000000	156.000000	53.000000	0.000000	0.000000
1.120000	93.300000	67.430000	0.000000	0.000000	155.000000	54.000000	-12.000000	-11.000000
1.130000	93.180000	67.300000	0.000000	0.000000	155.000000	54.000000	-12.000000	-13.000000
1.140000	93.080000	67.150000	0.000000	0.000000	155.000000	54.000000	-10.000000	-15.000000
1.150000	92.990000	67.060000	0.000000	0.000000	156.000000	55.000000	-9.000000	-9.000000
1.160000	92.990000	66.980000	0.000000	0.000000	155.000000	55.000000	0.000000	-8.000000
1.170000	93.080000	66.910000	0.000000	0.000000	155.000000	55.000000	9.000000	-7.000000
1.180000	93.080000	66.910000	180.000000	1.000000	155.000000	55.000000	0.000000	0.000000
1.190000	93.080000	66.910000	244.000000	0.000000	154.000000	56.000000	0.000000	0.000000
1.200000	93.350000	66.800000	343.000000	0.000000	154.000000	56.000000	27.000000	-11.000000
1.210000	93.500000	66.800000	422.000000	0.000000	153.000000	56.000000	15.000000	0.000000
1.220000	93.920000	66.970000	483.000000	0.000000	153.000000	56.000000	42.000000	17.000000
1.230000	94.580000	67.180000	520.000000	0.000000	153.000000	56.000000	66.000000	21.000000
1.240000	95.400000	67.520000	527.000000	0.000000	152.000000	56.000000	82.000000	34.000000
1.250000	96.360000	67.990000	532.000000	0.000000	152.000000	56.000000	96.000000	47.000000
1.260000	97.230000	68.560000	527.000000	0.000000	152.000000	56.000000	87.000000	57.000000
1.270000	98.050000	69.290000	518.000000	0.000000	153.000000	55.000000	82.000000	73.000000
1.280000	98.530000	70.170000	514.000000	0.000000	154.000000	55.000000	48.000000	88.000000
1.290000	98.800000	71.160000	512.000000	0.000000	156.000000	55.000000	27.000000	99.000000
1.300000	98.920000	71.930000	526.000000	0.000000	157.000000	54.000000	12.000000	77.000000
1.310000	98.830000	72.320000	537.000000	0.000000	159.000000	53.000000	-9.000000	39.000000
1.320000	98.680000	72.460000	533.000000	0.000000	159.000000	53.000000	-15.000000	14.000000
1.330000	98.480000	72.520000	533.000000	0.000000	161.000000	52.000000	-20.000000	6.000000
1.340000	98.270000	72.350000	530.000000	0.000000	161.000000	52.000000	-21.000000	-17.000000
1.350000	97.970000	72.020000	527.000000	0.000000	162.000000	52.000000	-30.000000	-33.000000
1.360000	97.600000	71.460000	526.000000	0.000000	162.000000	52.000000	-37.000000	-56.000000
1.370000	97.350000	70.720000	521.000000	0.000000	162.000000	52.000000	-25.000000	-74.000000
1.380000	97.110000	69.850000	521.000000	0.000000	162.000000	52.000000	-24.000000	-87.000000
1.390000	97.040000	68.970000	522.000000	0.000000	162.000000	52.000000	-7.000000	-88.000000
1.400000	97.040000	68.130000	519.000000	0.000000	162.000000	52.000000	0.000000	-84.000000
1.410000	97.260000	67.430000	509.000000	0.000000	161.000000	52.000000	22.000000	-70.000000
1.420000	97.450000	66.810000	499.000000	0.000000	160.000000	53.000000	19.000000	-62.000000
1.430000	97.590000	66.350000	475.000000	0.000000	158.000000	54.000000	14.000000	-46.000000
1.440000	97.690000	66.100000	447.000000	0.000000	158.000000	55.000000	10.000000	-25.000000
1.450000	97.640000	66.000000	443.000000	0.000000	158.000000	55.000000	-5.000000	-10.000000
1.460000	97.410000	65.950000	448.000000	0.000000	155.000000	55.000000	-23.000000	-5.000000
1.470000	97.050000	65.950000	418.000000	0.000000	155.000000	55.000000	-36.000000	0.000000
1.480000	96.350000	66.030000	423.000000	0.000000	154.000000	56.000000	-70.000000	8.000000
1.490000	95.280000	66.120000	418.000000	0.000000	154.000000	56.000000	-107.000000	9.000000
1.500000	93.970000	66.250000	450.000000	0.000000	154.000000	56.000000	-131.000000	13.000000
1.510000	92.610000	66.400000	491.000000	0.000000	154.000000	56.000000	-136.000000	15.000000
1.520000	91.610000	66.490000	543.000000	0.000000	154.000000	56.000000	-100.000000	9.000000
1.530000	90.860000	66.580000	602.000000	0.000000	154.000000	56.000000	-75.000000	9.000000
1.540000	90.590000	66.670000	638.000000	0.000000	154.000000	56.000000	-27.000000	9.000000
1.550000	90.660000	66.740000	637.000000	0.000000	154.000000	56.000000	7.000000	7.000000
1.560000	90.950000	66.910000	646.000000	0.000000	153.000000	56.000000	29.000000	17.000000
1.570000	91.790000	67.140000	655.000000	0.000000	153.000000	56.000000	84.000000	23.000000
1.580000	92.930000	67.520000	659.000000	0.000000	153.000000	56.000000	114.000000	38.000000
1.590000	94.260000	67.900000	655.000000	0.000000	154.000000	56.000000	133.000000	38.000000
1.600000	95.800000	68.280000	678.000000	0.000000	155.000000	55.000000	154.000000	38.000000
1.610000	97.250000	68.600000	678.000000	0.000000	155.000000	55.000000	145.000000	32.000000
1.620000	98.650000	68.880000	685.000000	0.000000	156.000000	55.000000	140.000000	28.000000
1.630000	100.210000	68.880000	691.000000	0.000000	156.000000	55.000000	156.000000	0.000000
1.640000	101.800000	68.630000	681.000000	0.000000	158.000000	55.000000	159.000000	-25.000000
1.650000	103.780000	68.240000	652.000000	0.000000	158.000000	54.000000	198.000000	-39.000000
1.660000	106.020000	67.800000	628.000000	0.000000	158.000000	55.000000	224.000000	-44.000000
1.670000	108.270000	67.340000	570.000000	0.000000	159.000000	55.000000	225.000000	-46.000000
1.680000	110.620000	66.870000	466.000000	0.000000	158.000000	56.000000	235.000000	-47.000000
1.690000	113.270000	66.480000	209.000000	0.000000	159.000000	57.000000	265.000000	-39.000000
1.700000	113.270000	66.480000	0.000000	1.000000	159.000000	57.000000	0.000000	0.000000
1.710000	118.770000	65.790000	0.000000	0.000000	160.000000	58.000000	550.000000	-69.000000
1.720000	121.970000	65.490000	0.000000	0.000000	161.000000	60.000000	320.000000	-30.000000
1.730000	125.520000	65.240000	0.000000	0.000000	164.000000	60.000000	355.000000	-25.000000
1.740000	126.990000	64.960000	0.000000	0.000000	165.000000	61.000000	147.000000	-28.000000
1.750000	126.990000	64.480000	0.000000	0.000000	167.000000	61.000000	0.000000	-48.000000
1.760000	126.990000	63.870000	0.000000	0.000000	167.000000	61.000000	0.000000	-61.000000
1.770000	126.990000	63.530000	0.000000	0.000000	167.000000	61.000000	0.000000	-34.000000
1.780000	126.990000	63.350000	0.000000	0.000000	167.000000	61.000000	0.000000	-18.000000
1.790000	126.990000	63.280000	0.000000	0.000000	167.000000	61.000000	0.000000	-7.000000
1.800000	126.990000	63.280000	0.000000	0.000000	167.000000	61.000000	0.000000	0.000000
1.810000	126.990000	63.280000	0.000000	0.000000	167.000000	61.000000	0.000000	0.000000
1.820000	126.990000	63.400000	0.000000	0.000000	167.000000	61.000000	0.000000	12.000000
1.830000	126.990000	63.610000	0.000000	0.000000	167.000000	61.000000	0.000000	21.000000
1.840000	126.990000	63.790000	0.000000	0.000000	167.000000	61.000000	0.000000	18.000000
1.850000	126.990000	64.070000	0.000000	0.000000	167.000000	61.000000	0.000000	28.000000
1.860000	126.990000	64.420000	0.000000	0.000000	167.000000	61.000000	0.000000	35.000000
1.870000	126.990000	64.820000	0.000000	0.000000	167.000000	61.000000	0.000000	40.000000
1.880000	126.990000	65.170000	0.000000	0.000000	166.000000	60.000000	0.000000	35.000000
1.890000	126.990000	65.480000	0.000000	0.000000	163.000000	59.000000	0.000000	31.000000
1.900000	125.590000	65.780000	0.000000	0.000000	160.000000	56.000000	-140.000000	30.000000
1.910000	123.240000	66.150000	0.000000	0.000000	157.000000	54.000000	-235.000000	37.000000
1.920000	121.000000	66.490000	0.000000	0.000000	155.000000	51.000000	-224.000000	34.000000
1.930000	119.060000	66.780000	0.000000	0.000000	154.000000	47.000000	-194.000000	29.000000
1.940000	117.320000	67.050000	0.000000	0.000000	154.000000	43.000000	-174.000000	27.000000
1.950000	115.930000	67.210000	0.000000	0.000000	154.000000	40.000000	-139.000000	16.000000
1.960000	114.560000	67.320000	0.000000	0.000000	154.000000	37.000000	-137.000000	11.000000
1.970000	113.210000	67.320000	0.000000	0.000000	154.000000	35.000000	-135.000000	0.000000
1.980000	112.040000	67.380000	0.000000	0.000000	155.000000	34.000000	-117.000000	6.000000
1.990000	111.160000	67.380000	0.000000	0.000000	155.000000	34.000000	-88.000000	0.000000
2.000000	110.460000	67.380000	0.000000	0.000000	156.000000	33.000000	-70.000000	0.000000
2.010000	109.960000	67.300000	0.000000	0.000000	156.000000	34.000000	-50.000000	-8.000000
2.020000	109.550000	67.300000	0.000000	0.000000	156.000000	35.000000	-41.000000	0.000000
2.030000	109.190000	67.390000	0.000000	0.000000	158.000000	36.000000	-36.000000	9.000000
2.040000	108.720000	67.390000	0.000000	0.000000	160.000000	38.000000	-47.000000	0.000000
2.050000	108.210000	67.210000	0.000000	0.000000	162.000000	40.000000	-51.000000	-18.000000
2.060000	107.670000	67.090000	0.000000	0.000000	165.000000	41.000000	-54.000000	-12.000000
2.070000	107.000000	66.940000	0.000000	0.000000	167.000000	42.000000	-67.000000	-15.000000
2.080000	106.190000	66.770000	0.000000	0.000000	168.000000	43.000000	-81.000000	-17.000000
2.090000	105.280000	66.600000	0.000000	0.000000	170.000000	45.000000	-91.000000	-17.000000
2.100000	103.960000	66.530000	0.000000	0.000000	170.000000	46.000000	-132.000000	-7.000000
2.110000	102.950000	66.530000	0.000000	0.000000	168.000000	46.000000	-101.000000	0.000000
2.120000	102.140000	66.530000	0.000000	0.000000	166.000000	47.000000	-81.000000	0.000000
2.130000	101.510000	66.590000	0.000000	0.000000	163.000000	48.000000	-63.000000	6.000000
2.140000	101.060000	66.590000	0.000000	0.000000	160.000000	48.000000	-45.000000	0.000000
2.150000	100.720000	66.650000	0.000000	0.000000	159.000000	48.000000	-34.000000	6.000000
2.160000	100.550000	66.650000	0.000000	0.000000	157.000000	49.000000	-17.000000	0.000000
2.170000	100.430000	66.540000	0.000000	0.000000	155.000000	49.000000	-12.000000	-11.000000
2.180000	100.360000	66.540000	0.000000	0.000000	155.000000	49.000000	-7.000000	0.000000
2.190000	100.310000	66.620000	0.000000	0.000000	155.000000	50.000000	-5.000000	8.000000
2.200000	100.310000	66.820000	0.000000	0.000000	155.000000	51.000000	0.000000	20.000000
