t	x	y	pressure	penup	azimuth	inclination	v_x	v_y
0.000000	54.450000	65.640000	209.000000	1.000000	127.000000	59.000000	0.000000	0.000000
0.010000	54.130000	65.290000	346.000000	0.000000	127.000000	59.000000	-32.000000	-35.000000
0.020000	54.130000	65.230000	373.000000	0.000000	125.000000	59.000000	0.000000	-6.000000
0.030000	54.130000	65.230000	425.000000	0.000000	125.000000	59.000000	0.000000	0.000000
0.040000	54.290000	65.300000	469.000000	0.000000	124.000000	60.000000	16.000000	7.000000
0.050000	54.560000	65.590000	496.000000	0.000000	124.000000	60.000000	27.000000	29.000000
0.060000	55.040000	66.010000	507.000000	0.000000	124.000000	60.000000	48.000000	42.000000
0.070000	55.550000	66.630000	522.000000	0.000000	124.000000	60.000000	51.000000	62.000000
0.080000	56.130000	67.430000	527.000000	0.000000	124.000000	60.000000	58.000000	80.000000
0.090000	56.780000	68.360000	538.000000	0.000000	124.000000	60.000000	65.000000	93.000000
0.100000	57.180000	69.570000	540.000000	0.000000	125.000000	60.000000	40.000000	121.000000
0.110000	57.410000	70.780000	540.000000	0.000000	125.000000	60.000000	23.000000	121.000000
0.120000	57.410000	71.670000	543.000000	0.000000	126.000000	60.000000	0.000000	89.000000
0.130000	57.340000	72.350000	562.000000	0.000000	129.000000	59.000000	-7.000000	68.000000
0.140000	57.120000	72.710000	553.000000	0.000000	131.000000	58.000000	-22.000000	36.000000
0.150000	56.720000	72.860000	561.000000	0.000000	132.000000	58.000000	-40.000000	15.000000
0.160000	56.330000	72.860000	564.000000	0.000000	134.000000	57.000000	-39.000000	0.000000
0.170000	55.970000	72.620000	565.000000	0.000000	135.000000	57.000000	-36.000000	-24.000000
0.180000	55.620000	71.970000	561.000000	0.000000	135.000000	57.000000	-35.000000	-65.000000
0.190000	55.670000	71.070000	529.000000	0.000000	136.000000	56.000000	5.000000	-90.000000
0.200000	56.070000	69.800000	515.000000	0.000000	135.000000	57.000000	40.000000	-127.000000
0.210000	56.700000	68.400000	510.000000	0.000000	135.000000	57.000000	63.000000	-140.000000
0.220000	57.300000	66.910000	521.000000	0.000000	134.000000	57.000000	60.000000	-149.000000
0.230000	57.610000	65.650000	513.000000	0.000000	132.000000	58.000000	31.000000	-126.000000
0.240000	57.730000	64.460000	543.000000	0.000000	131.000000	58.000000	12.000000	-119.000000
0.250000	57.490000	63.330000	605.000000	0.000000	131.000000	60.000000	-24.000000	-113.000000
0.260000	56.970000	62.530000	700.000000	0.000000	129.000000	60.000000	-52.000000	-80.000000
0.270000	56.250000	61.840000	740.000000	0.000000	128.000000	61.000000	-72.000000	-69.000000
0.280000	55.340000	61.230000	785.000000	0.000000	126.000000	61.000000	-91.000000	-61.000000
0.290000	54.200000	60.930000	827.000000	0.000000	126.000000	61.000000	-114.000000	-30.000000
0.300000	52.910000	60.820000	827.000000	0.000000	125.000000	60.000000	-129.000000	-11.000000
0.310000	51.830000	60.820000	828.000000	0.000000	125.000000	60.000000	-108.000000	0.000000
0.320000	51.150000	61.090000	830.000000	0.000000	125.000000	60.000000	-68.000000	27.000000
0.330000	50.730000	61.330000	827.000000	0.000000	125.000000	59.000000	-42.000000	24.000000
0.340000	50.790000	61.580000	791.000000	0.000000	125.000000	59.000000	6.000000	25.000000
0.350000	51.510000	62.210000	776.000000	0.000000	125.000000	59.000000	72.000000	63.000000
0.360000	52.680000	63.070000	773.000000	0.000000	124.000000	58.000000	117.000000	86.000000
0.370000	54.730000	64.340000	771.000000	0.000000	124.000000	58.000000	205.000000	127.000000
0.380000	57.360000	65.730000	787.000000	0.000000	125.000000	59.000000	263.000000	139.000000
0.390000	60.380000	67.190000	785.000000	0.000000	125.000000	59.000000	302.000000	146.000000
0.400000	63.290000	68.610000	782.000000	0.000000	125.000000	59.000000	291.000000	142.000000
0.410000	65.970000	69.950000	690.000000	0.000000	126.000000	60.000000	268.000000	134.000000
0.420000	68.490000	71.230000	340.000000	0.000000	128.000000	59.000000	252.000000	128.000000
0.430000	68.490000	71.230000	0.000000	1.000000	129.000000	60.000000	0.000000	0.000000
0.440000	71.480000	72.910000	0.000000	0.000000	134.000000	61.000000	299.000000	168.000000
0.450000	72.070000	73.470000	0.000000	0.000000	136.000000	61.000000	59.000000	56.000000
0.460000	71.700000	73.750000	0.000000	0.000000	138.000000	60.000000	-37.000000	28.000000
0.470000	71.040000	73.640000	0.000000	0.000000	139.000000	60.000000	-66.000000	-11.000000
0.480000	70.180000	73.270000	0.000000	0.000000	141.000000	59.000000	-86.000000	-37.000000
0.490000	69.350000	73.380000	0.000000	0.000000	140.000000	58.000000	-83.000000	11.000000
0.500000	68.950000	73.250000	0.000000	0.000000	138.000000	57.000000	-40.000000	-13.000000
0.510000	68.840000	72.950000	0.000000	0.000000	136.000000	55.000000	-11.000000	-30.000000
0.520000	68.520000	72.610000	0.000000	0.000000	134.000000	54.000000	-32.000000	-34.000000
0.530000	68.200000	72.290000	0.000000	0.000000	131.000000	52.000000	-32.000000	-32.000000
0.540000	67.890000	71.990000	0.000000	0.000000	128.000000	52.000000	-31.000000	-30.000000
0.550000	67.580000	71.710000	0.000000	0.000000	128.000000	52.000000	-31.000000	-28.000000
0.560000	66.960000	71.380000	0.000000	0.000000	128.000000	53.000000	-62.000000	-33.000000
0.570000	66.120000	71.020000	0.000000	0.000000	128.000000	54.000000	-84.000000	-36.000000
0.580000	65.200000	70.590000	0.000000	0.000000	129.000000	56.000000	-92.000000	-43.000000
0.590000	64.280000	70.110000	0.000000	0.000000	128.000000	58.000000	-92.000000	-48.000000
0.600000	63.380000	69.560000	0.000000	0.000000	128.000000	59.000000	-90.000000	-55.000000
0.610000	62.500000	68.980000	0.000000	0.000000	128.000000	61.000000	-88.000000	-58.000000
0.620000	61.710000	68.370000	0.000000	0.000000	128.000000	61.000000	-79.000000	-61.000000
0.630000	61.230000	67.820000	0.000000	0.000000	129.000000	60.000000	-48.000000	-55.000000
0.640000	60.950000	67.320000	0.000000	0.000000	128.000000	58.000000	-28.000000	-50.000000
0.650000	60.270000	66.960000	0.000000	0.000000	127.000000	57.000000	-68.000000	-36.000000
0.660000	59.890000	66.780000	0.000000	0.000000	126.000000	56.000000	-38.000000	-18.000000
0.670000	59.710000	66.720000	0.000000	0.000000	129.000000	55.000000	-18.000000	-6.000000
0.680000	59.490000	66.600000	0.000000	0.000000	129.000000	55.000000	-22.000000	-12.000000
0.690000	59.320000	66.510000	0.000000	0.000000	130.000000	55.000000	-17.000000	-9.000000
0.700000	59.260000	66.430000	0.000000	0.000000	130.000000	55.000000	-6.000000	-8.000000
0.710000	59.260000	66.430000	0.000000	0.000000	130.000000	56.000000	0.000000	0.000000
0.720000	59.360000	66.430000	0.000000	0.000000	130.000000	58.000000	10.000000	0.000000
0.730000	59.410000	66.430000	0.000000	0.000000	129.000000	59.000000	5.000000	0.000000
0.740000	59.410000	66.430000	0.000000	0.000000	131.000000	60.000000	0.000000	0.000000
0.750000	59.410000	66.430000	0.000000	0.000000	129.000000	60.000000	0.000000	0.000000
0.760000	59.410000	66.500000	0.000000	0.000000	129.000000	60.000000	0.000000	7.000000
0.770000	59.410000	66.560000	0.000000	0.000000	129.000000	60.000000	0.000000	6.000000
0.780000	59.410000	66.630000	0.000000	0.000000	129.000000	60.000000	0.000000	7.000000
0.790000	59.410000	66.700000	0.000000	0.000000	129.000000	60.000000	0.000000	7.000000
0.800000	59.410000	66.820000	0.000000	0.000000	129.000000	60.000000	0.000000	12.000000
0.810000	59.410000	66.970000	0.000000	0.000000	129.000000	60.000000	0.000000	15.000000
0.820000	59.350000	67.150000	0.000000	0.000000	129.000000	60.000000	-6.000000	18.000000
0.830000	59.260000	67.310000	0.000000	0.000000	129.000000	60.000000	-9.000000	16.000000
0.840000	59.180000	67.450000	0.000000	0.000000	129.000000	60.000000	-8.000000	14.000000
0.850000	59.120000	67.560000	0.000000	0.000000	129.000000	60.000000	-6.000000	11.000000
0.860000	59.120000	67.660000	0.000000	0.000000	129.000000	60.000000	0.000000	10.000000
0.870000	59.120000	67.830000	0.000000	0.000000	129.000000	60.000000	0.000000	17.000000
0.880000	59.240000	68.050000	0.000000	0.000000	129.000000	60.000000	12.000000	22.000000
0.890000	59.320000	68.290000	0.000000	0.000000	129.000000	60.000000	8.000000	24.000000
0.900000	59.450000	68.570000	0.000000	0.000000	129.000000	60.000000	13.000000	28.000000
0.910000	59.610000	68.880000	0.000000	0.000000	129.000000	60.000000	16.000000	31.000000
0.920000	59.820000	69.230000	0.000000	0.000000	129.000000	60.000000	21.000000	35.000000
0.930000	60.030000	69.600000	0.000000	0.000000	131.000000	61.000000	21.000000	37.000000
0.940000	60.230000	69.990000	0.000000	0.000000	132.000000	60.000000	20.000000	39.000000
0.950000	60.230000	69.990000	106.000000	1.000000	132.000000	60.000000	0.000000	0.000000
0.960000	60.540000	70.870000	171.000000	0.000000	134.000000	60.000000	31.000000	88.000000
0.970000	60.540000	71.160000	272.000000	0.000000	135.000000	59.000000	0.000000	29.000000
0.980000	60.490000	71.350000	361.000000	0.000000	136.000000	60.000000	-5.000000	19.000000
0.990000	60.260000	71.430000	441.000000	0.000000	138.000000	59.000000	-23.000000	8.000000
1.000000	59.930000	71.430000	512.000000	0.000000	138.000000	59.000000	-33.000000	0.000000
1.010000	59.410000	71.380000	564.000000	0.000000	138.000000	59.000000	-52.000000	-5.000000
1.020000	58.710000	70.900000	620.000000	0.000000	139.000000	58.000000	-70.000000	-48.000000
1.030000	57.900000	70.170000	673.000000	0.000000	139.000000	58.000000	-81.000000	-73.000000
1.040000	56.920000	68.850000	697.000000	0.000000	138.000000	59.000000	-98.000000	-132.000000
1.050000	56.190000	67.510000	728.000000	0.000000	136.000000	58.000000	-73.000000	-134.000000
1.060000	55.620000	66.430000	727.000000	0.000000	135.000000	59.000000	-57.000000	-108.000000
1.070000	55.490000	65.520000	725.000000	0.000000	132.000000	59.000000	-13.000000	-91.000000
1.080000	55.620000	64.830000	700.000000	0.000000	131.000000	60.000000	13.000000	-69.000000
1.090000	55.930000	64.410000	673.000000	0.000000	128.000000	59.000000	31.000000	-42.000000
1.100000	56.490000	64.160000	619.000000	0.000000	125.000000	59.000000	56.000000	-25.000000
1.110000	57.180000	64.160000	567.000000	0.000000	124.000000	60.000000	69.000000	0.000000
1.120000	57.960000	64.380000	561.000000	0.000000	122.000000	60.000000	78.000000	22.000000
1.130000	58.640000	64.760000	543.000000	0.000000	122.000000	60.000000	68.000000	38.000000
1.140000	59.240000	65.290000	546.000000	0.000000	123.000000	61.000000	60.000000	53.000000
1.150000	59.780000	65.790000	564.000000	0.000000	123.000000	61.000000	54.000000	50.000000
1.160000	60.160000	66.280000	574.000000	0.000000	124.000000	62.000000	38.000000	49.000000
1.170000	60.420000	66.810000	584.000000	0.000000	124.000000	62.000000	26.000000	53.000000
1.180000	60.610000	67.300000	610.000000	0.000000	126.000000	62.000000	19.000000	49.000000
1.190000	60.680000	67.770000	644.000000	0.000000	126.000000	62.000000	7.000000	47.000000
1.200000	60.680000	68.000000	670.000000	0.000000	127.000000	63.000000	0.000000	23.000000
1.210000	60.530000	68.210000	679.000000	0.000000	127.000000	63.000000	-15.000000	21.000000
1.220000	60.330000	68.410000	693.000000	0.000000	127.000000	63.000000	-20.000000	20.000000
1.230000	60.040000	68.410000	699.000000	0.000000	129.000000	63.000000	-29.000000	0.000000
1.240000	59.690000	68.290000	702.000000	0.000000	130.000000	62.000000	-35.000000	-12.000000
1.250000	59.390000	68.090000	700.000000	0.000000	130.000000	62.000000	-30.000000	-20.000000
1.260000	59.110000	67.710000	696.000000	0.000000	130.000000	62.000000	-28.000000	-38.000000
1.270000	58.870000	67.220000	672.000000	0.000000	130.000000	62.000000	-24.000000	-49.000000
1.280000	58.870000	66.780000	643.000000	0.000000	130.000000	62.000000	0.000000	-44.000000
1.290000	59.100000	66.380000	611.000000	0.000000	130.000000	62.000000	23.000000	-40.000000
1.300000	59.350000	66.150000	561.000000	0.000000	127.000000	62.000000	25.000000	-23.000000
1.310000	59.610000	66.020000	536.000000	0.000000	127.000000	62.000000	26.000000	-13.000000
1.320000	59.870000	66.020000	527.000000	0.000000	126.000000	62.000000	26.000000	0.000000
1.330000	60.150000	66.250000	516.000000	0.000000	126.000000	62.000000	28.000000	23.000000
1.340000	60.380000	66.560000	519.000000	0.000000	124.000000	63.000000	23.000000	31.000000
1.350000	60.590000	66.830000	522.000000	0.000000	124.000000	63.000000	21.000000	27.000000
1.360000	60.780000	66.990000	521.000000	0.000000	124.000000	63.000000	19.000000	16.000000
1.370000	60.910000	67.090000	526.000000	0.000000	124.000000	63.000000	13.000000	10.000000
1.380000	61.000000	67.040000	535.000000	0.000000	124.000000	63.000000	9.000000	-5.000000
1.390000	61.070000	66.980000	538.000000	0.000000	124.000000	63.000000	7.000000	-6.000000
1.400000	61.140000	66.900000	541.000000	0.000000	124.000000	63.000000	7.000000	-8.000000
1.410000	61.230000	66.830000	544.000000	0.000000	124.000000	63.000000	9.000000	-7.000000
1.420000	61.300000	66.730000	546.000000	0.000000	124.000000	63.000000	7.000000	-10.000000
1.430000	61.370000	66.730000	538.000000	0.000000	124.000000	63.000000	7.000000	0.000000
1.440000	61.500000	66.730000	529.000000	0.000000	124.000000	63.000000	13.000000	0.000000
1.450000	61.660000	66.910000	526.000000	0.000000	124.000000	63.000000	16.000000	18.000000
1.460000	61.880000	67.270000	516.000000	0.000000	124.000000	63.000000	22.000000	36.000000
1.470000	62.070000	67.770000	518.000000	0.000000	124.000000	63.000000	19.000000	50.000000
1.480000	62.240000	68.500000	526.000000	0.000000	124.000000	63.000000	17.000000	73.000000
1.490000	62.490000	69.260000	541.000000	0.000000	123.000000	62.000000	25.000000	76.000000
1.500000	62.660000	70.040000	540.000000	0.000000	124.000000	62.000000	17.000000	78.000000
1.510000	62.660000	70.650000	561.000000	0.000000	126.000000	61.000000	0.000000	61.000000
1.520000	62.560000	71.030000	588.000000	0.000000	129.000000	60.000000	-10.000000	38.000000
1.530000	62.500000	71.250000	595.000000	0.000000	131.000000	60.000000	-6.000000	22.000000
1.540000	62.500000	71.250000	588.000000	0.000000	132.000000	59.000000	0.000000	0.000000
1.550000	62.500000	71.250000	584.000000	0.000000	134.000000	58.000000	0.000000	0.000000
1.560000	62.500000	70.940000	566.000000	0.000000	134.000000	58.000000	0.000000	-31.000000
1.570000	62.660000	70.500000	550.000000	0.000000	135.000000	58.000000	16.000000	-44.000000
1.580000	62.790000	69.910000	535.000000	0.000000	135.000000	58.000000	13.000000	-59.000000
1.590000	62.940000	69.190000	535.000000	0.000000	134.000000	58.000000	15.000000	-72.000000
1.600000	63.020000	68.380000	538.000000	0.000000	134.000000	58.000000	8.000000	-81.000000
1.610000	63.020000	67.750000	543.000000	0.000000	134.000000	58.000000	0.000000	-63.000000
1.620000	62.850000	67.230000	551.000000	0.000000	134.000000	60.000000	-17.000000	-52.000000
1.630000	62.630000	66.780000	561.000000	0.000000	132.000000	60.000000	-22.000000	-45.000000
1.640000	62.370000	66.490000	563.000000	0.000000	129.000000	61.000000	-26.000000	-29.000000
1.650000	62.200000	66.390000	585.000000	0.000000	127.000000	62.000000	-17.000000	-10.000000
1.660000	62.090000	66.390000	588.000000	0.000000	126.000000	62.000000	-11.000000	0.000000
1.670000	62.090000	66.620000	570.000000	0.000000	126.000000	62.000000	0.000000	23.000000
1.680000	62.090000	66.940000	569.000000	0.000000	124.000000	63.000000	0.000000	32.000000
1.690000	62.220000	67.350000	570.000000	0.000000	124.000000	63.000000	13.000000	41.000000
1.700000	62.420000	67.650000	556.000000	0.000000	124.000000	63.000000	20.000000	30.000000
1.710000	62.680000	67.910000	545.000000	0.000000	124.000000	63.000000	26.000000	26.000000
1.720000	62.950000	68.090000	539.000000	0.000000	124.000000	63.000000	27.000000	18.000000
1.730000	63.230000	68.200000	539.000000	0.000000	126.000000	62.000000	28.000000	11.000000
1.740000	63.520000	68.280000	542.000000	0.000000	126.000000	62.000000	29.000000	8.000000
1.750000	63.840000	68.440000	556.000000	0.000000	127.000000	62.000000	32.000000	16.000000
1.760000	64.180000	68.640000	565.000000	0.000000	127.000000	62.000000	34.000000	20.000000
1.770000	64.460000	68.900000	567.000000	0.000000	129.000000	61.000000	28.000000	26.000000
1.780000	64.700000	69.290000	585.000000	0.000000	128.000000	61.000000	24.000000	39.000000
1.790000	64.870000	69.760000	606.000000	0.000000	129.000000	60.000000	17.000000	47.000000
1.800000	64.980000	70.230000	624.000000	0.000000	131.000000	61.000000	11.000000	47.000000
1.810000	65.060000	70.620000	656.000000	0.000000	132.000000	60.000000	8.000000	39.000000
1.820000	64.990000	70.780000	702.000000	0.000000	134.000000	60.000000	-7.000000	16.000000
1.830000	64.830000	70.780000	696.000000	0.000000	134.000000	60.000000	-16.000000	0.000000
1.840000	64.620000	70.720000	708.000000	0.000000	135.000000	59.000000	-21.000000	-6.000000
1.850000	64.370000	70.330000	719.000000	0.000000	135.000000	59.000000	-25.000000	-39.000000
1.860000	64.080000	69.750000	722.000000	0.000000	135.000000	59.000000	-29.000000	-58.000000
1.870000	63.760000	69.060000	727.000000	0.000000	135.000000	59.000000	-32.000000	-69.000000
1.880000	63.760000	68.440000	691.000000	0.000000	135.000000	59.000000	0.000000	-62.000000
1.890000	63.760000	68.030000	603.000000	0.000000	134.000000	60.000000	0.000000	-41.000000
1.900000	63.920000	67.740000	388.000000	0.000000	131.000000	60.000000	16.000000	-29.000000
1.910000	63.920000	67.740000	0.000000	1.000000	129.000000	60.000000	0.000000	0.000000
1.920000	64.420000	67.490000	0.000000	0.000000	128.000000	61.000000	50.000000	-25.000000
1.930000	64.650000	67.700000	0.000000	0.000000	128.000000	61.000000	23.000000	21.000000
1.940000	64.830000	68.000000	0.000000	0.000000	126.000000	61.000000	18.000000	30.000000
1.950000	64.970000	68.450000	0.000000	0.000000	126.000000	61.000000	14.000000	45.000000
1.960000	64.970000	68.450000	44.000000	1.000000	126.000000	61.000000	0.000000	0.000000
1.970000	65.140000	69.670000	210.000000	0.000000	126.000000	61.000000	17.000000	122.000000
1.980000	65.240000	70.140000	257.000000	0.000000	128.000000	61.000000	10.000000	47.000000
1.990000	65.380000	70.460000	325.000000	0.000000	128.000000	61.000000	14.000000	32.000000
2.000000	65.550000	70.940000	392.000000	0.000000	129.000000	60.000000	17.000000	48.000000
2.010000	65.810000	71.400000	439.000000	0.000000	132.000000	60.000000	26.000000	46.000000
2.020000	66.040000	71.590000	483.000000	0.000000	134.000000	60.000000	23.000000	19.000000
2.030000	66.180000	71.590000	520.000000	0.000000	135.000000	59.000000	14.000000	0.000000
2.040000	66.260000	71.490000	542.000000	0.000000	138.000000	59.000000	8.000000	-10.000000
2.050000	66.340000	71.300000	586.000000	0.000000	138.000000	59.000000	8.000000	-19.000000
2.060000	66.390000	70.930000	613.000000	0.000000	138.000000	59.000000	5.000000	-37.000000
2.070000	66.390000	70.470000	624.000000	0.000000	139.000000	58.000000	0.000000	-46.000000
2.080000	66.390000	69.940000	606.000000	0.000000	141.000000	59.000000	0.000000	-53.000000
2.090000	66.450000	69.480000	541.000000	0.000000	139.000000	60.000000	6.000000	-46.000000
2.100000	66.450000	69.120000	337.000000	0.000000	139.000000	60.000000	0.000000	-36.000000
2.110000	66.450000	69.120000	0.000000	1.000000	139.000000	60.000000	0.000000	0.000000
2.120000	66.500000	68.500000	0.000000	0.000000	138.000000	60.000000	5.000000	-62.000000
2.130000	66.380000	68.500000	0.000000	0.000000	138.000000	60.000000	-12.000000	0.000000
2.140000	66.260000	68.590000	0.000000	0.000000	136.000000	61.000000	-12.000000	9.000000
2.150000	66.100000	68.770000	0.000000	0.000000	136.000000	61.000000	-16.000000	18.000000
2.160000	65.900000	68.980000	0.000000	0.000000	134.000000	61.000000	-20.000000	21.000000
2.170000	65.900000	68.980000	223.000000	1.000000	134.000000	61.000000	0.000000	0.000000
2.180000	65.460000	68.920000	291.000000	0.000000	134.000000	61.000000	-44.000000	-6.000000
2.190000	65.240000	68.920000	351.000000	0.000000	134.000000	61.000000	-22.000000	0.000000
2.200000	65.240000	68.920000	381.000000	0.000000	134.000000	61.000000	0.000000	0.000000
2.210000	65.300000	68.990000	389.000000	0.000000	132.000000	60.000000	6.000000	7.000000
