t	x	y	pressure	penup	azimuth	inclination	v_x	v_y
0.000000	14.830000	44.230000	65.000000	1.000000	132.000000	64.000000	0.000000	0.000000
0.010000	14.740000	43.670000	183.000000	0.000000	132.000000	64.000000	-9.000000	-56.000000
0.020000	14.670000	43.450000	342.000000	0.000000	132.000000	64.000000	-7.000000	-22.000000
0.030000	14.670000	43.450000	517.000000	0.000000	132.000000	64.000000	0.000000	0.000000
0.040000	14.670000	43.450000	616.000000	0.000000	132.000000	64.000000	0.000000	0.000000
0.050000	14.780000	43.640000	669.000000	0.000000	132.000000	64.000000	11.000000	19.000000
0.060000	14.960000	44.120000	720.000000	0.000000	130.000000	65.000000	18.000000	48.000000
0.070000	15.240000	44.840000	776.000000	0.000000	130.000000	65.000000	28.000000	72.000000
0.080000	15.380000	45.720000	796.000000	0.000000	130.000000	65.000000	14.000000	88.000000
0.090000	15.430000	46.730000	815.000000	0.000000	130.000000	65.000000	5.000000	101.000000
0.100000	15.230000	48.010000	819.000000	0.000000	130.000000	63.000000	-20.000000	128.000000
0.110000	14.830000	49.480000	833.000000	0.000000	130.000000	63.000000	-40.000000	147.000000
0.120000	14.300000	50.580000	866.000000	0.000000	132.000000	63.000000	-53.000000	110.000000
0.130000	13.770000	51.260000	902.000000	0.000000	130.000000	62.000000	-53.000000	68.000000
0.140000	13.260000	51.660000	914.000000	0.000000	132.000000	61.000000	-51.000000	40.000000
0.150000	12.840000	51.870000	944.000000	0.000000	132.000000	60.000000	-42.000000	21.000000
0.160000	12.550000	51.870000	941.000000	0.000000	134.000000	60.000000	-29.000000	0.000000
0.170000	12.550000	51.870000	935.000000	0.000000	134.000000	58.000000	0.000000	0.000000
0.180000	12.120000	51.540000	927.000000	0.000000	134.000000	58.000000	-43.000000	-33.000000
0.190000	12.120000	51.090000	905.000000	0.000000	134.000000	57.000000	0.000000	-45.000000
0.200000	12.170000	50.540000	905.000000	0.000000	132.000000	57.000000	5.000000	-55.000000
0.210000	12.580000	50.000000	899.000000	0.000000	131.000000	57.000000	41.000000	-54.000000
0.220000	13.160000	49.440000	897.000000	0.000000	131.000000	57.000000	58.000000	-56.000000
0.230000	13.850000	48.850000	903.000000	0.000000	131.000000	57.000000	69.000000	-59.000000
0.240000	14.600000	48.250000	905.000000	0.000000	131.000000	58.000000	75.000000	-60.000000
0.250000	15.310000	47.480000	905.000000	0.000000	131.000000	58.000000	71.000000	-77.000000
0.260000	15.990000	46.610000	906.000000	0.000000	129.000000	59.000000	68.000000	-87.000000
0.270000	16.650000	45.850000	909.000000	0.000000	129.000000	60.000000	66.000000	-76.000000
0.280000	17.170000	45.250000	893.000000	0.000000	129.000000	60.000000	52.000000	-60.000000
0.290000	17.560000	44.760000	900.000000	0.000000	129.000000	61.000000	39.000000	-49.000000
0.300000	17.850000	44.380000	905.000000	0.000000	129.000000	61.000000	29.000000	-38.000000
0.310000	18.040000	44.150000	906.000000	0.000000	127.000000	62.000000	19.000000	-23.000000
0.320000	18.120000	44.020000	911.000000	0.000000	127.000000	62.000000	8.000000	-13.000000
0.330000	18.120000	43.910000	911.000000	0.000000	127.000000	62.000000	0.000000	-11.000000
0.340000	18.120000	43.910000	909.000000	0.000000	129.000000	63.000000	0.000000	0.000000
0.350000	18.120000	43.960000	896.000000	0.000000	129.000000	63.000000	0.000000	5.000000
0.360000	18.050000	44.030000	854.000000	0.000000	129.000000	63.000000	-7.000000	7.000000
0.370000	18.050000	44.100000	750.000000	0.000000	129.000000	63.000000	0.000000	7.000000
0.380000	18.050000	44.100000	494.000000	0.000000	129.000000	63.000000	0.000000	0.000000
0.390000	18.050000	44.100000	0.000000	1.000000	129.000000	63.000000	0.000000	0.000000
0.400000	18.000000	44.450000	0.000000	0.000000	129.000000	63.000000	-5.000000	35.000000
0.410000	18.000000	44.700000	0.000000	0.000000	129.000000	63.000000	0.000000	25.000000
0.420000	17.900000	45.000000	0.000000	0.000000	129.000000	63.000000	-10.000000	30.000000
0.430000	17.700000	45.190000	0.000000	0.000000	129.000000	63.000000	-20.000000	19.000000
0.440000	17.630000	45.340000	0.000000	0.000000	129.000000	63.000000	-7.000000	15.000000
0.450000	17.630000	45.430000	0.000000	0.000000	127.000000	62.000000	0.000000	9.000000
0.460000	17.630000	45.510000	0.000000	0.000000	127.000000	62.000000	0.000000	8.000000
0.470000	17.570000	45.510000	0.000000	0.000000	129.000000	61.000000	-6.000000	0.000000
0.480000	17.570000	45.600000	0.000000	0.000000	129.000000	61.000000	0.000000	9.000000
0.490000	17.440000	45.730000	0.000000	0.000000	129.000000	61.000000	-13.000000	13.000000
0.500000	17.300000	45.800000	0.000000	0.000000	131.000000	61.000000	-14.000000	7.000000
0.510000	17.210000	45.800000	0.000000	0.000000	131.000000	61.000000	-9.000000	0.000000
0.520000	17.120000	45.800000	0.000000	0.000000	131.000000	61.000000	-9.000000	0.000000
0.530000	16.970000	45.800000	0.000000	0.000000	131.000000	61.000000	-15.000000	0.000000
0.540000	16.770000	45.730000	0.000000	0.000000	131.000000	61.000000	-20.000000	-7.000000
0.550000	16.630000	45.730000	0.000000	0.000000	131.000000	61.000000	-14.000000	0.000000
0.560000	16.540000	45.730000	0.000000	0.000000	131.000000	61.000000	-9.000000	0.000000
0.570000	16.540000	45.730000	0.000000	0.000000	131.000000	61.000000	0.000000	0.000000
0.580000	16.540000	45.730000	0.000000	0.000000	131.000000	61.000000	0.000000	0.000000
0.590000	16.540000	45.830000	0.000000	0.000000	131.000000	61.000000	0.000000	10.000000
0.600000	16.600000	45.880000	0.000000	0.000000	131.000000	61.000000	6.000000	5.000000
0.610000	16.600000	45.930000	0.000000	0.000000	131.000000	61.000000	0.000000	5.000000
0.620000	16.600000	45.930000	0.000000	0.000000	131.000000	61.000000	0.000000	0.000000
0.630000	16.600000	45.990000	0.000000	0.000000	131.000000	61.000000	0.000000	6.000000
0.640000	16.660000	45.990000	0.000000	0.000000	131.000000	61.000000	6.000000	0.000000
0.650000	16.660000	46.050000	0.000000	0.000000	131.000000	61.000000	0.000000	6.000000
0.660000	16.660000	46.100000	0.000000	0.000000	129.000000	61.000000	0.000000	5.000000
0.670000	16.660000	46.150000	0.000000	0.000000	129.000000	61.000000	0.000000	5.000000
0.680000	16.660000	46.150000	0.000000	0.000000	129.000000	61.000000	0.000000	0.000000
0.690000	16.660000	46.220000	0.000000	0.000000	129.000000	61.000000	0.000000	7.000000
0.700000	16.770000	46.220000	0.000000	0.000000	131.000000	61.000000	11.000000	0.000000
0.710000	16.870000	46.160000	0.000000	0.000000	131.000000	61.000000	10.000000	-6.000000
0.720000	16.950000	46.110000	0.000000	0.000000	131.000000	61.000000	8.000000	-5.000000
0.730000	16.950000	46.030000	0.000000	0.000000	131.000000	61.000000	0.000000	-8.000000
0.740000	16.880000	45.940000	0.000000	0.000000	131.000000	61.000000	-7.000000	-9.000000
0.750000	16.880000	45.870000	0.000000	0.000000	131.000000	61.000000	0.000000	-7.000000
0.760000	16.880000	45.800000	0.000000	0.000000	131.000000	61.000000	0.000000	-7.000000
0.770000	16.880000	45.800000	0.000000	0.000000	131.000000	61.000000	0.000000	0.000000
0.780000	16.880000	45.800000	0.000000	0.000000	131.000000	61.000000	0.000000	0.000000
0.790000	16.770000	45.530000	0.000000	0.000000	131.000000	61.000000	-11.000000	-27.000000
0.800000	16.770000	45.400000	0.000000	0.000000	131.000000	61.000000	0.000000	-13.000000
0.810000	16.880000	45.260000	0.000000	0.000000	129.000000	61.000000	11.000000	-14.000000
0.820000	17.100000	45.180000	0.000000	0.000000	129.000000	61.000000	22.000000	-8.000000
0.830000	17.290000	45.180000	0.000000	0.000000	129.000000	61.000000	19.000000	0.000000
0.840000	17.450000	45.130000	0.000000	0.000000	130.000000	62.000000	16.000000	-5.000000
0.850000	17.590000	45.130000	0.000000	0.000000	130.000000	62.000000	14.000000	0.000000
0.860000	17.730000	45.060000	0.000000	0.000000	129.000000	63.000000	14.000000	-7.000000
0.870000	17.730000	45.060000	214.000000	1.000000	129.000000	63.000000	0.000000	0.000000
0.880000	17.730000	45.060000	373.000000	0.000000	129.000000	63.000000	0.000000	0.000000
0.890000	17.730000	45.060000	483.000000	0.000000	129.000000	63.000000	0.000000	0.000000
0.900000	17.730000	45.060000	619.000000	0.000000	127.000000	63.000000	0.000000	0.000000
0.910000	17.390000	44.760000	700.000000	0.000000	127.000000	63.000000	-34.000000	-30.000000
0.920000	17.020000	44.600000	737.000000	0.000000	127.000000	63.000000	-37.000000	-16.000000
0.930000	16.440000	44.410000	796.000000	0.000000	127.000000	63.000000	-58.000000	-19.000000
0.940000	15.730000	44.190000	860.000000	0.000000	126.000000	62.000000	-71.000000	-22.000000
0.950000	14.870000	44.020000	900.000000	0.000000	126.000000	62.000000	-86.000000	-17.000000
0.960000	14.030000	43.870000	962.000000	0.000000	126.000000	62.000000	-84.000000	-15.000000
0.970000	13.210000	43.870000	983.000000	0.000000	127.000000	62.000000	-82.000000	0.000000
0.980000	12.770000	44.110000	994.000000	0.000000	127.000000	62.000000	-44.000000	24.000000
0.990000	12.500000	44.410000	1015.000000	0.000000	126.000000	61.000000	-27.000000	30.000000
1.000000	12.330000	44.660000	1023.000000	0.000000	126.000000	61.000000	-17.000000	25.000000
1.010000	12.430000	44.900000	1023.000000	0.000000	126.000000	61.000000	10.000000	24.000000
1.020000	13.000000	45.350000	1023.000000	0.000000	126.000000	61.000000	57.000000	45.000000
1.030000	13.890000	45.950000	1023.000000	0.000000	125.000000	60.000000	89.000000	60.000000
1.040000	15.320000	46.790000	1023.000000	0.000000	125.000000	60.000000	143.000000	84.000000
1.050000	17.290000	47.960000	1023.000000	0.000000	125.000000	60.000000	197.000000	117.000000
1.060000	19.630000	49.350000	1023.000000	0.000000	125.000000	60.000000	234.000000	139.000000
1.070000	22.010000	50.520000	1023.000000	0.000000	125.000000	60.000000	238.000000	117.000000
1.080000	24.180000	51.670000	1023.000000	0.000000	128.000000	61.000000	217.000000	115.000000
1.090000	25.830000	52.490000	1023.000000	0.000000	131.000000	61.000000	165.000000	82.000000
1.100000	27.210000	53.100000	1023.000000	0.000000	132.000000	60.000000	138.000000	61.000000
1.110000	28.010000	53.610000	1023.000000	0.000000	134.000000	60.000000	80.000000	51.000000
1.120000	28.500000	53.940000	964.000000	0.000000	135.000000	59.000000	49.000000	33.000000
1.130000	28.790000	54.140000	809.000000	0.000000	136.000000	60.000000	29.000000	20.000000
1.140000	28.790000	54.270000	369.000000	0.000000	138.000000	59.000000	0.000000	13.000000
1.150000	28.790000	54.270000	0.000000	1.000000	138.000000	59.000000	0.000000	0.000000
1.160000	27.400000	54.200000	0.000000	0.000000	138.000000	59.000000	-139.000000	-7.000000
1.170000	25.770000	53.900000	0.000000	0.000000	136.000000	58.000000	-163.000000	-30.000000
1.180000	24.010000	53.470000	0.000000	0.000000	136.000000	58.000000	-176.000000	-43.000000
1.190000	22.150000	53.010000	0.000000	0.000000	136.000000	58.000000	-186.000000	-46.000000
1.200000	20.800000	52.470000	0.000000	0.000000	136.000000	57.000000	-135.000000	-54.000000
1.210000	19.700000	51.890000	0.000000	0.000000	136.000000	57.000000	-110.000000	-58.000000
1.220000	18.770000	51.320000	0.000000	0.000000	134.000000	57.000000	-93.000000	-57.000000
1.230000	18.150000	50.730000	0.000000	0.000000	134.000000	57.000000	-62.000000	-59.000000
1.240000	17.600000	50.150000	0.000000	0.000000	134.000000	57.000000	-55.000000	-58.000000
1.250000	17.180000	49.570000	0.000000	0.000000	131.000000	57.000000	-42.000000	-58.000000
1.260000	16.840000	48.970000	0.000000	0.000000	130.000000	58.000000	-34.000000	-60.000000
1.270000	16.550000	48.460000	0.000000	0.000000	128.000000	58.000000	-29.000000	-51.000000
1.280000	16.640000	48.000000	0.000000	0.000000	129.000000	59.000000	9.000000	-46.000000
1.290000	16.890000	47.840000	0.000000	0.000000	128.000000	59.000000	25.000000	-16.000000
1.300000	17.240000	47.670000	0.000000	0.000000	129.000000	60.000000	35.000000	-17.000000
1.310000	17.600000	47.670000	0.000000	0.000000	131.000000	61.000000	36.000000	0.000000
1.320000	17.940000	47.800000	0.000000	0.000000	132.000000	61.000000	34.000000	13.000000
1.330000	18.290000	48.010000	0.000000	0.000000	132.000000	61.000000	35.000000	21.000000
1.340000	18.680000	48.390000	0.000000	0.000000	133.000000	62.000000	39.000000	38.000000
1.350000	18.680000	48.390000	131.000000	1.000000	135.000000	62.000000	0.000000	0.000000
1.360000	19.600000	49.500000	225.000000	0.000000	135.000000	62.000000	92.000000	111.000000
1.370000	20.010000	50.110000	341.000000	0.000000	135.000000	62.000000	41.000000	61.000000
1.380000	20.280000	50.720000	512.000000	0.000000	136.000000	61.000000	27.000000	61.000000
1.390000	20.340000	51.150000	653.000000	0.000000	136.000000	61.000000	6.000000	43.000000
1.400000	20.270000	51.450000	722.000000	0.000000	136.000000	61.000000	-7.000000	30.000000
1.410000	20.020000	51.570000	770.000000	0.000000	138.000000	60.000000	-25.000000	12.000000
1.420000	19.580000	51.420000	818.000000	0.000000	136.000000	60.000000	-44.000000	-15.000000
1.430000	19.010000	51.090000	824.000000	0.000000	138.000000	59.000000	-57.000000	-33.000000
1.440000	18.230000	50.320000	826.000000	0.000000	138.000000	59.000000	-78.000000	-77.000000
1.450000	17.260000	49.290000	827.000000	0.000000	138.000000	59.000000	-97.000000	-103.000000
1.460000	16.150000	48.100000	819.000000	0.000000	138.000000	59.000000	-111.000000	-119.000000
1.470000	15.530000	47.040000	818.000000	0.000000	136.000000	58.000000	-62.000000	-106.000000
1.480000	15.260000	46.280000	832.000000	0.000000	135.000000	59.000000	-27.000000	-76.000000
1.490000	15.210000	45.720000	814.000000	0.000000	134.000000	60.000000	-5.000000	-56.000000
1.500000	15.460000	45.500000	799.000000	0.000000	132.000000	60.000000	25.000000	-22.000000
1.510000	15.970000	45.430000	793.000000	0.000000	131.000000	61.000000	51.000000	-7.000000
1.520000	16.650000	45.430000	756.000000	0.000000	129.000000	61.000000	68.000000	0.000000
1.530000	17.350000	45.590000	733.000000	0.000000	127.000000	62.000000	70.000000	16.000000
1.540000	17.900000	45.710000	673.000000	0.000000	127.000000	62.000000	55.000000	12.000000
1.550000	18.360000	45.850000	624.000000	0.000000	126.000000	62.000000	46.000000	14.000000
1.560000	18.760000	46.130000	589.000000	0.000000	126.000000	62.000000	40.000000	28.000000
1.570000	19.080000	46.480000	562.000000	0.000000	126.000000	62.000000	32.000000	35.000000
1.580000	19.350000	46.940000	565.000000	0.000000	124.000000	62.000000	27.000000	46.000000
1.590000	19.400000	47.380000	580.000000	0.000000	126.000000	62.000000	5.000000	44.000000
1.600000	19.340000	47.800000	645.000000	0.000000	127.000000	62.000000	-6.000000	42.000000
1.610000	19.200000	48.070000	676.000000	0.000000	127.000000	62.000000	-14.000000	27.000000
1.620000	19.060000	48.260000	722.000000	0.000000	127.000000	62.000000	-14.000000	19.000000
1.630000	18.840000	48.210000	754.000000	0.000000	129.000000	61.000000	-22.000000	-5.000000
1.640000	18.570000	48.120000	762.000000	0.000000	129.000000	61.000000	-27.000000	-9.000000
1.650000	18.310000	47.830000	777.000000	0.000000	129.000000	60.000000	-26.000000	-29.000000
1.660000	18.080000	47.430000	799.000000	0.000000	129.000000	60.000000	-23.000000	-40.000000
1.670000	17.860000	47.030000	823.000000	0.000000	129.000000	60.000000	-22.000000	-40.000000
1.680000	17.770000	46.670000	830.000000	0.000000	129.000000	60.000000	-9.000000	-36.000000
1.690000	17.830000	46.350000	819.000000	0.000000	128.000000	61.000000	6.000000	-32.000000
1.700000	18.000000	46.160000	817.000000	0.000000	128.000000	61.000000	17.000000	-19.000000
1.710000	18.220000	46.160000	814.000000	0.000000	126.000000	61.000000	22.000000	0.000000
1.720000	18.490000	46.160000	811.000000	0.000000	126.000000	61.000000	27.000000	0.000000
1.730000	18.700000	46.300000	809.000000	0.000000	126.000000	61.000000	21.000000	14.000000
1.740000	18.860000	46.390000	814.000000	0.000000	124.000000	62.000000	16.000000	9.000000
1.750000	18.860000	46.390000	826.000000	0.000000	124.000000	62.000000	0.000000	0.000000
1.760000	18.860000	46.390000	827.000000	0.000000	126.000000	62.000000	0.000000	0.000000
1.770000	18.860000	46.280000	820.000000	0.000000	126.000000	62.000000	0.000000	-11.000000
1.780000	18.930000	46.100000	799.000000	0.000000	126.000000	62.000000	7.000000	-18.000000
1.790000	18.990000	45.840000	722.000000	0.000000	126.000000	62.000000	6.000000	-26.000000
1.800000	19.050000	45.600000	609.000000	0.000000	126.000000	62.000000	6.000000	-24.000000
1.810000	19.110000	45.390000	317.000000	0.000000	126.000000	62.000000	6.000000	-21.000000
1.820000	19.110000	45.390000	0.000000	1.000000	126.000000	62.000000	0.000000	0.000000
1.830000	19.280000	45.270000	0.000000	0.000000	127.000000	63.000000	17.000000	-12.000000
1.840000	19.280000	45.410000	0.000000	0.000000	127.000000	63.000000	0.000000	14.000000
1.850000	19.280000	45.690000	0.000000	0.000000	127.000000	63.000000	0.000000	28.000000
1.860000	19.230000	46.040000	0.000000	0.000000	127.000000	63.000000	-5.000000	35.000000
1.870000	19.320000	46.450000	0.000000	0.000000	127.000000	63.000000	9.000000	41.000000
1.880000	19.420000	46.960000	0.000000	0.000000	127.000000	63.000000	10.000000	51.000000
1.890000	19.550000	47.510000	0.000000	0.000000	129.000000	63.000000	13.000000	55.000000
1.900000	19.670000	48.100000	0.000000	0.000000	129.000000	63.000000	12.000000	59.000000
1.910000	19.730000	48.710000	0.000000	0.000000	130.000000	62.000000	6.000000	61.000000
1.920000	19.730000	49.270000	0.000000	0.000000	129.000000	61.000000	0.000000	56.000000
1.930000	19.800000	49.580000	0.000000	0.000000	129.000000	61.000000	7.000000	31.000000
1.940000	19.800000	49.580000	414.000000	1.000000	131.000000	61.000000	0.000000	0.000000
1.950000	19.800000	49.580000	518.000000	0.000000	129.000000	60.000000	0.000000	0.000000
1.960000	19.800000	49.580000	586.000000	0.000000	131.000000	60.000000	0.000000	0.000000
1.970000	19.800000	49.580000	666.000000	0.000000	132.000000	60.000000	0.000000	0.000000
1.980000	19.800000	49.580000	748.000000	0.000000	132.000000	60.000000	0.000000	0.000000
1.990000	19.800000	49.580000	751.000000	0.000000	134.000000	60.000000	0.000000	0.000000
2.000000	19.900000	49.190000	759.000000	0.000000	134.000000	60.000000	10.000000	-39.000000
2.010000	20.030000	48.930000	763.000000	0.000000	134.000000	60.000000	13.000000	-26.000000
2.020000	20.180000	48.680000	765.000000	0.000000	134.000000	60.000000	15.000000	-25.000000
2.030000	20.330000	48.470000	757.000000	0.000000	134.000000	60.000000	15.000000	-21.000000
2.040000	20.470000	48.290000	759.000000	0.000000	134.000000	60.000000	14.000000	-18.000000
2.050000	20.610000	48.170000	763.000000	0.000000	132.000000	60.000000	14.000000	-12.000000
2.060000	20.680000	48.100000	776.000000	0.000000	132.000000	60.000000	7.000000	-7.000000
2.070000	20.680000	48.100000	790.000000	0.000000	132.000000	60.000000	0.000000	0.000000
2.080000	20.680000	48.100000	826.000000	0.000000	132.000000	60.000000	0.000000	0.000000
2.090000	20.680000	48.100000	827.000000	0.000000	132.000000	60.000000	0.000000	0.000000
2.100000	20.590000	48.100000	834.000000	0.000000	132.000000	60.000000	-9.000000	0.000000
2.110000	20.590000	48.100000	839.000000	0.000000	132.000000	60.000000	0.000000	0.000000
2.120000	20.640000	48.100000	843.000000	0.000000	132.000000	60.000000	5.000000	0.000000
2.130000	20.640000	48.100000	837.000000	0.000000	132.000000	60.000000	0.000000	0.000000
2.140000	20.540000	48.200000	834.000000	0.000000	132.000000	60.000000	-10.000000	10.000000
2.150000	20.420000	48.340000	845.000000	0.000000	132.000000	60.000000	-12.000000	14.000000
2.160000	20.330000	48.450000	861.000000	0.000000	132.000000	60.000000	-9.000000	11.000000
2.170000	20.260000	48.530000	857.000000	0.000000	132.000000	60.000000	-7.000000	8.000000
2.180000	20.260000	48.530000	855.000000	0.000000	132.000000	60.000000	0.000000	0.000000
2.190000	20.260000	48.600000	860.000000	0.000000	132.000000	60.000000	0.000000	7.000000
2.200000	20.260000	48.600000	839.000000	0.000000	132.000000	60.000000	0.000000	0.000000
2.210000	20.350000	48.600000	833.000000	0.000000	132.000000	60.000000	9.000000	0.000000
2.220000	20.450000	48.600000	830.000000	0.000000	132.000000	60.000000	10.000000	0.000000
