t	x	y	pressure	penup	azimuth	inclination	v_x	v_y
0.000000	14.880000	33.450000	53.000000	1.000000	108.000000	58.000000	0.000000	0.000000
0.010000	14.880000	33.450000	88.000000	0.000000	108.000000	58.000000	0.000000	0.000000
0.020000	14.880000	33.450000	131.000000	0.000000	108.000000	58.000000	0.000000	0.000000
0.030000	14.880000	33.450000	181.000000	0.000000	108.000000	58.000000	0.000000	0.000000
0.040000	14.880000	33.450000	247.000000	0.000000	108.000000	58.000000	0.000000	0.000000
0.050000	14.880000	33.450000	292.000000	0.000000	108.000000	58.000000	0.000000	0.000000
0.060000	14.880000	33.450000	344.000000	0.000000	107.000000	57.000000	0.000000	0.000000
0.070000	14.880000	33.450000	381.000000	0.000000	107.000000	57.000000	0.000000	0.000000
0.080000	14.880000	33.450000	413.000000	0.000000	107.000000	57.000000	0.000000	0.000000
0.090000	14.880000	33.450000	430.000000	0.000000	107.000000	57.000000	0.000000	0.000000
0.100000	14.880000	33.450000	447.000000	0.000000	107.000000	57.000000	0.000000	0.000000
0.110000	14.880000	33.450000	474.000000	0.000000	107.000000	57.000000	0.000000	0.000000
0.120000	14.880000	33.450000	496.000000	0.000000	107.000000	57.000000	0.000000	0.000000
0.130000	14.880000	33.450000	521.000000	0.000000	107.000000	57.000000	0.000000	0.000000
0.140000	14.880000	33.450000	554.000000	0.000000	107.000000	57.000000	0.000000	0.000000
0.150000	14.880000	33.450000	578.000000	0.000000	107.000000	57.000000	0.000000	0.000000
0.160000	14.880000	33.450000	585.000000	0.000000	107.000000	57.000000	0.000000	0.000000
0.170000	14.940000	33.700000	597.000000	0.000000	107.000000	57.000000	6.000000	25.000000
0.180000	14.940000	33.700000	602.000000	0.000000	107.000000	57.000000	0.000000	0.000000
0.190000	14.940000	33.760000	603.000000	0.000000	107.000000	56.000000	0.000000	6.000000
0.200000	14.990000	33.760000	606.000000	0.000000	107.000000	56.000000	5.000000	0.000000
0.210000	14.990000	33.850000	614.000000	0.000000	107.000000	57.000000	0.000000	9.000000
0.220000	15.100000	33.930000	610.000000	0.000000	107.000000	57.000000	11.000000	8.000000
0.230000	15.250000	34.070000	614.000000	0.000000	107.000000	57.000000	15.000000	14.000000
0.240000	15.440000	34.240000	619.000000	0.000000	107.000000	57.000000	19.000000	17.000000
0.250000	15.650000	34.420000	622.000000	0.000000	107.000000	57.000000	21.000000	18.000000
0.260000	15.910000	34.670000	633.000000	0.000000	107.000000	57.000000	26.000000	25.000000
0.270000	16.220000	34.970000	641.000000	0.000000	106.000000	57.000000	31.000000	30.000000
0.280000	16.560000	35.310000	644.000000	0.000000	105.000000	56.000000	34.000000	34.000000
0.290000	16.910000	35.640000	647.000000	0.000000	105.000000	55.000000	35.000000	33.000000
0.300000	17.220000	36.030000	658.000000	0.000000	105.000000	55.000000	31.000000	39.000000
0.310000	17.500000	36.480000	659.000000	0.000000	106.000000	54.000000	28.000000	45.000000
0.320000	17.830000	36.970000	664.000000	0.000000	105.000000	53.000000	33.000000	49.000000
0.330000	18.150000	37.510000	667.000000	0.000000	105.000000	53.000000	32.000000	54.000000
0.340000	18.380000	38.010000	671.000000	0.000000	106.000000	53.000000	23.000000	50.000000
0.350000	18.560000	38.430000	671.000000	0.000000	106.000000	52.000000	18.000000	42.000000
0.360000	18.640000	38.840000	673.000000	0.000000	107.000000	52.000000	8.000000	41.000000
0.370000	18.640000	39.270000	671.000000	0.000000	108.000000	52.000000	0.000000	43.000000
0.380000	18.640000	39.640000	665.000000	0.000000	108.000000	52.000000	0.000000	37.000000
0.390000	18.580000	39.990000	667.000000	0.000000	108.000000	52.000000	-6.000000	35.000000
0.400000	18.480000	40.270000	667.000000	0.000000	110.000000	51.000000	-10.000000	28.000000
0.410000	18.350000	40.430000	670.000000	0.000000	110.000000	51.000000	-13.000000	16.000000
0.420000	18.200000	40.510000	670.000000	0.000000	111.000000	51.000000	-15.000000	8.000000
0.430000	18.060000	40.510000	668.000000	0.000000	111.000000	51.000000	-14.000000	0.000000
0.440000	17.940000	40.570000	667.000000	0.000000	111.000000	51.000000	-12.000000	6.000000
0.450000	17.830000	40.570000	658.000000	0.000000	112.000000	51.000000	-11.000000	0.000000
0.460000	17.700000	40.440000	656.000000	0.000000	112.000000	51.000000	-13.000000	-13.000000
0.470000	17.560000	40.260000	653.000000	0.000000	112.000000	51.000000	-14.000000	-18.000000
0.480000	17.500000	40.060000	653.000000	0.000000	112.000000	51.000000	-6.000000	-20.000000
0.490000	17.500000	39.830000	655.000000	0.000000	112.000000	51.000000	0.000000	-23.000000
0.500000	17.450000	39.550000	655.000000	0.000000	112.000000	51.000000	-5.000000	-28.000000
0.510000	17.450000	39.220000	653.000000	0.000000	112.000000	51.000000	0.000000	-33.000000
0.520000	17.450000	38.780000	655.000000	0.000000	111.000000	50.000000	0.000000	-44.000000
0.530000	17.500000	38.280000	656.000000	0.000000	110.000000	50.000000	5.000000	-50.000000
0.540000	17.560000	37.780000	661.000000	0.000000	110.000000	50.000000	6.000000	-50.000000
0.550000	17.710000	37.250000	662.000000	0.000000	111.000000	51.000000	15.000000	-53.000000
0.560000	17.860000	36.800000	665.000000	0.000000	110.000000	51.000000	15.000000	-45.000000
0.570000	17.990000	36.400000	668.000000	0.000000	110.000000	51.000000	13.000000	-40.000000
0.580000	18.210000	36.000000	670.000000	0.000000	108.000000	52.000000	22.000000	-40.000000
0.590000	18.430000	35.610000	664.000000	0.000000	108.000000	52.000000	22.000000	-39.000000
0.600000	18.660000	35.230000	666.000000	0.000000	108.000000	53.000000	23.000000	-38.000000
0.610000	18.880000	34.780000	667.000000	0.000000	106.000000	53.000000	22.000000	-45.000000
0.620000	19.060000	34.360000	669.000000	0.000000	106.000000	53.000000	18.000000	-42.000000
0.630000	19.200000	33.950000	675.000000	0.000000	106.000000	53.000000	14.000000	-41.000000
0.640000	19.390000	33.370000	682.000000	0.000000	107.000000	54.000000	19.000000	-58.000000
0.650000	19.550000	32.830000	684.000000	0.000000	107.000000	54.000000	16.000000	-54.000000
0.660000	19.650000	32.320000	690.000000	0.000000	107.000000	54.000000	10.000000	-51.000000
0.670000	19.720000	31.880000	694.000000	0.000000	107.000000	54.000000	7.000000	-44.000000
0.680000	19.780000	31.430000	699.000000	0.000000	107.000000	54.000000	6.000000	-45.000000
0.690000	19.780000	30.960000	705.000000	0.000000	107.000000	54.000000	0.000000	-47.000000
0.700000	19.840000	30.590000	717.000000	0.000000	107.000000	54.000000	6.000000	-37.000000
0.710000	19.840000	30.290000	733.000000	0.000000	108.000000	54.000000	0.000000	-30.000000
0.720000	19.760000	29.950000	748.000000	0.000000	108.000000	54.000000	-8.000000	-34.000000
0.730000	19.640000	29.660000	755.000000	0.000000	108.000000	54.000000	-12.000000	-29.000000
0.740000	19.460000	29.450000	763.000000	0.000000	108.000000	54.000000	-18.000000	-21.000000
0.750000	19.250000	29.280000	776.000000	0.000000	108.000000	54.000000	-21.000000	-17.000000
0.760000	19.000000	29.200000	790.000000	0.000000	108.000000	54.000000	-25.000000	-8.000000
0.770000	18.730000	29.200000	796.000000	0.000000	108.000000	54.000000	-27.000000	0.000000
0.780000	18.280000	29.200000	787.000000	0.000000	108.000000	54.000000	-45.000000	0.000000
0.790000	17.830000	29.430000	794.000000	0.000000	108.000000	54.000000	-45.000000	23.000000
0.800000	17.390000	29.680000	763.000000	0.000000	108.000000	54.000000	-44.000000	25.000000
0.810000	16.960000	29.960000	750.000000	0.000000	108.000000	54.000000	-43.000000	28.000000
0.820000	16.650000	30.170000	690.000000	0.000000	108.000000	53.000000	-31.000000	21.000000
0.830000	16.420000	30.360000	614.000000	0.000000	108.000000	53.000000	-23.000000	19.000000
0.840000	16.270000	30.540000	369.000000	0.000000	108.000000	53.000000	-15.000000	18.000000
0.850000	16.330000	30.720000	36.000000	0.000000	107.000000	52.000000	6.000000	18.000000
0.860000	16.330000	30.720000	0.000000	1.000000	107.000000	52.000000	0.000000	0.000000
0.870000	16.850000	31.070000	0.000000	0.000000	107.000000	52.000000	52.000000	35.000000
0.880000	17.180000	31.230000	0.000000	0.000000	107.000000	52.000000	33.000000	16.000000
0.890000	17.520000	31.390000	0.000000	0.000000	107.000000	52.000000	34.000000	16.000000
0.900000	18.080000	31.530000	0.000000	0.000000	107.000000	52.000000	56.000000	14.000000
0.910000	18.680000	31.730000	0.000000	0.000000	107.000000	52.000000	60.000000	20.000000
0.920000	19.350000	31.970000	0.000000	0.000000	107.000000	52.000000	67.000000	24.000000
0.930000	20.070000	32.230000	0.000000	0.000000	107.000000	52.000000	72.000000	26.000000
0.940000	20.780000	32.520000	0.000000	0.000000	107.000000	52.000000	71.000000	29.000000
0.950000	21.340000	32.820000	0.000000	0.000000	107.000000	52.000000	56.000000	30.000000
0.960000	21.800000	33.060000	0.000000	0.000000	107.000000	52.000000	46.000000	24.000000
0.970000	22.150000	33.320000	0.000000	0.000000	107.000000	52.000000	35.000000	26.000000
0.980000	22.430000	33.560000	0.000000	0.000000	107.000000	52.000000	28.000000	24.000000
0.990000	22.650000	33.720000	0.000000	0.000000	107.000000	52.000000	22.000000	16.000000
1.000000	22.780000	33.830000	0.000000	0.000000	107.000000	52.000000	13.000000	11.000000
1.010000	22.830000	33.910000	0.000000	0.000000	107.000000	52.000000	5.000000	8.000000
1.020000	22.830000	33.960000	0.000000	0.000000	108.000000	53.000000	0.000000	5.000000
1.030000	22.760000	34.040000	0.000000	0.000000	108.000000	53.000000	-7.000000	8.000000
1.040000	22.700000	34.140000	0.000000	0.000000	108.000000	53.000000	-6.000000	10.000000
1.050000	22.610000	34.260000	0.000000	0.000000	108.000000	53.000000	-9.000000	12.000000
1.060000	22.500000	34.370000	0.000000	0.000000	107.000000	52.000000	-11.000000	11.000000
1.070000	22.500000	34.450000	0.000000	0.000000	107.000000	52.000000	0.000000	8.000000
1.080000	22.440000	34.450000	0.000000	0.000000	106.000000	53.000000	-6.000000	0.000000
1.090000	22.440000	34.520000	0.000000	0.000000	106.000000	53.000000	0.000000	7.000000
1.100000	22.440000	34.520000	0.000000	0.000000	106.000000	53.000000	0.000000	0.000000
1.110000	22.380000	34.600000	0.000000	0.000000	106.000000	53.000000	-6.000000	8.000000
1.120000	22.380000	34.670000	0.000000	0.000000	106.000000	53.000000	0.000000	7.000000
1.130000	22.290000	34.750000	0.000000	0.000000	106.000000	53.000000	-9.000000	8.000000
1.140000	22.190000	34.840000	0.000000	0.000000	106.000000	53.000000	-10.000000	9.000000
1.150000	22.110000	34.910000	0.000000	0.000000	106.000000	53.000000	-8.000000	7.000000
1.160000	22.040000	34.990000	0.000000	0.000000	106.000000	53.000000	-7.000000	8.000000
1.170000	21.940000	35.060000	0.000000	0.000000	106.000000	53.000000	-10.000000	7.000000
1.180000	21.870000	35.140000	0.000000	0.000000	106.000000	53.000000	-7.000000	8.000000
1.190000	21.870000	35.230000	0.000000	0.000000	106.000000	53.000000	0.000000	9.000000
1.200000	21.760000	35.290000	0.000000	0.000000	105.000000	53.000000	-11.000000	6.000000
1.210000	21.660000	35.350000	0.000000	0.000000	105.000000	53.000000	-10.000000	6.000000
1.220000	21.590000	35.400000	0.000000	0.000000	105.000000	53.000000	-7.000000	5.000000
1.230000	21.510000	35.460000	0.000000	0.000000	105.000000	53.000000	-8.000000	6.000000
1.240000	21.430000	35.540000	0.000000	0.000000	104.000000	53.000000	-8.000000	8.000000
1.250000	21.380000	35.620000	0.000000	0.000000	104.000000	53.000000	-5.000000	8.000000
1.260000	21.380000	35.750000	0.000000	0.000000	104.000000	53.000000	0.000000	13.000000
1.270000	21.380000	35.920000	0.000000	0.000000	104.000000	54.000000	0.000000	17.000000
1.280000	21.440000	36.070000	0.000000	0.000000	104.000000	54.000000	6.000000	15.000000
1.290000	21.510000	36.200000	0.000000	0.000000	106.000000	54.000000	7.000000	13.000000
1.300000	21.510000	36.290000	0.000000	0.000000	106.000000	54.000000	0.000000	9.000000
1.310000	21.590000	36.360000	0.000000	0.000000	106.000000	54.000000	8.000000	7.000000
1.320000	21.590000	36.360000	20.000000	1.000000	106.000000	55.000000	0.000000	0.000000
1.330000	21.590000	36.360000	61.000000	0.000000	107.000000	55.000000	0.000000	0.000000
1.340000	21.590000	36.360000	139.000000	0.000000	107.000000	55.000000	0.000000	0.000000
1.350000	21.590000	36.620000	205.000000	0.000000	107.000000	55.000000	0.000000	26.000000
1.360000	21.590000	36.680000	282.000000	0.000000	107.000000	55.000000	0.000000	6.000000
1.370000	21.590000	36.680000	351.000000	0.000000	109.000000	55.000000	0.000000	0.000000
1.380000	21.540000	36.680000	397.000000	0.000000	109.000000	55.000000	-5.000000	0.000000
1.390000	21.470000	36.730000	449.000000	0.000000	109.000000	55.000000	-7.000000	5.000000
1.400000	21.370000	36.730000	477.000000	0.000000	109.000000	55.000000	-10.000000	0.000000
1.410000	21.300000	36.730000	494.000000	0.000000	109.000000	55.000000	-7.000000	0.000000
1.420000	21.200000	36.730000	512.000000	0.000000	109.000000	55.000000	-10.000000	0.000000
1.430000	21.080000	36.730000	538.000000	0.000000	109.000000	55.000000	-12.000000	0.000000
1.440000	20.960000	36.640000	550.000000	0.000000	110.000000	54.000000	-12.000000	-9.000000
1.450000	20.790000	36.560000	565.000000	0.000000	110.000000	54.000000	-17.000000	-8.000000
1.460000	20.580000	36.470000	578.000000	0.000000	110.000000	54.000000	-21.000000	-9.000000
1.470000	20.330000	36.330000	594.000000	0.000000	109.000000	55.000000	-25.000000	-14.000000
1.480000	20.070000	36.120000	603.000000	0.000000	109.000000	55.000000	-26.000000	-21.000000
1.490000	19.810000	35.940000	622.000000	0.000000	109.000000	55.000000	-26.000000	-18.000000
1.500000	19.620000	35.770000	627.000000	0.000000	108.000000	54.000000	-19.000000	-17.000000
1.510000	19.450000	35.600000	631.000000	0.000000	107.000000	54.000000	-17.000000	-17.000000
1.520000	19.290000	35.380000	638.000000	0.000000	107.000000	54.000000	-16.000000	-22.000000
1.530000	19.130000	35.160000	641.000000	0.000000	107.000000	54.000000	-16.000000	-22.000000
1.540000	18.990000	34.910000	636.000000	0.000000	106.000000	54.000000	-14.000000	-25.000000
1.550000	18.880000	34.630000	640.000000	0.000000	106.000000	54.000000	-11.000000	-28.000000
1.560000	18.780000	34.360000	644.000000	0.000000	106.000000	54.000000	-10.000000	-27.000000
1.570000	18.710000	34.150000	646.000000	0.000000	106.000000	54.000000	-7.000000	-21.000000
1.580000	18.710000	33.900000	655.000000	0.000000	106.000000	54.000000	0.000000	-25.000000
1.590000	18.710000	33.600000	662.000000	0.000000	106.000000	54.000000	0.000000	-30.000000
1.600000	18.710000	33.260000	664.000000	0.000000	106.000000	54.000000	0.000000	-34.000000
1.610000	18.710000	32.910000	662.000000	0.000000	106.000000	54.000000	0.000000	-35.000000
1.620000	18.800000	32.560000	668.000000	0.000000	105.000000	53.000000	9.000000	-35.000000
1.630000	18.880000	32.180000	668.000000	0.000000	105.000000	53.000000	8.000000	-38.000000
1.640000	18.990000	31.770000	671.000000	0.000000	106.000000	53.000000	11.000000	-41.000000
1.650000	19.090000	31.480000	670.000000	0.000000	106.000000	53.000000	10.000000	-29.000000
1.660000	19.200000	31.270000	662.000000	0.000000	106.000000	53.000000	11.000000	-21.000000
1.670000	19.410000	31.030000	673.000000	0.000000	106.000000	53.000000	21.000000	-24.000000
1.680000	19.640000	30.820000	667.000000	0.000000	106.000000	53.000000	23.000000	-21.000000
1.690000	19.930000	30.700000	664.000000	0.000000	108.000000	53.000000	29.000000	-12.000000
1.700000	20.270000	30.640000	666.000000	0.000000	108.000000	54.000000	34.000000	-6.000000
1.710000	20.780000	30.640000	664.000000	0.000000	108.000000	54.000000	51.000000	0.000000
1.720000	21.410000	30.830000	667.000000	0.000000	108.000000	54.000000	63.000000	19.000000
1.730000	22.070000	31.090000	666.000000	0.000000	109.000000	55.000000	66.000000	26.000000
1.740000	22.720000	31.420000	664.000000	0.000000	107.000000	55.000000	65.000000	33.000000
1.750000	23.270000	31.740000	668.000000	0.000000	107.000000	55.000000	55.000000	32.000000
1.760000	23.770000	32.040000	656.000000	0.000000	107.000000	55.000000	50.000000	30.000000
1.770000	24.090000	32.190000	624.000000	0.000000	107.000000	55.000000	32.000000	15.000000
1.780000	24.260000	32.240000	540.000000	0.000000	107.000000	55.000000	17.000000	5.000000
1.790000	24.320000	32.240000	417.000000	0.000000	106.000000	55.000000	6.000000	0.000000
1.800000	24.240000	32.240000	95.000000	0.000000	106.000000	55.000000	-8.000000	0.000000
1.810000	24.240000	32.240000	0.000000	1.000000	106.000000	55.000000	0.000000	0.000000
1.820000	24.040000	32.170000	0.000000	0.000000	106.000000	55.000000	-20.000000	-7.000000
1.830000	23.860000	32.120000	0.000000	0.000000	106.000000	55.000000	-18.000000	-5.000000
1.840000	23.810000	32.070000	0.000000	0.000000	106.000000	55.000000	-5.000000	-5.000000
1.850000	23.810000	32.180000	0.000000	0.000000	106.000000	55.000000	0.000000	11.000000
1.860000	23.950000	32.390000	0.000000	0.000000	106.000000	55.000000	14.000000	21.000000
1.870000	24.150000	32.580000	0.000000	0.000000	106.000000	55.000000	20.000000	19.000000
1.880000	24.420000	32.800000	0.000000	0.000000	106.000000	55.000000	27.000000	22.000000
1.890000	24.700000	33.040000	0.000000	0.000000	106.000000	55.000000	28.000000	24.000000
1.900000	24.980000	33.230000	0.000000	0.000000	106.000000	55.000000	28.000000	19.000000
1.910000	25.250000	33.430000	0.000000	0.000000	106.000000	55.000000	27.000000	20.000000
1.920000	25.450000	33.580000	0.000000	0.000000	107.000000	56.000000	20.000000	15.000000
1.930000	25.620000	33.730000	0.000000	0.000000	107.000000	56.000000	17.000000	15.000000
1.940000	25.780000	33.890000	0.000000	0.000000	107.000000	57.000000	16.000000	16.000000
1.950000	25.940000	34.080000	0.000000	0.000000	107.000000	57.000000	16.000000	19.000000
1.960000	26.090000	34.260000	0.000000	0.000000	106.000000	57.000000	15.000000	18.000000
1.970000	26.220000	34.420000	0.000000	0.000000	106.000000	57.000000	13.000000	16.000000
1.980000	26.340000	34.530000	0.000000	0.000000	106.000000	57.000000	12.000000	11.000000
1.990000	26.390000	34.610000	0.000000	0.000000	106.000000	57.000000	5.000000	8.000000
2.000000	26.390000	34.610000	0.000000	0.000000	106.000000	57.000000	0.000000	0.000000
2.010000	26.390000	34.610000	0.000000	0.000000	105.000000	56.000000	0.000000	0.000000
2.020000	26.390000	34.700000	0.000000	0.000000	105.000000	56.000000	0.000000	9.000000
2.030000	26.450000	34.820000	0.000000	0.000000	105.000000	55.000000	6.000000	12.000000
2.040000	26.500000	34.920000	0.000000	0.000000	103.000000	54.000000	5.000000	10.000000
2.050000	26.500000	34.920000	25.000000	1.000000	103.000000	54.000000	0.000000	0.000000
2.060000	26.500000	34.920000	50.000000	0.000000	102.000000	53.000000	0.000000	0.000000
2.070000	26.500000	34.920000	98.000000	0.000000	102.000000	53.000000	0.000000	0.000000
2.080000	26.500000	34.920000	108.000000	0.000000	102.000000	53.000000	0.000000	0.000000
2.090000	26.500000	34.920000	127.000000	0.000000	102.000000	53.000000	0.000000	0.000000
2.100000	26.240000	35.060000	131.000000	0.000000	103.000000	54.000000	-26.000000	14.000000
2.110000	26.170000	35.060000	153.000000	0.000000	103.000000	54.000000	-7.000000	0.000000
2.120000	26.080000	35.060000	168.000000	0.000000	103.000000	55.000000	-9.000000	0.000000
2.130000	25.980000	34.990000	208.000000	0.000000	104.000000	56.000000	-10.000000	-7.000000
2.140000	25.880000	34.990000	246.000000	0.000000	104.000000	56.000000	-10.000000	0.000000
2.150000	25.760000	34.940000	275.000000	0.000000	104.000000	57.000000	-12.000000	-5.000000
2.160000	25.640000	34.940000	301.000000	0.000000	104.000000	57.000000	-12.000000	0.000000
2.170000	25.540000	34.940000	327.000000	0.000000	104.000000	57.000000	-10.000000	0.000000
2.180000	25.400000	34.940000	334.000000	0.000000	104.000000	57.000000	-14.000000	0.000000
2.190000	25.240000	34.860000	359.000000	0.000000	104.000000	57.000000	-16.000000	-8.000000
2.200000	25.130000	34.790000	364.000000	0.000000	104.000000	57.000000	-11.000000	-7.000000
2.210000	25.020000	34.710000	369.000000	0.000000	104.000000	57.000000	-11.000000	-8.000000
2.220000	24.890000	34.610000	377.000000	0.000000	104.000000	57.000000	-13.000000	-10.000000
