t	x	y	pressure	penup	azimuth	inclination	v_x	v_y
0.000000	91.840000	77.010000	265.000000	1.000000	145.000000	60.000000	0.000000	0.000000
0.010000	91.840000	76.500000	389.000000	0.000000	146.000000	62.000000	0.000000	-51.000000
0.020000	91.730000	76.290000	440.000000	0.000000	146.000000	62.000000	-11.000000	-21.000000
0.030000	91.730000	76.050000	527.000000	0.000000	146.000000	63.000000	0.000000	-24.000000
0.040000	91.840000	75.950000	605.000000	0.000000	146.000000	63.000000	11.000000	-10.000000
0.050000	92.050000	75.950000	650.000000	0.000000	146.000000	63.000000	21.000000	0.000000
0.060000	92.320000	76.080000	663.000000	0.000000	145.000000	64.000000	27.000000	13.000000
0.070000	92.700000	76.590000	697.000000	0.000000	145.000000	64.000000	38.000000	51.000000
0.080000	93.160000	77.350000	720.000000	0.000000	145.000000	64.000000	46.000000	76.000000
0.090000	93.540000	78.330000	748.000000	0.000000	145.000000	64.000000	38.000000	98.000000
0.100000	93.800000	79.700000	770.000000	0.000000	143.000000	63.000000	26.000000	137.000000
0.110000	93.990000	81.340000	806.000000	0.000000	141.000000	63.000000	19.000000	164.000000
0.120000	93.870000	82.630000	827.000000	0.000000	143.000000	62.000000	-12.000000	129.000000
0.130000	93.670000	83.510000	860.000000	0.000000	141.000000	61.000000	-20.000000	88.000000
0.140000	93.420000	84.110000	896.000000	0.000000	141.000000	61.000000	-25.000000	60.000000
0.150000	93.260000	84.430000	942.000000	0.000000	141.000000	61.000000	-16.000000	32.000000
0.160000	93.110000	84.520000	948.000000	0.000000	139.000000	61.000000	-15.000000	9.000000
0.170000	92.990000	84.450000	948.000000	0.000000	141.000000	60.000000	-12.000000	-7.000000
0.180000	92.930000	84.140000	950.000000	0.000000	141.000000	60.000000	-6.000000	-31.000000
0.190000	92.930000	83.520000	945.000000	0.000000	141.000000	60.000000	0.000000	-62.000000
0.200000	93.110000	82.700000	942.000000	0.000000	141.000000	60.000000	18.000000	-82.000000
0.210000	93.470000	81.870000	923.000000	0.000000	142.000000	59.000000	36.000000	-83.000000
0.220000	94.180000	81.040000	899.000000	0.000000	141.000000	60.000000	71.000000	-83.000000
0.230000	94.930000	80.200000	893.000000	0.000000	141.000000	60.000000	75.000000	-84.000000
0.240000	95.610000	79.420000	857.000000	0.000000	141.000000	60.000000	68.000000	-78.000000
0.250000	96.230000	78.620000	814.000000	0.000000	139.000000	61.000000	62.000000	-80.000000
0.260000	96.500000	77.970000	779.000000	0.000000	139.000000	61.000000	27.000000	-65.000000
0.270000	96.500000	77.430000	760.000000	0.000000	139.000000	61.000000	0.000000	-54.000000
0.280000	96.420000	77.070000	751.000000	0.000000	138.000000	61.000000	-8.000000	-36.000000
0.290000	95.890000	76.820000	756.000000	0.000000	138.000000	61.000000	-53.000000	-25.000000
0.300000	95.060000	76.650000	770.000000	0.000000	138.000000	61.000000	-83.000000	-17.000000
0.310000	94.020000	76.590000	788.000000	0.000000	138.000000	61.000000	-104.000000	-6.000000
0.320000	92.790000	76.640000	855.000000	0.000000	138.000000	61.000000	-123.000000	5.000000
0.330000	91.980000	76.770000	903.000000	0.000000	136.000000	61.000000	-81.000000	13.000000
0.340000	91.440000	77.040000	914.000000	0.000000	136.000000	61.000000	-54.000000	27.000000
0.350000	91.310000	77.350000	944.000000	0.000000	135.000000	60.000000	-13.000000	31.000000
0.360000	91.710000	77.680000	961.000000	0.000000	135.000000	60.000000	40.000000	33.000000
0.370000	92.460000	78.300000	992.000000	0.000000	135.000000	60.000000	75.000000	62.000000
0.380000	94.100000	79.140000	1000.000000	0.000000	134.000000	60.000000	164.000000	84.000000
0.390000	96.040000	80.140000	1023.000000	0.000000	135.000000	60.000000	194.000000	100.000000
0.400000	98.170000	81.090000	1023.000000	0.000000	135.000000	60.000000	213.000000	95.000000
0.410000	100.240000	81.880000	1023.000000	0.000000	135.000000	60.000000	207.000000	79.000000
0.420000	101.860000	82.570000	1023.000000	0.000000	135.000000	60.000000	162.000000	69.000000
0.430000	103.180000	83.190000	1023.000000	0.000000	138.000000	60.000000	132.000000	62.000000
0.440000	104.330000	83.780000	982.000000	0.000000	136.000000	61.000000	115.000000	59.000000
0.450000	105.080000	84.300000	941.000000	0.000000	136.000000	61.000000	75.000000	52.000000
0.460000	105.550000	84.640000	827.000000	0.000000	136.000000	61.000000	47.000000	34.000000
0.470000	105.550000	84.880000	588.000000	0.000000	136.000000	61.000000	0.000000	24.000000
0.480000	105.550000	84.880000	0.000000	1.000000	136.000000	61.000000	0.000000	0.000000
0.490000	103.900000	84.400000	0.000000	0.000000	136.000000	61.000000	-165.000000	-48.000000
0.500000	102.330000	84.100000	0.000000	0.000000	136.000000	61.000000	-157.000000	-30.000000
0.510000	100.770000	83.540000	0.000000	0.000000	136.000000	61.000000	-156.000000	-56.000000
0.520000	99.200000	82.950000	0.000000	0.000000	138.000000	61.000000	-157.000000	-59.000000
0.530000	97.960000	82.300000	0.000000	0.000000	138.000000	61.000000	-124.000000	-65.000000
0.540000	96.940000	81.650000	0.000000	0.000000	138.000000	61.000000	-102.000000	-65.000000
0.550000	96.340000	81.010000	0.000000	0.000000	138.000000	61.000000	-60.000000	-64.000000
0.560000	96.000000	80.470000	0.000000	0.000000	137.000000	62.000000	-34.000000	-54.000000
0.570000	95.830000	80.010000	0.000000	0.000000	137.000000	62.000000	-17.000000	-46.000000
0.580000	95.830000	79.610000	0.000000	0.000000	137.000000	62.000000	0.000000	-40.000000
0.590000	95.910000	79.340000	0.000000	0.000000	137.000000	62.000000	8.000000	-27.000000
0.600000	96.190000	79.160000	0.000000	0.000000	137.000000	62.000000	28.000000	-18.000000
0.610000	96.590000	79.090000	0.000000	0.000000	137.000000	62.000000	40.000000	-7.000000
0.620000	97.020000	79.140000	0.000000	0.000000	138.000000	63.000000	43.000000	5.000000
0.630000	97.480000	79.270000	0.000000	0.000000	138.000000	63.000000	46.000000	13.000000
0.640000	97.480000	79.270000	13.000000	0.000000	138.000000	63.000000	0.000000	0.000000
0.650000	98.460000	79.620000	182.000000	1.000000	141.000000	63.000000	0.000000	0.000000
0.660000	98.810000	79.870000	249.000000	0.000000	141.000000	63.000000	35.000000	25.000000
0.670000	99.080000	80.170000	330.000000	0.000000	141.000000	63.000000	27.000000	30.000000
0.680000	99.470000	80.660000	422.000000	0.000000	140.000000	63.000000	39.000000	49.000000
0.690000	99.740000	81.150000	496.000000	0.000000	140.000000	63.000000	27.000000	49.000000
0.700000	99.940000	81.620000	667.000000	0.000000	138.000000	63.000000	20.000000	47.000000
0.710000	99.940000	81.950000	746.000000	0.000000	138.000000	63.000000	0.000000	33.000000
0.720000	99.800000	82.190000	821.000000	0.000000	137.000000	62.000000	-14.000000	24.000000
0.730000	99.530000	82.260000	840.000000	0.000000	137.000000	62.000000	-27.000000	7.000000
0.740000	99.130000	82.260000	861.000000	0.000000	138.000000	61.000000	-40.000000	0.000000
0.750000	98.520000	82.010000	881.000000	0.000000	136.000000	61.000000	-61.000000	-25.000000
0.760000	97.770000	81.560000	905.000000	0.000000	136.000000	61.000000	-75.000000	-45.000000
0.770000	96.990000	80.880000	911.000000	0.000000	139.000000	61.000000	-78.000000	-68.000000
0.780000	96.240000	80.100000	932.000000	0.000000	139.000000	61.000000	-75.000000	-78.000000
0.790000	95.830000	79.260000	932.000000	0.000000	139.000000	61.000000	-41.000000	-84.000000
0.800000	95.630000	78.560000	915.000000	0.000000	141.000000	61.000000	-20.000000	-70.000000
0.810000	95.690000	78.110000	902.000000	0.000000	141.000000	61.000000	6.000000	-45.000000
0.820000	96.040000	77.820000	872.000000	0.000000	140.000000	62.000000	35.000000	-29.000000
0.830000	96.590000	77.650000	846.000000	0.000000	140.000000	62.000000	55.000000	-17.000000
0.840000	97.330000	77.650000	809.000000	0.000000	138.000000	61.000000	74.000000	0.000000
0.850000	97.950000	77.780000	774.000000	0.000000	138.000000	61.000000	62.000000	13.000000
0.860000	98.500000	77.960000	739.000000	0.000000	138.000000	61.000000	55.000000	18.000000
0.870000	98.990000	78.190000	693.000000	0.000000	138.000000	61.000000	49.000000	23.000000
0.880000	99.380000	78.450000	641.000000	0.000000	138.000000	61.000000	39.000000	26.000000
0.890000	99.700000	78.820000	641.000000	0.000000	138.000000	61.000000	32.000000	37.000000
0.900000	99.950000	79.180000	666.000000	0.000000	138.000000	61.000000	25.000000	36.000000
0.910000	100.060000	79.500000	724.000000	0.000000	138.000000	61.000000	11.000000	32.000000
0.920000	100.060000	79.740000	787.000000	0.000000	136.000000	61.000000	0.000000	24.000000
0.930000	100.060000	79.880000	834.000000	0.000000	136.000000	61.000000	0.000000	14.000000
0.940000	99.970000	79.970000	855.000000	0.000000	136.000000	61.000000	-9.000000	9.000000
0.950000	99.860000	79.970000	869.000000	0.000000	135.000000	62.000000	-11.000000	0.000000
0.960000	99.600000	79.970000	870.000000	0.000000	134.000000	61.000000	-26.000000	0.000000
0.970000	99.250000	79.660000	885.000000	0.000000	134.000000	61.000000	-35.000000	-31.000000
0.980000	98.830000	79.230000	900.000000	0.000000	134.000000	61.000000	-42.000000	-43.000000
0.990000	98.510000	78.760000	899.000000	0.000000	135.000000	62.000000	-32.000000	-47.000000
1.000000	98.240000	78.360000	896.000000	0.000000	135.000000	62.000000	-27.000000	-40.000000
1.010000	98.170000	78.140000	873.000000	0.000000	135.000000	62.000000	-7.000000	-22.000000
1.020000	98.220000	78.010000	858.000000	0.000000	137.000000	62.000000	5.000000	-13.000000
1.030000	98.390000	78.010000	854.000000	0.000000	138.000000	61.000000	17.000000	0.000000
1.040000	98.690000	78.070000	860.000000	0.000000	138.000000	61.000000	30.000000	6.000000
1.050000	99.070000	78.270000	864.000000	0.000000	138.000000	61.000000	38.000000	20.000000
1.060000	99.330000	78.400000	855.000000	0.000000	138.000000	61.000000	26.000000	13.000000
1.070000	99.460000	78.470000	863.000000	0.000000	138.000000	61.000000	13.000000	7.000000
1.080000	99.510000	78.470000	870.000000	0.000000	138.000000	61.000000	5.000000	0.000000
1.090000	99.510000	78.330000	864.000000	0.000000	138.000000	61.000000	0.000000	-14.000000
1.100000	99.650000	78.150000	819.000000	0.000000	138.000000	61.000000	14.000000	-18.000000
1.110000	99.820000	77.970000	696.000000	0.000000	136.000000	61.000000	17.000000	-18.000000
1.120000	100.020000	77.800000	319.000000	0.000000	136.000000	61.000000	20.000000	-17.000000
1.130000	100.020000	77.800000	0.000000	1.000000	135.000000	62.000000	0.000000	0.000000
1.140000	100.240000	77.800000	0.000000	0.000000	134.000000	61.000000	22.000000	0.000000
1.150000	100.190000	78.000000	0.000000	0.000000	134.000000	61.000000	-5.000000	20.000000
1.160000	100.190000	78.370000	0.000000	0.000000	134.000000	61.000000	0.000000	37.000000
1.170000	100.110000	78.820000	0.000000	0.000000	135.000000	62.000000	-8.000000	45.000000
1.180000	100.110000	79.320000	0.000000	0.000000	135.000000	62.000000	0.000000	50.000000
1.190000	100.200000	79.880000	0.000000	0.000000	135.000000	62.000000	9.000000	56.000000
1.200000	100.280000	80.390000	0.000000	0.000000	137.000000	62.000000	8.000000	51.000000
1.210000	100.370000	80.660000	0.000000	0.000000	137.000000	62.000000	9.000000	27.000000
1.220000	100.370000	80.660000	337.000000	1.000000	137.000000	62.000000	0.000000	0.000000
1.230000	100.370000	80.660000	543.000000	0.000000	137.000000	62.000000	0.000000	0.000000
1.240000	100.380000	80.990000	561.000000	0.000000	135.000000	63.000000	1.000000	33.000000
1.250000	100.380000	81.090000	610.000000	0.000000	135.000000	63.000000	0.000000	10.000000
1.260000	100.530000	81.160000	667.000000	0.000000	135.000000	63.000000	15.000000	7.000000
1.270000	100.660000	81.160000	672.000000	0.000000	135.000000	63.000000	13.000000	0.000000
1.280000	100.760000	81.160000	675.000000	0.000000	135.000000	62.000000	10.000000	0.000000
1.290000	100.970000	80.970000	672.000000	0.000000	135.000000	62.000000	21.000000	-19.000000
1.300000	101.170000	80.770000	671.000000	0.000000	134.000000	61.000000	20.000000	-20.000000
1.310000	101.290000	80.540000	664.000000	0.000000	134.000000	61.000000	12.000000	-23.000000
1.320000	101.350000	80.300000	675.000000	0.000000	134.000000	61.000000	6.000000	-24.000000
1.330000	101.350000	80.060000	690.000000	0.000000	134.000000	61.000000	0.000000	-24.000000
1.340000	101.420000	79.820000	714.000000	0.000000	134.000000	61.000000	7.000000	-24.000000
1.350000	101.420000	79.610000	717.000000	0.000000	134.000000	61.000000	0.000000	-21.000000
1.360000	101.470000	79.410000	721.000000	0.000000	134.000000	61.000000	5.000000	-20.000000
1.370000	101.470000	79.150000	730.000000	0.000000	134.000000	61.000000	0.000000	-26.000000
1.380000	101.420000	79.010000	721.000000	0.000000	134.000000	61.000000	-5.000000	-14.000000
1.390000	101.420000	78.960000	736.000000	0.000000	134.000000	61.000000	0.000000	-5.000000
1.400000	101.350000	78.960000	757.000000	0.000000	134.000000	61.000000	-7.000000	0.000000
1.410000	101.230000	78.960000	752.000000	0.000000	135.000000	60.000000	-12.000000	0.000000
1.420000	101.050000	78.960000	724.000000	0.000000	135.000000	60.000000	-18.000000	0.000000
1.430000	100.870000	79.040000	703.000000	0.000000	135.000000	60.000000	-18.000000	8.000000
1.440000	100.750000	79.040000	620.000000	0.000000	136.000000	60.000000	-12.000000	0.000000
1.450000	100.750000	79.110000	391.000000	0.000000	136.000000	60.000000	0.000000	7.000000
1.460000	100.750000	79.110000	0.000000	1.000000	136.000000	60.000000	0.000000	0.000000
1.470000	100.810000	79.260000	0.000000	0.000000	136.000000	60.000000	6.000000	15.000000
1.480000	100.930000	79.430000	0.000000	0.000000	138.000000	60.000000	12.000000	17.000000
1.490000	101.090000	79.600000	0.000000	0.000000	139.000000	61.000000	16.000000	17.000000
1.500000	101.270000	79.750000	0.000000	0.000000	138.000000	61.000000	18.000000	15.000000
1.510000	101.440000	79.850000	0.000000	0.000000	138.000000	63.000000	17.000000	10.000000
1.520000	101.600000	79.850000	0.000000	0.000000	138.000000	64.000000	16.000000	0.000000
1.530000	101.700000	79.910000	0.000000	0.000000	138.000000	64.000000	10.000000	6.000000
1.540000	101.770000	79.910000	0.000000	0.000000	137.000000	65.000000	7.000000	0.000000
1.550000	101.770000	79.910000	0.000000	0.000000	137.000000	65.000000	0.000000	0.000000
1.560000	101.770000	79.910000	206.000000	1.000000	137.000000	65.000000	0.000000	0.000000
1.570000	101.770000	79.910000	412.000000	0.000000	137.000000	65.000000	0.000000	0.000000
1.580000	101.770000	79.910000	441.000000	0.000000	137.000000	65.000000	0.000000	0.000000
1.590000	101.770000	79.910000	494.000000	0.000000	137.000000	65.000000	0.000000	0.000000
1.600000	101.660000	80.020000	551.000000	0.000000	137.000000	65.000000	-11.000000	11.000000
1.610000	101.900000	80.130000	567.000000	0.000000	137.000000	65.000000	24.000000	11.000000
1.620000	102.280000	80.240000	574.000000	0.000000	135.000000	64.000000	38.000000	11.000000
1.630000	102.670000	80.340000	586.000000	0.000000	137.000000	63.000000	39.000000	10.000000
1.640000	102.900000	80.400000	609.000000	0.000000	135.000000	63.000000	23.000000	6.000000
1.650000	103.020000	80.400000	642.000000	0.000000	135.000000	63.000000	12.000000	0.000000
1.660000	103.020000	80.350000	684.000000	0.000000	135.000000	63.000000	0.000000	-5.000000
1.670000	102.890000	80.300000	703.000000	0.000000	133.000000	62.000000	-13.000000	-5.000000
1.680000	102.640000	80.240000	733.000000	0.000000	133.000000	62.000000	-25.000000	-6.000000
1.690000	102.380000	80.130000	739.000000	0.000000	133.000000	62.000000	-26.000000	-11.000000
1.700000	102.170000	80.030000	742.000000	0.000000	133.000000	62.000000	-21.000000	-10.000000
1.710000	102.070000	79.940000	722.000000	0.000000	135.000000	62.000000	-10.000000	-9.000000
1.720000	102.070000	79.840000	716.000000	0.000000	135.000000	62.000000	0.000000	-10.000000
1.730000	102.070000	79.740000	684.000000	0.000000	135.000000	62.000000	0.000000	-10.000000
1.740000	102.180000	79.640000	620.000000	0.000000	133.000000	62.000000	11.000000	-10.000000
1.750000	102.260000	79.530000	425.000000	0.000000	135.000000	63.000000	8.000000	-11.000000
1.760000	102.380000	79.420000	101.000000	0.000000	135.000000	63.000000	12.000000	-11.000000
1.770000	102.380000	79.420000	0.000000	1.000000	135.000000	63.000000	0.000000	0.000000
1.780000	102.640000	79.420000	0.000000	0.000000	137.000000	63.000000	26.000000	0.000000
1.790000	102.640000	79.520000	0.000000	0.000000	135.000000	64.000000	0.000000	10.000000
1.800000	102.640000	79.680000	0.000000	0.000000	137.000000	65.000000	0.000000	16.000000
1.810000	102.700000	79.860000	0.000000	0.000000	137.000000	65.000000	6.000000	18.000000
1.820000	102.700000	80.000000	0.000000	0.000000	135.000000	65.000000	0.000000	14.000000
1.830000	102.770000	80.130000	0.000000	0.000000	135.000000	65.000000	7.000000	13.000000
1.840000	102.770000	80.250000	0.000000	0.000000	135.000000	65.000000	0.000000	12.000000
1.850000	102.860000	80.340000	0.000000	0.000000	135.000000	65.000000	9.000000	9.000000
1.860000	102.860000	80.400000	0.000000	0.000000	135.000000	65.000000	0.000000	6.000000
1.870000	102.860000	80.400000	0.000000	0.000000	135.000000	65.000000	0.000000	0.000000
1.880000	102.860000	80.400000	0.000000	0.000000	135.000000	65.000000	0.000000	0.000000
1.890000	102.780000	80.400000	0.000000	0.000000	133.000000	65.000000	-8.000000	0.000000
1.900000	102.780000	80.320000	0.000000	0.000000	135.000000	65.000000	0.000000	-8.000000
1.910000	102.660000	80.230000	0.000000	0.000000	135.000000	65.000000	-12.000000	-9.000000
1.920000	102.550000	80.100000	0.000000	0.000000	135.000000	65.000000	-11.000000	-13.000000
1.930000	102.420000	79.920000	0.000000	0.000000	135.000000	65.000000	-13.000000	-18.000000
1.940000	102.420000	79.920000	267.000000	1.000000	137.000000	65.000000	0.000000	0.000000
1.950000	102.420000	79.920000	396.000000	0.000000	138.000000	65.000000	0.000000	0.000000
1.960000	102.420000	79.920000	447.000000	0.000000	138.000000	65.000000	0.000000	0.000000
1.970000	102.420000	79.920000	544.000000	0.000000	138.000000	65.000000	0.000000	0.000000
1.980000	102.420000	79.920000	557.000000	0.000000	138.000000	65.000000	0.000000	0.000000
1.990000	102.930000	80.190000	542.000000	0.000000	137.000000	65.000000	51.000000	27.000000
2.000000	103.240000	80.500000	530.000000	0.000000	137.000000	65.000000	31.000000	31.000000
2.010000	103.540000	80.860000	526.000000	0.000000	138.000000	64.000000	30.000000	36.000000
2.020000	103.650000	81.250000	561.000000	0.000000	137.000000	63.000000	11.000000	39.000000
2.030000	103.650000	81.450000	633.000000	0.000000	137.000000	63.000000	0.000000	20.000000
2.040000	103.510000	81.610000	653.000000	0.000000	137.000000	63.000000	-14.000000	16.000000
2.050000	103.230000	81.700000	693.000000	0.000000	137.000000	62.000000	-28.000000	9.000000
2.060000	102.850000	81.570000	763.000000	0.000000	137.000000	62.000000	-38.000000	-13.000000
2.070000	102.510000	81.300000	785.000000	0.000000	137.000000	62.000000	-34.000000	-27.000000
2.080000	102.200000	80.880000	806.000000	0.000000	138.000000	61.000000	-31.000000	-42.000000
2.090000	101.950000	80.430000	829.000000	0.000000	138.000000	61.000000	-25.000000	-45.000000
2.100000	101.860000	79.950000	824.000000	0.000000	136.000000	61.000000	-9.000000	-48.000000
2.110000	101.860000	79.510000	832.000000	0.000000	136.000000	61.000000	0.000000	-44.000000
2.120000	102.100000	79.200000	797.000000	0.000000	136.000000	61.000000	24.000000	-31.000000
2.130000	102.450000	78.960000	761.000000	0.000000	136.000000	61.000000	35.000000	-24.000000
2.140000	102.890000	78.820000	645.000000	0.000000	136.000000	61.000000	44.000000	-14.000000
2.150000	103.320000	78.820000	433.000000	0.000000	136.000000	61.000000	43.000000	0.000000
2.160000	103.660000	79.030000	5.000000	1.000000	136.000000	61.000000	0.000000	0.000000
2.170000	103.660000	79.030000	0.000000	0.000000	138.000000	61.000000	0.000000	0.000000
2.180000	104.010000	79.660000	0.000000	0.000000	138.000000	61.000000	35.000000	63.000000
2.190000	103.950000	80.150000	0.000000	0.000000	138.000000	61.000000	-6.000000	49.000000
2.200000	103.790000	80.550000	0.000000	0.000000	138.000000	63.000000	-16.000000	40.000000
