t	x	y	pressure	penup	azimuth	inclination	v_x	v_y
0.000000	20.880000	88.360000	36.000000	1.000000	119.000000	58.000000	0.000000	0.000000
0.010000	20.880000	88.360000	109.000000	0.000000	119.000000	58.000000	0.000000	0.000000
0.020000	20.880000	88.360000	149.000000	0.000000	120.000000	58.000000	0.000000	0.000000
0.030000	20.970000	88.580000	213.000000	0.000000	120.000000	58.000000	9.000000	22.000000
0.040000	20.890000	88.630000	251.000000	0.000000	121.000000	58.000000	-8.000000	5.000000
0.050000	20.810000	88.630000	285.000000	0.000000	121.000000	58.000000	-8.000000	0.000000
0.060000	20.750000	88.630000	294.000000	0.000000	121.000000	58.000000	-6.000000	0.000000
0.070000	20.600000	88.630000	309.000000	0.000000	121.000000	58.000000	-15.000000	0.000000
0.080000	20.400000	88.560000	309.000000	0.000000	121.000000	58.000000	-20.000000	-7.000000
0.090000	20.120000	88.370000	325.000000	0.000000	123.000000	58.000000	-28.000000	-19.000000
0.100000	19.840000	88.140000	339.000000	0.000000	123.000000	58.000000	-28.000000	-23.000000
0.110000	19.580000	87.860000	369.000000	0.000000	121.000000	58.000000	-26.000000	-28.000000
0.120000	19.340000	87.530000	377.000000	0.000000	121.000000	58.000000	-24.000000	-33.000000
0.130000	19.120000	87.130000	393.000000	0.000000	123.000000	59.000000	-22.000000	-40.000000
0.140000	18.930000	86.690000	396.000000	0.000000	121.000000	59.000000	-19.000000	-44.000000
0.150000	18.800000	86.230000	405.000000	0.000000	121.000000	59.000000	-13.000000	-46.000000
0.160000	18.740000	85.740000	417.000000	0.000000	121.000000	59.000000	-6.000000	-49.000000
0.170000	18.740000	85.330000	420.000000	0.000000	121.000000	59.000000	0.000000	-41.000000
0.180000	18.860000	84.960000	422.000000	0.000000	121.000000	59.000000	12.000000	-37.000000
0.190000	19.140000	84.650000	423.000000	0.000000	121.000000	59.000000	28.000000	-31.000000
0.200000	19.550000	84.470000	420.000000	0.000000	121.000000	59.000000	41.000000	-18.000000
0.210000	20.050000	84.390000	418.000000	0.000000	121.000000	59.000000	50.000000	-8.000000
0.220000	20.560000	84.460000	389.000000	0.000000	120.000000	58.000000	51.000000	7.000000
0.230000	21.080000	84.590000	317.000000	0.000000	120.000000	58.000000	52.000000	13.000000
0.240000	21.410000	84.770000	250.000000	0.000000	120.000000	58.000000	33.000000	18.000000
0.250000	21.630000	84.850000	108.000000	0.000000	120.000000	57.000000	22.000000	8.000000
0.260000	21.750000	84.910000	1.000000	1.000000	120.000000	57.000000	0.000000	0.000000
0.270000	21.750000	84.910000	0.000000	0.000000	120.000000	57.000000	0.000000	0.000000
0.280000	21.750000	84.970000	0.000000	0.000000	119.000000	56.000000	0.000000	6.000000
0.290000	21.810000	85.120000	0.000000	0.000000	119.000000	56.000000	6.000000	15.000000
0.300000	22.010000	85.280000	0.000000	0.000000	118.000000	57.000000	20.000000	16.000000
0.310000	22.310000	85.460000	0.000000	0.000000	118.000000	57.000000	30.000000	18.000000
0.320000	22.600000	85.630000	0.000000	0.000000	118.000000	57.000000	29.000000	17.000000
0.330000	22.900000	85.770000	0.000000	0.000000	118.000000	57.000000	30.000000	14.000000
0.340000	23.140000	85.920000	0.000000	0.000000	118.000000	57.000000	24.000000	15.000000
0.350000	23.340000	86.080000	0.000000	0.000000	118.000000	57.000000	20.000000	16.000000
0.360000	23.520000	86.260000	0.000000	0.000000	118.000000	57.000000	18.000000	18.000000
0.370000	23.670000	86.410000	0.000000	0.000000	118.000000	57.000000	15.000000	15.000000
0.380000	23.800000	86.520000	0.000000	0.000000	118.000000	57.000000	13.000000	11.000000
0.390000	23.860000	86.580000	0.000000	0.000000	118.000000	57.000000	6.000000	6.000000
0.400000	23.920000	86.580000	0.000000	0.000000	118.000000	57.000000	6.000000	0.000000
0.410000	23.920000	86.580000	108.000000	1.000000	118.000000	57.000000	0.000000	0.000000
0.420000	23.920000	86.580000	134.000000	0.000000	119.000000	58.000000	0.000000	0.000000
0.430000	23.640000	86.690000	148.000000	0.000000	119.000000	58.000000	-28.000000	11.000000
0.440000	23.530000	86.740000	180.000000	0.000000	117.000000	58.000000	-11.000000	5.000000
0.450000	23.450000	86.800000	210.000000	0.000000	117.000000	58.000000	-8.000000	6.000000
0.460000	23.360000	86.800000	212.000000	0.000000	117.000000	58.000000	-9.000000	0.000000
0.470000	23.250000	86.800000	242.000000	0.000000	117.000000	58.000000	-11.000000	0.000000
0.480000	23.130000	86.800000	280.000000	0.000000	117.000000	58.000000	-12.000000	0.000000
0.490000	23.040000	86.800000	274.000000	0.000000	117.000000	58.000000	-9.000000	0.000000
0.500000	22.940000	86.800000	286.000000	0.000000	117.000000	58.000000	-10.000000	0.000000
0.510000	22.830000	86.660000	292.000000	0.000000	117.000000	58.000000	-11.000000	-14.000000
0.520000	22.750000	86.510000	292.000000	0.000000	117.000000	58.000000	-8.000000	-15.000000
0.530000	22.690000	86.320000	294.000000	0.000000	116.000000	57.000000	-6.000000	-19.000000
0.540000	22.690000	86.070000	292.000000	0.000000	116.000000	57.000000	0.000000	-25.000000
0.550000	22.690000	85.780000	294.000000	0.000000	116.000000	57.000000	0.000000	-29.000000
0.560000	22.690000	85.470000	299.000000	0.000000	116.000000	57.000000	0.000000	-31.000000
0.570000	22.800000	85.220000	299.000000	0.000000	116.000000	57.000000	11.000000	-25.000000
0.580000	22.800000	85.220000	289.000000	0.000000	116.000000	57.000000	0.000000	0.000000
0.590000	23.120000	84.870000	297.000000	0.000000	116.000000	57.000000	32.000000	-35.000000
0.600000	23.300000	84.870000	311.000000	0.000000	118.000000	57.000000	18.000000	0.000000
0.610000	23.550000	84.990000	310.000000	0.000000	118.000000	57.000000	25.000000	12.000000
0.620000	23.770000	85.360000	342.000000	0.000000	118.000000	57.000000	22.000000	37.000000
0.630000	23.960000	85.790000	341.000000	0.000000	118.000000	57.000000	19.000000	43.000000
0.640000	24.010000	86.250000	356.000000	0.000000	118.000000	57.000000	5.000000	46.000000
0.650000	24.060000	86.620000	387.000000	0.000000	119.000000	58.000000	5.000000	37.000000
0.660000	24.060000	86.800000	404.000000	0.000000	119.000000	58.000000	0.000000	18.000000
0.670000	24.060000	86.860000	414.000000	0.000000	117.000000	58.000000	0.000000	6.000000
0.680000	24.000000	86.860000	425.000000	0.000000	117.000000	58.000000	-6.000000	0.000000
0.690000	24.000000	86.790000	420.000000	0.000000	117.000000	58.000000	0.000000	-7.000000
0.700000	23.950000	86.630000	418.000000	0.000000	117.000000	58.000000	-5.000000	-16.000000
0.710000	23.950000	86.390000	422.000000	0.000000	117.000000	58.000000	0.000000	-24.000000
0.720000	23.950000	86.110000	409.000000	0.000000	117.000000	58.000000	0.000000	-28.000000
0.730000	24.010000	85.800000	389.000000	0.000000	117.000000	58.000000	6.000000	-31.000000
0.740000	24.140000	85.560000	343.000000	0.000000	118.000000	59.000000	13.000000	-24.000000
0.750000	24.360000	85.380000	270.000000	0.000000	118.000000	59.000000	22.000000	-18.000000
0.760000	24.580000	85.230000	168.000000	0.000000	118.000000	59.000000	22.000000	-15.000000
0.770000	24.780000	85.150000	71.000000	0.000000	118.000000	59.000000	20.000000	-8.000000
0.780000	25.140000	85.210000	3.000000	1.000000	120.000000	58.000000	0.000000	0.000000
0.790000	25.140000	85.210000	0.000000	0.000000	120.000000	58.000000	0.000000	0.000000
0.800000	25.580000	85.620000	0.000000	0.000000	120.000000	58.000000	44.000000	41.000000
0.810000	25.740000	85.910000	0.000000	0.000000	121.000000	59.000000	16.000000	29.000000
0.820000	25.850000	86.240000	0.000000	0.000000	121.000000	59.000000	11.000000	33.000000
0.830000	25.930000	86.650000	0.000000	0.000000	121.000000	59.000000	8.000000	41.000000
0.840000	25.930000	87.050000	0.000000	0.000000	122.000000	60.000000	0.000000	40.000000
0.850000	25.930000	87.400000	0.000000	0.000000	122.000000	60.000000	0.000000	35.000000
0.860000	25.930000	87.700000	0.000000	0.000000	122.000000	60.000000	0.000000	30.000000
0.870000	25.930000	87.910000	0.000000	0.000000	123.000000	61.000000	0.000000	21.000000
0.880000	25.870000	88.090000	0.000000	0.000000	123.000000	61.000000	-6.000000	18.000000
0.890000	25.770000	88.260000	0.000000	0.000000	123.000000	61.000000	-10.000000	17.000000
0.900000	25.690000	88.450000	0.000000	0.000000	123.000000	61.000000	-8.000000	19.000000
0.910000	25.620000	88.680000	0.000000	0.000000	123.000000	61.000000	-7.000000	23.000000
0.920000	25.560000	88.940000	0.000000	0.000000	125.000000	60.000000	-6.000000	26.000000
0.930000	25.510000	89.170000	0.000000	0.000000	125.000000	60.000000	-5.000000	23.000000
0.940000	25.510000	89.370000	0.000000	0.000000	125.000000	60.000000	0.000000	20.000000
0.950000	25.510000	89.370000	46.000000	1.000000	125.000000	60.000000	0.000000	0.000000
0.960000	25.510000	89.370000	153.000000	0.000000	125.000000	59.000000	0.000000	0.000000
0.970000	25.510000	89.370000	198.000000	0.000000	125.000000	59.000000	0.000000	0.000000
0.980000	25.430000	89.630000	245.000000	0.000000	127.000000	59.000000	-8.000000	26.000000
0.990000	25.430000	89.630000	297.000000	0.000000	126.000000	58.000000	0.000000	0.000000
1.000000	25.430000	89.570000	345.000000	0.000000	126.000000	58.000000	0.000000	-6.000000
1.010000	25.490000	89.440000	376.000000	0.000000	127.000000	57.000000	6.000000	-13.000000
1.020000	25.610000	89.220000	420.000000	0.000000	126.000000	57.000000	12.000000	-22.000000
1.030000	25.740000	88.920000	447.000000	0.000000	126.000000	57.000000	13.000000	-30.000000
1.040000	25.860000	88.480000	466.000000	0.000000	126.000000	57.000000	12.000000	-44.000000
1.050000	25.940000	87.960000	465.000000	0.000000	124.000000	57.000000	8.000000	-52.000000
1.060000	25.940000	87.360000	464.000000	0.000000	124.000000	57.000000	0.000000	-60.000000
1.070000	26.000000	86.780000	473.000000	0.000000	123.000000	58.000000	6.000000	-58.000000
1.080000	26.000000	86.410000	477.000000	0.000000	123.000000	58.000000	0.000000	-37.000000
1.090000	26.050000	86.190000	481.000000	0.000000	123.000000	59.000000	5.000000	-22.000000
1.100000	26.050000	86.060000	488.000000	0.000000	123.000000	59.000000	0.000000	-13.000000
1.110000	26.050000	86.060000	509.000000	0.000000	121.000000	59.000000	0.000000	0.000000
1.120000	26.050000	86.130000	509.000000	0.000000	121.000000	59.000000	0.000000	7.000000
1.130000	26.050000	86.390000	502.000000	0.000000	121.000000	59.000000	0.000000	26.000000
1.140000	26.050000	86.660000	501.000000	0.000000	121.000000	59.000000	0.000000	27.000000
1.150000	26.050000	86.950000	510.000000	0.000000	121.000000	59.000000	0.000000	29.000000
1.160000	26.150000	87.090000	515.000000	0.000000	121.000000	59.000000	10.000000	14.000000
1.170000	26.320000	87.220000	512.000000	0.000000	121.000000	59.000000	17.000000	13.000000
1.180000	26.580000	87.310000	501.000000	0.000000	121.000000	59.000000	26.000000	9.000000
1.190000	26.880000	87.310000	489.000000	0.000000	120.000000	58.000000	30.000000	0.000000
1.200000	27.160000	87.310000	485.000000	0.000000	120.000000	58.000000	28.000000	0.000000
1.210000	27.350000	87.140000	486.000000	0.000000	120.000000	58.000000	19.000000	-17.000000
1.220000	27.480000	86.930000	485.000000	0.000000	119.000000	58.000000	13.000000	-21.000000
1.230000	27.550000	86.640000	485.000000	0.000000	119.000000	58.000000	7.000000	-29.000000
1.240000	27.550000	86.360000	480.000000	0.000000	119.000000	58.000000	0.000000	-28.000000
1.250000	27.440000	86.100000	470.000000	0.000000	118.000000	57.000000	-11.000000	-26.000000
1.260000	27.270000	85.890000	414.000000	0.000000	118.000000	57.000000	-17.000000	-21.000000
1.270000	27.000000	85.710000	334.000000	0.000000	118.000000	57.000000	-27.000000	-18.000000
1.280000	26.670000	85.550000	176.000000	0.000000	118.000000	57.000000	-33.000000	-16.000000
1.290000	26.390000	85.480000	53.000000	0.000000	118.000000	57.000000	-28.000000	-7.000000
1.300000	26.390000	85.480000	0.000000	1.000000	118.000000	57.000000	0.000000	0.000000
1.310000	25.910000	85.600000	0.000000	0.000000	120.000000	57.000000	-48.000000	12.000000
1.320000	25.730000	85.660000	0.000000	0.000000	120.000000	57.000000	-18.000000	6.000000
1.330000	25.730000	85.770000	0.000000	0.000000	120.000000	57.000000	0.000000	11.000000
1.340000	25.950000	85.920000	0.000000	0.000000	121.000000	58.000000	22.000000	15.000000
1.350000	26.210000	86.110000	0.000000	0.000000	123.000000	59.000000	26.000000	19.000000
1.360000	26.480000	86.290000	0.000000	0.000000	123.000000	59.000000	27.000000	18.000000
1.370000	26.780000	86.460000	0.000000	0.000000	123.000000	59.000000	30.000000	17.000000
1.380000	27.070000	86.610000	0.000000	0.000000	123.000000	59.000000	29.000000	15.000000
1.390000	27.370000	86.740000	0.000000	0.000000	121.000000	58.000000	30.000000	13.000000
1.400000	27.590000	86.840000	0.000000	0.000000	121.000000	58.000000	22.000000	10.000000
1.410000	27.750000	86.910000	0.000000	0.000000	120.000000	57.000000	16.000000	7.000000
1.420000	27.920000	86.910000	0.000000	0.000000	119.000000	56.000000	17.000000	0.000000
1.430000	28.100000	86.910000	0.000000	0.000000	119.000000	56.000000	18.000000	0.000000
1.440000	28.270000	86.910000	0.000000	0.000000	119.000000	56.000000	17.000000	0.000000
1.450000	28.420000	86.810000	0.000000	0.000000	119.000000	56.000000	15.000000	-10.000000
1.460000	28.420000	86.810000	70.000000	1.000000	119.000000	56.000000	0.000000	0.000000
1.470000	28.710000	86.760000	91.000000	0.000000	119.000000	58.000000	29.000000	-5.000000
1.480000	28.880000	86.870000	119.000000	0.000000	119.000000	58.000000	17.000000	11.000000
1.490000	29.080000	87.010000	149.000000	0.000000	119.000000	58.000000	20.000000	14.000000
1.500000	29.260000	87.180000	131.000000	0.000000	120.000000	58.000000	18.000000	17.000000
1.510000	29.390000	87.370000	137.000000	0.000000	120.000000	58.000000	13.000000	19.000000
1.520000	29.510000	87.540000	180.000000	0.000000	120.000000	58.000000	12.000000	17.000000
1.530000	29.460000	87.680000	215.000000	0.000000	120.000000	58.000000	-5.000000	14.000000
1.540000	29.340000	87.760000	226.000000	0.000000	120.000000	58.000000	-12.000000	8.000000
1.550000	29.170000	87.760000	239.000000	0.000000	120.000000	58.000000	-17.000000	0.000000
1.560000	28.940000	87.760000	254.000000	0.000000	120.000000	58.000000	-23.000000	0.000000
1.570000	28.680000	87.520000	247.000000	0.000000	120.000000	58.000000	-26.000000	-24.000000
1.580000	28.390000	87.240000	284.000000	0.000000	120.000000	58.000000	-29.000000	-28.000000
1.590000	28.270000	86.940000	305.000000	0.000000	120.000000	58.000000	-12.000000	-30.000000
1.600000	28.210000	86.680000	315.000000	0.000000	120.000000	58.000000	-6.000000	-26.000000
1.610000	28.260000	86.480000	312.000000	0.000000	121.000000	59.000000	5.000000	-20.000000
1.620000	28.400000	86.320000	305.000000	0.000000	121.000000	59.000000	14.000000	-16.000000
1.630000	28.610000	86.180000	289.000000	0.000000	121.000000	59.000000	21.000000	-14.000000
1.640000	28.930000	86.110000	244.000000	0.000000	121.000000	59.000000	32.000000	-7.000000
1.650000	29.320000	86.110000	144.000000	0.000000	121.000000	59.000000	39.000000	0.000000
1.660000	29.780000	86.160000	46.000000	0.000000	121.000000	59.000000	46.000000	5.000000
1.670000	29.780000	86.160000	0.000000	1.000000	120.000000	58.000000	0.000000	0.000000
1.680000	30.490000	86.370000	0.000000	0.000000	120.000000	58.000000	71.000000	21.000000
1.690000	30.690000	86.450000	0.000000	0.000000	119.000000	58.000000	20.000000	8.000000
1.700000	30.770000	86.520000	0.000000	0.000000	119.000000	58.000000	8.000000	7.000000
1.710000	30.840000	86.590000	0.000000	0.000000	118.000000	57.000000	7.000000	7.000000
1.720000	30.920000	86.660000	0.000000	0.000000	119.000000	56.000000	8.000000	7.000000
1.730000	30.980000	86.790000	0.000000	0.000000	119.000000	56.000000	6.000000	13.000000
1.740000	31.100000	86.950000	0.000000	0.000000	118.000000	56.000000	12.000000	16.000000
1.750000	31.230000	87.110000	0.000000	0.000000	118.000000	56.000000	13.000000	16.000000
1.760000	31.230000	87.260000	0.000000	0.000000	118.000000	56.000000	0.000000	15.000000
1.770000	31.230000	87.360000	0.000000	0.000000	119.000000	54.000000	0.000000	10.000000
1.780000	31.180000	87.420000	0.000000	0.000000	119.000000	54.000000	-5.000000	6.000000
1.790000	31.120000	87.420000	0.000000	0.000000	119.000000	54.000000	-6.000000	0.000000
1.800000	31.050000	87.470000	0.000000	0.000000	119.000000	54.000000	-7.000000	5.000000
1.810000	30.990000	87.470000	0.000000	0.000000	119.000000	54.000000	-6.000000	0.000000
1.820000	30.930000	87.540000	0.000000	0.000000	119.000000	54.000000	-6.000000	7.000000
1.830000	30.880000	87.620000	0.000000	0.000000	119.000000	54.000000	-5.000000	8.000000
1.840000	30.830000	87.710000	0.000000	0.000000	119.000000	54.000000	-5.000000	9.000000
1.850000	30.780000	87.790000	0.000000	0.000000	119.000000	54.000000	-5.000000	8.000000
1.860000	30.780000	87.850000	0.000000	0.000000	119.000000	54.000000	0.000000	6.000000
1.870000	30.780000	87.910000	0.000000	0.000000	117.000000	55.000000	0.000000	6.000000
1.880000	30.780000	87.960000	0.000000	0.000000	117.000000	55.000000	0.000000	5.000000
1.890000	30.780000	88.010000	0.000000	0.000000	117.000000	55.000000	0.000000	5.000000
1.900000	30.780000	88.080000	0.000000	0.000000	118.000000	56.000000	0.000000	7.000000
1.910000	30.850000	88.170000	0.000000	0.000000	118.000000	56.000000	7.000000	9.000000
1.920000	30.990000	88.300000	0.000000	0.000000	118.000000	56.000000	14.000000	13.000000
1.930000	30.990000	88.300000	13.000000	0.000000	118.000000	56.000000	0.000000	0.000000
1.940000	31.540000	88.580000	67.000000	1.000000	118.000000	56.000000	0.000000	0.000000
1.950000	31.760000	88.580000	71.000000	0.000000	119.000000	56.000000	22.000000	0.000000
1.960000	31.760000	88.580000	108.000000	0.000000	119.000000	56.000000	0.000000	0.000000
1.970000	32.050000	88.480000	160.000000	0.000000	121.000000	56.000000	29.000000	-10.000000
1.980000	32.050000	88.250000	181.000000	0.000000	121.000000	56.000000	0.000000	-23.000000
1.990000	31.960000	87.930000	217.000000	0.000000	121.000000	56.000000	-9.000000	-32.000000
2.000000	31.790000	87.580000	241.000000	0.000000	121.000000	56.000000	-17.000000	-35.000000
2.010000	31.660000	87.250000	254.000000	0.000000	119.000000	56.000000	-13.000000	-33.000000
2.020000	31.550000	86.940000	275.000000	0.000000	119.000000	56.000000	-11.000000	-31.000000
2.030000	31.490000	86.780000	274.000000	0.000000	119.000000	56.000000	-6.000000	-16.000000
2.040000	31.560000	86.610000	285.000000	0.000000	118.000000	57.000000	7.000000	-17.000000
2.050000	31.710000	86.520000	275.000000	0.000000	118.000000	57.000000	15.000000	-9.000000
2.060000	31.900000	86.520000	257.000000	0.000000	118.000000	57.000000	19.000000	0.000000
2.070000	32.110000	86.450000	208.000000	0.000000	118.000000	57.000000	21.000000	-7.000000
2.080000	32.340000	86.450000	109.000000	0.000000	118.000000	57.000000	23.000000	0.000000
2.090000	32.570000	86.450000	10.000000	1.000000	118.000000	57.000000	0.000000	0.000000
2.100000	32.570000	86.450000	0.000000	0.000000	118.000000	57.000000	0.000000	0.000000
2.110000	32.870000	86.600000	0.000000	0.000000	118.000000	57.000000	30.000000	15.000000
2.120000	32.960000	86.690000	0.000000	0.000000	117.000000	56.000000	9.000000	9.000000
2.130000	33.070000	86.840000	0.000000	0.000000	117.000000	56.000000	11.000000	15.000000
2.140000	33.220000	87.020000	0.000000	0.000000	117.000000	56.000000	15.000000	18.000000
2.150000	33.410000	87.210000	0.000000	0.000000	117.000000	56.000000	19.000000	19.000000
2.160000	33.610000	87.400000	0.000000	0.000000	118.000000	56.000000	20.000000	19.000000
2.170000	33.770000	87.560000	0.000000	0.000000	118.000000	56.000000	16.000000	16.000000
2.180000	33.920000	87.670000	0.000000	0.000000	119.000000	56.000000	15.000000	11.000000
2.190000	33.970000	87.740000	0.000000	0.000000	119.000000	56.000000	5.000000	7.000000
2.200000	33.970000	87.800000	0.000000	0.000000	119.000000	56.000000	0.000000	6.000000
2.210000	33.970000	87.800000	0.000000	0.000000	119.000000	56.000000	0.000000	0.000000
2.220000	33.970000	87.800000	0.000000	0.000000	119.000000	56.000000	0.000000	0.000000
2.230000	33.970000	87.800000	0.000000	0.000000	119.000000	56.000000	0.000000	0.000000
