t	x	y	pressure	penup	azimuth	inclination	v_x	v_y
0.000000	58.780000	28.110000	200.000000	1.000000	123.000000	62.000000	0.000000	0.000000
0.010000	59.430000	28.360000	247.000000	0.000000	123.000000	62.000000	65.000000	25.000000
0.020000	59.430000	28.420000	309.000000	0.000000	123.000000	62.000000	0.000000	6.000000
0.030000	59.430000	28.420000	425.000000	0.000000	123.000000	61.000000	0.000000	0.000000
0.040000	59.430000	28.420000	540.000000	0.000000	122.000000	60.000000	0.000000	0.000000
0.050000	59.430000	28.420000	620.000000	0.000000	124.000000	60.000000	0.000000	0.000000
0.060000	59.430000	28.500000	672.000000	0.000000	123.000000	59.000000	0.000000	8.000000
0.070000	59.310000	28.580000	700.000000	0.000000	123.000000	59.000000	-12.000000	8.000000
0.080000	59.200000	28.720000	722.000000	0.000000	123.000000	58.000000	-11.000000	14.000000
0.090000	58.980000	28.890000	780.000000	0.000000	123.000000	58.000000	-22.000000	17.000000
0.100000	58.590000	28.890000	830.000000	0.000000	123.000000	58.000000	-39.000000	0.000000
0.110000	58.090000	28.890000	854.000000	0.000000	123.000000	58.000000	-50.000000	0.000000
0.120000	57.340000	28.600000	875.000000	0.000000	123.000000	58.000000	-75.000000	-29.000000
0.130000	56.430000	28.060000	905.000000	0.000000	123.000000	58.000000	-91.000000	-54.000000
0.140000	55.400000	27.110000	917.000000	0.000000	121.000000	58.000000	-103.000000	-95.000000
0.150000	54.610000	26.110000	921.000000	0.000000	121.000000	58.000000	-79.000000	-100.000000
0.160000	54.230000	25.220000	915.000000	0.000000	120.000000	58.000000	-38.000000	-89.000000
0.170000	54.120000	24.430000	897.000000	0.000000	118.000000	59.000000	-11.000000	-79.000000
0.180000	54.460000	23.920000	906.000000	0.000000	117.000000	59.000000	34.000000	-51.000000
0.190000	55.140000	23.640000	870.000000	0.000000	115.000000	60.000000	68.000000	-28.000000
0.200000	56.050000	23.510000	827.000000	0.000000	113.000000	60.000000	91.000000	-13.000000
0.210000	56.950000	23.510000	722.000000	0.000000	113.000000	60.000000	90.000000	0.000000
0.220000	57.800000	23.710000	603.000000	0.000000	112.000000	60.000000	85.000000	20.000000
0.230000	58.410000	24.020000	496.000000	0.000000	112.000000	60.000000	61.000000	31.000000
0.240000	58.870000	24.350000	409.000000	0.000000	112.000000	60.000000	46.000000	33.000000
0.250000	59.260000	24.680000	388.000000	0.000000	111.000000	59.000000	39.000000	33.000000
0.260000	59.500000	25.040000	420.000000	0.000000	111.000000	59.000000	24.000000	36.000000
0.270000	59.640000	25.410000	467.000000	0.000000	111.000000	59.000000	14.000000	37.000000
0.280000	59.640000	25.720000	581.000000	0.000000	111.000000	59.000000	0.000000	31.000000
0.290000	59.640000	25.910000	647.000000	0.000000	110.000000	58.000000	0.000000	19.000000
0.300000	59.540000	26.030000	672.000000	0.000000	110.000000	58.000000	-10.000000	12.000000
0.310000	59.440000	26.090000	699.000000	0.000000	110.000000	58.000000	-10.000000	6.000000
0.320000	59.280000	26.090000	724.000000	0.000000	110.000000	58.000000	-16.000000	0.000000
0.330000	59.080000	25.970000	748.000000	0.000000	110.000000	58.000000	-20.000000	-12.000000
0.340000	58.800000	25.630000	749.000000	0.000000	110.000000	58.000000	-28.000000	-34.000000
0.350000	58.530000	25.140000	754.000000	0.000000	110.000000	58.000000	-27.000000	-49.000000
0.360000	58.430000	24.830000	731.000000	0.000000	110.000000	58.000000	-10.000000	-31.000000
0.370000	58.430000	24.610000	728.000000	0.000000	110.000000	58.000000	0.000000	-22.000000
0.380000	58.680000	24.440000	730.000000	0.000000	110.000000	58.000000	25.000000	-17.000000
0.390000	58.970000	24.440000	728.000000	0.000000	110.000000	58.000000	29.000000	0.000000
0.400000	59.360000	24.640000	717.000000	0.000000	109.000000	57.000000	39.000000	20.000000
0.410000	59.800000	24.980000	716.000000	0.000000	109.000000	57.000000	44.000000	34.000000
0.420000	60.030000	25.160000	714.000000	0.000000	109.000000	57.000000	23.000000	18.000000
0.430000	60.120000	25.310000	716.000000	0.000000	108.000000	58.000000	9.000000	15.000000
0.440000	60.120000	25.310000	705.000000	0.000000	108.000000	58.000000	0.000000	0.000000
0.450000	60.120000	25.220000	700.000000	0.000000	108.000000	58.000000	0.000000	-9.000000
0.460000	60.120000	24.990000	691.000000	0.000000	109.000000	59.000000	0.000000	-23.000000
0.470000	60.120000	24.760000	655.000000	0.000000	109.000000	59.000000	0.000000	-23.000000
0.480000	60.260000	24.560000	603.000000	0.000000	109.000000	59.000000	14.000000	-20.000000
0.490000	60.560000	24.560000	510.000000	0.000000	109.000000	59.000000	30.000000	0.000000
0.500000	60.970000	24.720000	346.000000	0.000000	109.000000	59.000000	41.000000	16.000000
0.510000	61.510000	25.090000	101.000000	0.000000	109.000000	59.000000	54.000000	37.000000
0.520000	61.510000	25.090000	0.000000	1.000000	109.000000	59.000000	0.000000	0.000000
0.530000	63.000000	26.030000	0.000000	0.000000	111.000000	59.000000	149.000000	94.000000
0.540000	62.920000	26.550000	0.000000	0.000000	111.000000	59.000000	-8.000000	52.000000
0.550000	63.150000	27.200000	0.000000	0.000000	111.000000	59.000000	23.000000	65.000000
0.560000	63.150000	27.200000	215.000000	1.000000	113.000000	59.000000	0.000000	0.000000
0.570000	63.740000	28.590000	339.000000	0.000000	115.000000	60.000000	59.000000	139.000000
0.580000	63.680000	29.010000	485.000000	0.000000	117.000000	59.000000	-6.000000	42.000000
0.590000	63.480000	29.290000	589.000000	0.000000	118.000000	59.000000	-20.000000	28.000000
0.600000	63.210000	29.340000	644.000000	0.000000	120.000000	58.000000	-27.000000	5.000000
0.610000	62.940000	29.190000	672.000000	0.000000	121.000000	58.000000	-27.000000	-15.000000
0.620000	62.680000	28.910000	700.000000	0.000000	123.000000	58.000000	-26.000000	-28.000000
0.630000	62.590000	28.530000	691.000000	0.000000	123.000000	58.000000	-9.000000	-38.000000
0.640000	62.590000	28.150000	711.000000	0.000000	124.000000	57.000000	0.000000	-38.000000
0.650000	62.730000	27.760000	721.000000	0.000000	124.000000	57.000000	14.000000	-39.000000
0.660000	62.900000	27.470000	720.000000	0.000000	123.000000	58.000000	17.000000	-29.000000
0.670000	63.270000	27.170000	730.000000	0.000000	123.000000	58.000000	37.000000	-30.000000
0.680000	63.740000	26.870000	748.000000	0.000000	121.000000	58.000000	47.000000	-30.000000
0.690000	64.130000	26.550000	750.000000	0.000000	119.000000	58.000000	39.000000	-32.000000
0.700000	64.350000	26.230000	779.000000	0.000000	118.000000	59.000000	22.000000	-32.000000
0.710000	64.450000	25.850000	787.000000	0.000000	118.000000	59.000000	10.000000	-38.000000
0.720000	64.380000	25.440000	797.000000	0.000000	117.000000	59.000000	-7.000000	-41.000000
0.730000	64.040000	25.030000	788.000000	0.000000	115.000000	60.000000	-34.000000	-41.000000
0.740000	63.510000	24.640000	776.000000	0.000000	115.000000	60.000000	-53.000000	-39.000000
0.750000	63.110000	24.510000	740.000000	0.000000	113.000000	60.000000	-40.000000	-13.000000
0.760000	62.770000	24.510000	716.000000	0.000000	113.000000	60.000000	-34.000000	0.000000
0.770000	62.550000	24.660000	676.000000	0.000000	113.000000	60.000000	-22.000000	15.000000
0.780000	62.550000	24.900000	636.000000	0.000000	112.000000	60.000000	0.000000	24.000000
0.790000	62.700000	25.220000	634.000000	0.000000	112.000000	60.000000	15.000000	32.000000
0.800000	62.960000	25.380000	627.000000	0.000000	112.000000	60.000000	26.000000	16.000000
0.810000	63.260000	25.510000	625.000000	0.000000	112.000000	60.000000	30.000000	13.000000
0.820000	63.650000	25.510000	644.000000	0.000000	112.000000	60.000000	39.000000	0.000000
0.830000	64.110000	25.510000	664.000000	0.000000	112.000000	60.000000	46.000000	0.000000
0.840000	64.630000	25.440000	716.000000	0.000000	112.000000	60.000000	52.000000	-7.000000
0.850000	65.170000	25.550000	727.000000	0.000000	112.000000	60.000000	54.000000	11.000000
0.860000	65.750000	25.760000	743.000000	0.000000	113.000000	61.000000	58.000000	21.000000
0.870000	66.170000	26.030000	743.000000	0.000000	113.000000	61.000000	42.000000	27.000000
0.880000	66.490000	26.290000	746.000000	0.000000	113.000000	61.000000	32.000000	26.000000
0.890000	66.670000	26.580000	739.000000	0.000000	113.000000	61.000000	18.000000	29.000000
0.900000	66.670000	26.900000	725.000000	0.000000	113.000000	61.000000	0.000000	32.000000
0.910000	66.500000	27.160000	727.000000	0.000000	114.000000	61.000000	-17.000000	26.000000
0.920000	66.220000	27.160000	724.000000	0.000000	114.000000	61.000000	-28.000000	0.000000
0.930000	65.920000	27.090000	733.000000	0.000000	116.000000	60.000000	-30.000000	-7.000000
0.940000	65.600000	26.850000	721.000000	0.000000	116.000000	60.000000	-32.000000	-24.000000
0.950000	65.390000	26.420000	727.000000	0.000000	116.000000	60.000000	-21.000000	-43.000000
0.960000	65.190000	25.860000	721.000000	0.000000	118.000000	60.000000	-20.000000	-56.000000
0.970000	65.190000	25.460000	725.000000	0.000000	116.000000	60.000000	0.000000	-40.000000
0.980000	65.440000	25.200000	733.000000	0.000000	116.000000	60.000000	25.000000	-26.000000
0.990000	65.760000	25.030000	705.000000	0.000000	116.000000	60.000000	32.000000	-17.000000
1.000000	66.190000	25.030000	641.000000	0.000000	114.000000	61.000000	43.000000	0.000000
1.010000	66.680000	25.170000	509.000000	0.000000	114.000000	61.000000	49.000000	14.000000
1.020000	67.130000	25.440000	311.000000	0.000000	113.000000	61.000000	45.000000	27.000000
1.030000	67.520000	25.840000	139.000000	0.000000	113.000000	61.000000	39.000000	40.000000
1.040000	67.860000	26.240000	104.000000	0.000000	114.000000	62.000000	34.000000	40.000000
1.050000	68.020000	26.620000	142.000000	0.000000	114.000000	62.000000	16.000000	38.000000
1.060000	68.020000	26.970000	245.000000	0.000000	115.000000	62.000000	0.000000	35.000000
1.070000	67.970000	27.280000	389.000000	0.000000	116.000000	63.000000	-5.000000	31.000000
1.080000	67.790000	27.500000	490.000000	0.000000	118.000000	62.000000	-18.000000	22.000000
1.090000	67.650000	27.620000	540.000000	0.000000	120.000000	62.000000	-14.000000	12.000000
1.100000	67.580000	27.700000	594.000000	0.000000	120.000000	62.000000	-7.000000	8.000000
1.110000	67.580000	27.760000	611.000000	0.000000	122.000000	61.000000	0.000000	6.000000
1.120000	67.690000	27.760000	673.000000	0.000000	123.000000	61.000000	11.000000	0.000000
1.130000	67.900000	27.810000	697.000000	0.000000	123.000000	61.000000	21.000000	5.000000
1.140000	68.170000	27.810000	750.000000	0.000000	125.000000	60.000000	27.000000	0.000000
1.150000	68.420000	27.620000	785.000000	0.000000	125.000000	60.000000	25.000000	-19.000000
1.160000	68.580000	27.360000	817.000000	0.000000	125.000000	60.000000	16.000000	-26.000000
1.170000	68.640000	26.980000	845.000000	0.000000	124.000000	60.000000	6.000000	-38.000000
1.180000	68.640000	26.570000	861.000000	0.000000	122.000000	60.000000	0.000000	-41.000000
1.190000	68.510000	26.080000	860.000000	0.000000	121.000000	59.000000	-13.000000	-49.000000
1.200000	68.400000	25.760000	852.000000	0.000000	119.000000	60.000000	-11.000000	-32.000000
1.210000	68.290000	25.560000	811.000000	0.000000	119.000000	60.000000	-11.000000	-20.000000
1.220000	68.200000	25.450000	768.000000	0.000000	117.000000	59.000000	-9.000000	-11.000000
1.230000	68.120000	25.450000	679.000000	0.000000	115.000000	60.000000	-8.000000	0.000000
1.240000	67.990000	25.450000	594.000000	0.000000	115.000000	60.000000	-13.000000	0.000000
1.250000	67.830000	25.520000	505.000000	0.000000	114.000000	61.000000	-16.000000	7.000000
1.260000	67.710000	25.630000	509.000000	0.000000	114.000000	61.000000	-12.000000	11.000000
1.270000	67.650000	25.770000	522.000000	0.000000	114.000000	61.000000	-6.000000	14.000000
1.280000	67.650000	25.870000	540.000000	0.000000	115.000000	62.000000	0.000000	10.000000
1.290000	67.770000	25.970000	569.000000	0.000000	115.000000	62.000000	12.000000	10.000000
1.300000	67.910000	26.040000	608.000000	0.000000	116.000000	63.000000	14.000000	7.000000
1.310000	68.190000	26.040000	610.000000	0.000000	116.000000	63.000000	28.000000	0.000000
1.320000	68.560000	26.160000	616.000000	0.000000	116.000000	63.000000	37.000000	12.000000
1.330000	68.980000	26.250000	538.000000	0.000000	115.000000	62.000000	42.000000	9.000000
1.340000	69.450000	26.420000	340.000000	0.000000	115.000000	62.000000	47.000000	17.000000
1.350000	69.450000	26.420000	0.000000	1.000000	115.000000	62.000000	0.000000	0.000000
1.360000	70.410000	26.850000	0.000000	0.000000	115.000000	62.000000	96.000000	43.000000
1.370000	70.730000	27.050000	0.000000	0.000000	117.000000	61.000000	32.000000	20.000000
1.380000	71.010000	27.230000	0.000000	0.000000	118.000000	62.000000	28.000000	18.000000
1.390000	71.010000	27.230000	249.000000	1.000000	120.000000	62.000000	0.000000	0.000000
1.400000	71.390000	27.570000	391.000000	0.000000	122.000000	61.000000	38.000000	34.000000
1.410000	71.390000	27.720000	509.000000	0.000000	124.000000	62.000000	0.000000	15.000000
1.420000	71.290000	27.860000	611.000000	0.000000	124.000000	62.000000	-10.000000	14.000000
1.430000	71.180000	27.970000	676.000000	0.000000	126.000000	61.000000	-11.000000	11.000000
1.440000	71.030000	27.970000	721.000000	0.000000	126.000000	61.000000	-15.000000	0.000000
1.450000	70.850000	27.970000	720.000000	0.000000	126.000000	61.000000	-18.000000	0.000000
1.460000	70.680000	27.860000	730.000000	0.000000	126.000000	60.000000	-17.000000	-11.000000
1.470000	70.460000	27.540000	734.000000	0.000000	126.000000	60.000000	-22.000000	-32.000000
1.480000	70.200000	27.080000	737.000000	0.000000	126.000000	60.000000	-26.000000	-46.000000
1.490000	70.200000	26.870000	736.000000	0.000000	124.000000	60.000000	0.000000	-21.000000
1.500000	70.310000	26.730000	739.000000	0.000000	124.000000	60.000000	11.000000	-14.000000
1.510000	70.490000	26.630000	749.000000	0.000000	124.000000	60.000000	18.000000	-10.000000
1.520000	70.780000	26.630000	754.000000	0.000000	121.000000	59.000000	29.000000	0.000000
1.530000	71.130000	26.820000	745.000000	0.000000	121.000000	59.000000	35.000000	19.000000
1.540000	71.470000	27.080000	740.000000	0.000000	119.000000	60.000000	34.000000	26.000000
1.550000	71.660000	27.340000	736.000000	0.000000	119.000000	60.000000	19.000000	26.000000
1.560000	71.760000	27.520000	739.000000	0.000000	119.000000	60.000000	10.000000	18.000000
1.570000	71.760000	27.520000	752.000000	0.000000	120.000000	60.000000	0.000000	0.000000
1.580000	71.670000	27.520000	760.000000	0.000000	120.000000	60.000000	-9.000000	0.000000
1.590000	71.600000	27.410000	768.000000	0.000000	122.000000	60.000000	-7.000000	-11.000000
1.600000	71.470000	27.140000	770.000000	0.000000	122.000000	60.000000	-13.000000	-27.000000
1.610000	71.390000	26.760000	785.000000	0.000000	122.000000	60.000000	-8.000000	-38.000000
1.620000	71.340000	26.500000	785.000000	0.000000	122.000000	60.000000	-5.000000	-26.000000
1.630000	71.440000	26.380000	780.000000	0.000000	120.000000	60.000000	10.000000	-12.000000
1.640000	71.600000	26.380000	755.000000	0.000000	120.000000	60.000000	16.000000	0.000000
1.650000	71.860000	26.380000	662.000000	0.000000	120.000000	60.000000	26.000000	0.000000
1.660000	72.200000	26.520000	389.000000	0.000000	120.000000	60.000000	34.000000	14.000000
1.670000	72.200000	26.520000	0.000000	1.000000	120.000000	60.000000	0.000000	0.000000
1.680000	72.920000	26.940000	0.000000	0.000000	120.000000	60.000000	72.000000	42.000000
1.690000	73.150000	27.110000	0.000000	0.000000	120.000000	60.000000	23.000000	17.000000
1.700000	73.320000	27.260000	0.000000	0.000000	120.000000	60.000000	17.000000	15.000000
1.710000	73.560000	27.390000	0.000000	0.000000	120.000000	60.000000	24.000000	13.000000
1.720000	73.790000	27.560000	0.000000	0.000000	123.000000	61.000000	23.000000	17.000000
1.730000	73.790000	27.560000	58.000000	1.000000	123.000000	61.000000	0.000000	0.000000
1.740000	74.180000	27.950000	108.000000	0.000000	125.000000	60.000000	39.000000	39.000000
1.750000	74.300000	28.160000	233.000000	0.000000	125.000000	60.000000	12.000000	21.000000
1.760000	74.430000	28.380000	351.000000	0.000000	126.000000	60.000000	13.000000	22.000000
1.770000	74.540000	28.560000	466.000000	0.000000	126.000000	60.000000	11.000000	18.000000
1.780000	74.630000	28.710000	545.000000	0.000000	128.000000	59.000000	9.000000	15.000000
1.790000	74.630000	28.800000	624.000000	0.000000	129.000000	60.000000	0.000000	9.000000
1.800000	74.550000	28.800000	671.000000	0.000000	129.000000	60.000000	-8.000000	0.000000
1.810000	74.410000	28.800000	691.000000	0.000000	131.000000	60.000000	-14.000000	0.000000
1.820000	74.170000	28.800000	707.000000	0.000000	132.000000	60.000000	-24.000000	0.000000
1.830000	73.850000	28.660000	722.000000	0.000000	132.000000	60.000000	-32.000000	-14.000000
1.840000	73.580000	28.390000	730.000000	0.000000	132.000000	60.000000	-27.000000	-27.000000
1.850000	73.480000	28.230000	730.000000	0.000000	132.000000	60.000000	-10.000000	-16.000000
1.860000	73.480000	28.030000	743.000000	0.000000	132.000000	60.000000	0.000000	-20.000000
1.870000	73.540000	27.780000	751.000000	0.000000	132.000000	60.000000	6.000000	-25.000000
1.880000	73.770000	27.550000	788.000000	0.000000	131.000000	61.000000	23.000000	-23.000000
1.890000	74.120000	27.330000	787.000000	0.000000	129.000000	60.000000	35.000000	-22.000000
1.900000	74.270000	27.100000	790.000000	0.000000	129.000000	60.000000	15.000000	-23.000000
1.910000	74.340000	26.950000	793.000000	0.000000	128.000000	61.000000	7.000000	-15.000000
1.920000	74.340000	26.850000	797.000000	0.000000	128.000000	61.000000	0.000000	-10.000000
1.930000	74.340000	26.790000	797.000000	0.000000	126.000000	61.000000	0.000000	-6.000000
1.940000	74.150000	26.730000	740.000000	0.000000	126.000000	61.000000	-19.000000	-6.000000
1.950000	73.930000	26.670000	595.000000	0.000000	124.000000	62.000000	-22.000000	-6.000000
1.960000	73.780000	26.720000	302.000000	0.000000	124.000000	62.000000	-15.000000	5.000000
1.970000	73.780000	26.720000	0.000000	1.000000	124.000000	62.000000	0.000000	0.000000
1.980000	73.600000	26.850000	0.000000	0.000000	124.000000	62.000000	-18.000000	13.000000
1.990000	73.600000	26.910000	0.000000	0.000000	124.000000	62.000000	0.000000	6.000000
2.000000	73.500000	26.970000	0.000000	0.000000	124.000000	62.000000	-10.000000	6.000000
2.010000	73.500000	27.020000	0.000000	0.000000	124.000000	62.000000	0.000000	5.000000
2.020000	73.450000	27.020000	0.000000	0.000000	124.000000	62.000000	-5.000000	0.000000
2.030000	73.330000	27.080000	0.000000	0.000000	124.000000	62.000000	-12.000000	6.000000
2.040000	73.160000	27.150000	0.000000	0.000000	124.000000	62.000000	-17.000000	7.000000
2.050000	72.900000	27.250000	0.000000	0.000000	124.000000	62.000000	-26.000000	10.000000
2.060000	72.640000	27.550000	0.000000	0.000000	124.000000	62.000000	-26.000000	30.000000
2.070000	72.510000	27.980000	0.000000	0.000000	124.000000	62.000000	-13.000000	43.000000
2.080000	72.450000	28.500000	0.000000	0.000000	126.000000	61.000000	-6.000000	52.000000
2.090000	72.450000	29.080000	0.000000	0.000000	126.000000	61.000000	0.000000	58.000000
2.100000	72.450000	29.430000	0.000000	0.000000	126.000000	60.000000	0.000000	35.000000
2.110000	72.450000	29.620000	0.000000	0.000000	126.000000	60.000000	0.000000	19.000000
2.120000	72.380000	29.620000	0.000000	0.000000	128.000000	59.000000	-7.000000	0.000000
2.130000	72.380000	29.620000	0.000000	0.000000	128.000000	59.000000	0.000000	0.000000
2.140000	72.470000	29.620000	0.000000	0.000000	128.000000	59.000000	9.000000	0.000000
2.150000	72.600000	29.620000	0.000000	0.000000	129.000000	59.000000	13.000000	0.000000
2.160000	72.760000	29.670000	0.000000	0.000000	129.000000	59.000000	16.000000	5.000000
2.170000	72.970000	29.780000	0.000000	0.000000	131.000000	60.000000	21.000000	11.000000
2.180000	73.190000	29.950000	0.000000	0.000000	132.000000	59.000000	22.000000	17.000000
2.190000	73.520000	30.130000	0.000000	0.000000	132.000000	59.000000	33.000000	18.000000
2.200000	73.870000	30.330000	0.000000	0.000000	132.000000	59.000000	35.000000	20.000000
2.210000	74.280000	30.550000	0.000000	0.000000	132.000000	59.000000	41.000000	22.000000
