t	x	y	pressure	penup	azimuth	inclination	v_x	v_y
0.000000	18.660000	47.440000	24.000000	1.000000	114.000000	64.000000	0.000000	0.000000
0.010000	18.830000	47.780000	203.000000	0.000000	114.000000	64.000000	17.000000	34.000000
0.020000	18.830000	47.890000	291.000000	0.000000	116.000000	64.000000	0.000000	11.000000
0.030000	18.830000	47.950000	423.000000	0.000000	116.000000	64.000000	0.000000	6.000000
0.040000	18.760000	48.000000	515.000000	0.000000	116.000000	64.000000	-7.000000	5.000000
0.050000	18.630000	48.000000	545.000000	0.000000	116.000000	64.000000	-13.000000	0.000000
0.060000	18.440000	47.920000	594.000000	0.000000	116.000000	64.000000	-19.000000	-8.000000
0.070000	18.260000	47.780000	614.000000	0.000000	116.000000	64.000000	-18.000000	-14.000000
0.080000	18.100000	47.510000	646.000000	0.000000	115.000000	63.000000	-16.000000	-27.000000
0.090000	17.950000	47.160000	661.000000	0.000000	113.000000	63.000000	-15.000000	-35.000000
0.100000	17.870000	46.850000	673.000000	0.000000	113.000000	63.000000	-8.000000	-31.000000
0.110000	17.870000	46.590000	668.000000	0.000000	112.000000	62.000000	0.000000	-26.000000
0.120000	17.920000	46.360000	669.000000	0.000000	110.000000	63.000000	5.000000	-23.000000
0.130000	18.020000	46.230000	673.000000	0.000000	111.000000	64.000000	10.000000	-13.000000
0.140000	18.140000	46.230000	676.000000	0.000000	109.000000	64.000000	12.000000	0.000000
0.150000	18.300000	46.230000	675.000000	0.000000	109.000000	64.000000	16.000000	0.000000
0.160000	18.460000	46.370000	679.000000	0.000000	109.000000	64.000000	16.000000	14.000000
0.170000	18.620000	46.660000	673.000000	0.000000	109.000000	64.000000	16.000000	29.000000
0.180000	18.780000	47.040000	676.000000	0.000000	109.000000	64.000000	16.000000	38.000000
0.190000	18.860000	47.320000	672.000000	0.000000	109.000000	64.000000	8.000000	28.000000
0.200000	18.860000	47.560000	685.000000	0.000000	108.000000	63.000000	0.000000	24.000000
0.210000	18.860000	47.660000	700.000000	0.000000	108.000000	63.000000	0.000000	10.000000
0.220000	18.910000	47.660000	702.000000	0.000000	108.000000	63.000000	5.000000	0.000000
0.230000	18.910000	47.600000	728.000000	0.000000	110.000000	63.000000	0.000000	-6.000000
0.240000	18.970000	47.490000	734.000000	0.000000	110.000000	63.000000	6.000000	-11.000000
0.250000	19.040000	47.280000	754.000000	0.000000	110.000000	63.000000	7.000000	-21.000000
0.260000	19.140000	47.100000	758.000000	0.000000	113.000000	63.000000	10.000000	-18.000000
0.270000	19.260000	46.960000	746.000000	0.000000	113.000000	63.000000	12.000000	-14.000000
0.280000	19.350000	46.900000	691.000000	0.000000	113.000000	63.000000	9.000000	-6.000000
0.290000	19.420000	46.900000	586.000000	0.000000	113.000000	63.000000	7.000000	0.000000
0.300000	19.470000	46.900000	317.000000	0.000000	113.000000	63.000000	5.000000	0.000000
0.310000	19.470000	46.900000	0.000000	1.000000	113.000000	63.000000	0.000000	0.000000
0.320000	19.680000	47.100000	0.000000	0.000000	111.000000	64.000000	21.000000	20.000000
0.330000	19.680000	47.230000	0.000000	0.000000	111.000000	64.000000	0.000000	13.000000
0.340000	19.680000	47.320000	0.000000	0.000000	111.000000	64.000000	0.000000	9.000000
0.350000	19.680000	47.430000	0.000000	0.000000	111.000000	64.000000	0.000000	11.000000
0.360000	19.680000	47.580000	0.000000	0.000000	111.000000	64.000000	0.000000	15.000000
0.370000	19.730000	47.760000	0.000000	0.000000	113.000000	63.000000	5.000000	18.000000
0.380000	19.730000	47.840000	0.000000	0.000000	113.000000	63.000000	0.000000	8.000000
0.390000	19.730000	47.920000	0.000000	0.000000	113.000000	63.000000	0.000000	8.000000
0.400000	19.670000	48.000000	0.000000	0.000000	113.000000	63.000000	-6.000000	8.000000
0.410000	19.670000	48.090000	0.000000	0.000000	113.000000	63.000000	0.000000	9.000000
0.420000	19.600000	48.190000	0.000000	0.000000	113.000000	63.000000	-7.000000	10.000000
0.430000	19.540000	48.260000	0.000000	0.000000	112.000000	62.000000	-6.000000	7.000000
0.440000	19.470000	48.340000	0.000000	0.000000	112.000000	62.000000	-7.000000	8.000000
0.450000	19.410000	48.420000	0.000000	0.000000	112.000000	62.000000	-6.000000	8.000000
0.460000	19.410000	48.550000	0.000000	0.000000	112.000000	62.000000	0.000000	13.000000
0.470000	19.330000	48.730000	0.000000	0.000000	112.000000	62.000000	-8.000000	18.000000
0.480000	19.330000	48.800000	0.000000	0.000000	112.000000	62.000000	0.000000	7.000000
0.490000	19.270000	48.850000	0.000000	0.000000	112.000000	62.000000	-6.000000	5.000000
0.500000	19.270000	48.850000	0.000000	0.000000	115.000000	63.000000	0.000000	0.000000
0.510000	19.270000	48.850000	0.000000	0.000000	115.000000	63.000000	0.000000	0.000000
0.520000	19.270000	48.790000	0.000000	0.000000	115.000000	63.000000	0.000000	-6.000000
0.530000	19.360000	48.790000	0.000000	0.000000	115.000000	63.000000	9.000000	0.000000
0.540000	19.460000	48.740000	0.000000	0.000000	115.000000	63.000000	10.000000	-5.000000
0.550000	19.570000	48.740000	0.000000	0.000000	114.000000	62.000000	11.000000	0.000000
0.560000	19.690000	48.740000	0.000000	0.000000	114.000000	62.000000	12.000000	0.000000
0.570000	19.800000	48.740000	0.000000	0.000000	114.000000	62.000000	11.000000	0.000000
0.580000	19.910000	48.790000	0.000000	0.000000	114.000000	62.000000	11.000000	5.000000
0.590000	19.980000	48.930000	0.000000	0.000000	114.000000	62.000000	7.000000	14.000000
0.600000	20.030000	49.110000	0.000000	0.000000	114.000000	62.000000	5.000000	18.000000
0.610000	20.030000	49.310000	0.000000	0.000000	113.000000	61.000000	0.000000	20.000000
0.620000	20.030000	49.570000	0.000000	0.000000	113.000000	61.000000	0.000000	26.000000
0.630000	20.030000	49.820000	0.000000	0.000000	113.000000	61.000000	0.000000	25.000000
0.640000	19.980000	50.070000	0.000000	0.000000	113.000000	61.000000	-5.000000	25.000000
0.650000	19.980000	50.070000	340.000000	1.000000	113.000000	61.000000	0.000000	0.000000
0.660000	19.980000	50.070000	481.000000	0.000000	113.000000	61.000000	0.000000	0.000000
0.670000	19.980000	50.070000	611.000000	0.000000	115.000000	62.000000	0.000000	0.000000
0.680000	19.980000	50.070000	720.000000	0.000000	115.000000	62.000000	0.000000	0.000000
0.690000	19.920000	49.410000	833.000000	0.000000	115.000000	62.000000	-6.000000	-66.000000
0.700000	19.920000	48.800000	896.000000	0.000000	117.000000	61.000000	0.000000	-61.000000
0.710000	19.920000	48.180000	926.000000	0.000000	118.000000	62.000000	0.000000	-62.000000
0.720000	19.980000	47.600000	926.000000	0.000000	116.000000	63.000000	6.000000	-58.000000
0.730000	20.050000	47.270000	905.000000	0.000000	116.000000	63.000000	7.000000	-33.000000
0.740000	20.120000	47.070000	783.000000	0.000000	116.000000	63.000000	7.000000	-20.000000
0.750000	20.170000	47.000000	522.000000	0.000000	115.000000	63.000000	5.000000	-7.000000
0.760000	20.170000	47.060000	49.000000	0.000000	116.000000	64.000000	0.000000	6.000000
0.770000	20.170000	47.060000	0.000000	1.000000	114.000000	64.000000	0.000000	0.000000
0.780000	20.360000	47.590000	0.000000	0.000000	114.000000	64.000000	19.000000	53.000000
0.790000	20.440000	48.000000	0.000000	0.000000	114.000000	64.000000	8.000000	41.000000
0.800000	20.440000	48.440000	0.000000	0.000000	114.000000	64.000000	0.000000	44.000000
0.810000	20.440000	48.840000	0.000000	0.000000	114.000000	64.000000	0.000000	40.000000
0.820000	20.440000	49.220000	0.000000	0.000000	113.000000	63.000000	0.000000	38.000000
0.830000	20.440000	49.590000	0.000000	0.000000	113.000000	63.000000	0.000000	37.000000
0.840000	20.440000	49.930000	0.000000	0.000000	113.000000	63.000000	0.000000	34.000000
0.850000	20.440000	49.930000	218.000000	1.000000	114.000000	62.000000	0.000000	0.000000
0.860000	20.380000	50.390000	369.000000	0.000000	114.000000	62.000000	-6.000000	46.000000
0.870000	20.380000	50.480000	502.000000	0.000000	115.000000	62.000000	0.000000	9.000000
0.880000	20.470000	50.480000	586.000000	0.000000	115.000000	62.000000	9.000000	0.000000
0.890000	20.530000	50.480000	679.000000	0.000000	117.000000	61.000000	6.000000	0.000000
0.900000	20.530000	50.310000	757.000000	0.000000	117.000000	61.000000	0.000000	-17.000000
0.910000	20.590000	49.970000	819.000000	0.000000	118.000000	62.000000	6.000000	-34.000000
0.920000	20.590000	49.510000	853.000000	0.000000	120.000000	62.000000	0.000000	-46.000000
0.930000	20.640000	49.200000	863.000000	0.000000	120.000000	62.000000	5.000000	-31.000000
0.940000	20.640000	48.980000	861.000000	0.000000	120.000000	62.000000	0.000000	-22.000000
0.950000	20.800000	48.810000	855.000000	0.000000	118.000000	62.000000	16.000000	-17.000000
0.960000	20.950000	48.650000	851.000000	0.000000	118.000000	62.000000	15.000000	-16.000000
0.970000	21.170000	48.510000	817.000000	0.000000	119.000000	63.000000	22.000000	-14.000000
0.980000	21.440000	48.440000	799.000000	0.000000	117.000000	63.000000	27.000000	-7.000000
0.990000	21.730000	48.440000	783.000000	0.000000	117.000000	63.000000	29.000000	0.000000
1.000000	21.930000	48.280000	793.000000	0.000000	117.000000	63.000000	20.000000	-16.000000
1.010000	22.070000	48.140000	796.000000	0.000000	119.000000	64.000000	14.000000	-14.000000
1.020000	22.070000	48.000000	823.000000	0.000000	119.000000	64.000000	0.000000	-14.000000
1.030000	21.960000	47.870000	872.000000	0.000000	119.000000	64.000000	-11.000000	-13.000000
1.040000	21.780000	47.620000	941.000000	0.000000	119.000000	64.000000	-18.000000	-25.000000
1.050000	21.500000	47.380000	986.000000	0.000000	117.000000	65.000000	-28.000000	-24.000000
1.060000	21.220000	47.180000	981.000000	0.000000	117.000000	65.000000	-28.000000	-20.000000
1.070000	20.940000	47.080000	995.000000	0.000000	117.000000	65.000000	-28.000000	-10.000000
1.080000	20.850000	47.020000	941.000000	0.000000	115.000000	65.000000	-9.000000	-6.000000
1.090000	20.850000	47.020000	780.000000	0.000000	115.000000	65.000000	0.000000	0.000000
1.100000	20.850000	47.090000	364.000000	0.000000	115.000000	65.000000	0.000000	7.000000
1.110000	20.850000	47.090000	0.000000	1.000000	115.000000	65.000000	0.000000	0.000000
1.120000	21.140000	47.390000	0.000000	0.000000	115.000000	65.000000	29.000000	30.000000
1.130000	21.510000	47.570000	0.000000	0.000000	115.000000	65.000000	37.000000	18.000000
1.140000	21.820000	47.770000	0.000000	0.000000	114.000000	64.000000	31.000000	20.000000
1.150000	22.250000	47.990000	0.000000	0.000000	114.000000	64.000000	43.000000	22.000000
1.160000	22.760000	48.230000	0.000000	0.000000	114.000000	64.000000	51.000000	24.000000
1.170000	23.180000	48.460000	0.000000	0.000000	113.000000	63.000000	42.000000	23.000000
1.180000	23.450000	48.650000	0.000000	0.000000	113.000000	63.000000	27.000000	19.000000
1.190000	23.630000	48.750000	0.000000	0.000000	111.000000	64.000000	18.000000	10.000000
1.200000	23.630000	48.750000	0.000000	0.000000	110.000000	63.000000	0.000000	0.000000
1.210000	23.520000	48.750000	0.000000	0.000000	110.000000	63.000000	-11.000000	0.000000
1.220000	23.310000	48.750000	0.000000	0.000000	110.000000	63.000000	-21.000000	0.000000
1.230000	23.080000	48.750000	0.000000	0.000000	110.000000	63.000000	-23.000000	0.000000
1.240000	22.850000	48.750000	0.000000	0.000000	110.000000	63.000000	-23.000000	0.000000
1.250000	22.610000	48.750000	0.000000	0.000000	110.000000	63.000000	-24.000000	0.000000
1.260000	22.410000	48.750000	0.000000	0.000000	110.000000	63.000000	-20.000000	0.000000
1.270000	22.410000	48.750000	354.000000	1.000000	109.000000	62.000000	0.000000	0.000000
1.280000	22.160000	48.750000	418.000000	0.000000	111.000000	61.000000	-25.000000	0.000000
1.290000	22.160000	48.690000	483.000000	0.000000	111.000000	61.000000	0.000000	-6.000000
1.300000	22.160000	48.690000	553.000000	0.000000	114.000000	62.000000	0.000000	0.000000
1.310000	22.260000	48.630000	602.000000	0.000000	114.000000	62.000000	10.000000	-6.000000
1.320000	22.260000	48.630000	659.000000	0.000000	114.000000	62.000000	0.000000	0.000000
1.330000	22.600000	48.630000	696.000000	0.000000	116.000000	63.000000	34.000000	0.000000
1.340000	22.880000	48.690000	736.000000	0.000000	116.000000	63.000000	28.000000	6.000000
1.350000	23.090000	48.830000	773.000000	0.000000	117.000000	63.000000	21.000000	14.000000
1.360000	23.280000	49.010000	814.000000	0.000000	117.000000	63.000000	19.000000	18.000000
1.370000	23.410000	49.220000	817.000000	0.000000	117.000000	63.000000	13.000000	21.000000
1.380000	23.490000	49.490000	857.000000	0.000000	117.000000	63.000000	8.000000	27.000000
1.390000	23.490000	49.730000	894.000000	0.000000	119.000000	64.000000	0.000000	24.000000
1.400000	23.430000	49.880000	933.000000	0.000000	120.000000	64.000000	-6.000000	15.000000
1.410000	23.300000	49.960000	956.000000	0.000000	120.000000	64.000000	-13.000000	8.000000
1.420000	23.180000	49.960000	974.000000	0.000000	120.000000	64.000000	-12.000000	0.000000
1.430000	23.020000	49.810000	982.000000	0.000000	120.000000	64.000000	-16.000000	-15.000000
1.440000	22.860000	49.550000	995.000000	0.000000	120.000000	64.000000	-16.000000	-26.000000
1.450000	22.700000	49.150000	992.000000	0.000000	122.000000	63.000000	-16.000000	-40.000000
1.460000	22.700000	48.810000	968.000000	0.000000	122.000000	63.000000	0.000000	-34.000000
1.470000	22.760000	48.510000	926.000000	0.000000	120.000000	64.000000	6.000000	-30.000000
1.480000	22.910000	48.290000	821.000000	0.000000	120.000000	64.000000	15.000000	-22.000000
1.490000	23.140000	48.220000	550.000000	0.000000	120.000000	64.000000	23.000000	-7.000000
1.500000	23.140000	48.220000	0.000000	1.000000	119.000000	64.000000	0.000000	0.000000
1.510000	23.720000	48.490000	0.000000	0.000000	119.000000	64.000000	58.000000	27.000000
1.520000	23.920000	48.730000	0.000000	0.000000	119.000000	64.000000	20.000000	24.000000
1.530000	24.080000	48.980000	0.000000	0.000000	116.000000	64.000000	16.000000	25.000000
1.540000	24.080000	49.190000	0.000000	0.000000	116.000000	64.000000	0.000000	21.000000
1.550000	24.170000	49.370000	0.000000	0.000000	116.000000	64.000000	9.000000	18.000000
1.560000	24.170000	49.500000	0.000000	0.000000	115.000000	63.000000	0.000000	13.000000
1.570000	24.060000	49.570000	0.000000	0.000000	115.000000	63.000000	-11.000000	7.000000
1.580000	23.950000	49.570000	0.000000	0.000000	115.000000	63.000000	-11.000000	0.000000
1.590000	23.900000	49.570000	0.000000	0.000000	114.000000	62.000000	-5.000000	0.000000
1.600000	23.900000	49.570000	237.000000	1.000000	114.000000	62.000000	0.000000	0.000000
1.610000	23.900000	49.570000	407.000000	0.000000	114.000000	62.000000	0.000000	0.000000
1.620000	23.900000	49.570000	545.000000	0.000000	114.000000	62.000000	0.000000	0.000000
1.630000	24.230000	49.260000	682.000000	0.000000	115.000000	63.000000	33.000000	-31.000000
1.640000	24.370000	49.120000	784.000000	0.000000	115.000000	63.000000	14.000000	-14.000000
1.650000	24.520000	48.970000	833.000000	0.000000	116.000000	63.000000	15.000000	-15.000000
1.660000	24.600000	48.820000	900.000000	0.000000	117.000000	63.000000	8.000000	-15.000000
1.670000	24.600000	48.650000	937.000000	0.000000	117.000000	63.000000	0.000000	-17.000000
1.680000	24.600000	48.650000	999.000000	0.000000	119.000000	64.000000	0.000000	0.000000
1.690000	24.600000	48.650000	1023.000000	0.000000	119.000000	64.000000	0.000000	0.000000
1.700000	24.540000	48.700000	1023.000000	0.000000	120.000000	65.000000	-6.000000	5.000000
1.710000	24.480000	48.840000	1023.000000	0.000000	122.000000	65.000000	-6.000000	14.000000
1.720000	24.420000	49.040000	1023.000000	0.000000	122.000000	65.000000	-6.000000	20.000000
1.730000	24.370000	49.250000	1023.000000	0.000000	122.000000	65.000000	-5.000000	21.000000
1.740000	24.370000	49.480000	1023.000000	0.000000	122.000000	65.000000	0.000000	23.000000
1.750000	24.370000	49.730000	1023.000000	0.000000	122.000000	65.000000	0.000000	25.000000
1.760000	24.370000	49.890000	1023.000000	0.000000	122.000000	65.000000	0.000000	16.000000
1.770000	24.520000	50.050000	959.000000	0.000000	122.000000	65.000000	15.000000	16.000000
1.780000	24.720000	50.200000	777.000000	0.000000	120.000000	64.000000	20.000000	15.000000
1.790000	24.950000	50.260000	465.000000	0.000000	120.000000	64.000000	23.000000	6.000000
1.800000	24.950000	50.260000	0.000000	1.000000	120.000000	64.000000	0.000000	0.000000
1.810000	25.550000	50.310000	0.000000	0.000000	122.000000	63.000000	60.000000	5.000000
1.820000	25.860000	50.380000	0.000000	0.000000	122.000000	63.000000	31.000000	7.000000
1.830000	26.110000	50.480000	0.000000	0.000000	122.000000	63.000000	25.000000	10.000000
1.840000	26.330000	50.610000	0.000000	0.000000	124.000000	64.000000	22.000000	13.000000
1.850000	26.440000	50.800000	0.000000	0.000000	124.000000	64.000000	11.000000	19.000000
1.860000	26.550000	51.050000	0.000000	0.000000	124.000000	64.000000	11.000000	25.000000
1.870000	26.550000	51.340000	0.000000	0.000000	124.000000	64.000000	0.000000	29.000000
1.880000	26.480000	51.610000	0.000000	0.000000	122.000000	63.000000	-7.000000	27.000000
1.890000	26.390000	51.840000	0.000000	0.000000	122.000000	63.000000	-9.000000	23.000000
1.900000	26.390000	51.840000	193.000000	1.000000	122.000000	63.000000	0.000000	0.000000
1.910000	26.120000	52.110000	410.000000	0.000000	122.000000	63.000000	-27.000000	27.000000
1.920000	26.120000	52.110000	537.000000	0.000000	122.000000	63.000000	0.000000	0.000000
1.930000	26.050000	52.000000	638.000000	0.000000	122.000000	63.000000	-7.000000	-11.000000
1.940000	26.050000	51.750000	727.000000	0.000000	124.000000	64.000000	0.000000	-25.000000
1.950000	26.050000	51.320000	818.000000	0.000000	124.000000	64.000000	0.000000	-43.000000
1.960000	26.120000	50.780000	864.000000	0.000000	125.000000	64.000000	7.000000	-54.000000
1.970000	26.180000	50.230000	897.000000	0.000000	125.000000	64.000000	6.000000	-55.000000
1.980000	26.300000	49.780000	897.000000	0.000000	125.000000	64.000000	12.000000	-45.000000
1.990000	26.420000	49.390000	860.000000	0.000000	124.000000	64.000000	12.000000	-39.000000
2.000000	26.420000	49.390000	761.000000	0.000000	124.000000	64.000000	0.000000	0.000000
2.010000	26.620000	49.050000	475.000000	0.000000	124.000000	64.000000	20.000000	-34.000000
2.020000	26.620000	49.050000	5.000000	1.000000	122.000000	65.000000	0.000000	0.000000
2.030000	26.620000	49.050000	0.000000	0.000000	120.000000	64.000000	0.000000	0.000000
2.040000	26.680000	49.280000	0.000000	0.000000	120.000000	64.000000	6.000000	23.000000
2.050000	26.560000	49.510000	0.000000	0.000000	119.000000	64.000000	-12.000000	23.000000
2.060000	26.440000	49.700000	0.000000	0.000000	117.000000	63.000000	-12.000000	19.000000
2.070000	26.170000	49.860000	0.000000	0.000000	117.000000	63.000000	-27.000000	16.000000
2.080000	25.790000	49.970000	0.000000	0.000000	117.000000	63.000000	-38.000000	11.000000
2.090000	25.340000	50.040000	0.000000	0.000000	117.000000	63.000000	-45.000000	7.000000
2.100000	24.920000	50.100000	0.000000	0.000000	117.000000	63.000000	-42.000000	6.000000
2.110000	24.530000	50.160000	0.000000	0.000000	117.000000	63.000000	-39.000000	6.000000
2.120000	24.150000	50.160000	0.000000	0.000000	117.000000	63.000000	-38.000000	0.000000
2.130000	23.860000	50.160000	0.000000	0.000000	119.000000	63.000000	-29.000000	0.000000
2.140000	23.860000	50.160000	425.000000	1.000000	119.000000	63.000000	0.000000	0.000000
2.150000	23.860000	50.160000	507.000000	0.000000	118.000000	62.000000	0.000000	0.000000
2.160000	23.860000	50.160000	644.000000	0.000000	118.000000	62.000000	0.000000	0.000000
2.170000	24.340000	50.290000	758.000000	0.000000	118.000000	62.000000	48.000000	13.000000
2.180000	25.250000	50.690000	845.000000	0.000000	118.000000	62.000000	91.000000	40.000000
2.190000	26.820000	51.300000	921.000000	0.000000	118.000000	62.000000	157.000000	61.000000
2.200000	28.750000	52.050000	933.000000	0.000000	118.000000	62.000000	193.000000	75.000000
2.210000	30.910000	53.010000	927.000000	0.000000	119.000000	63.000000	216.000000	96.000000
2.220000	33.350000	53.970000	855.000000	0.000000	121.000000	63.000000	244.000000	96.000000
2.230000	35.230000	54.570000	643.000000	0.000000	122.000000	63.000000	188.000000	60.000000
