t	x	y	pressure	penup	azimuth	inclination	v_x	v_y
0.000000	59.820000	81.510000	222.000000	1.000000	142.000000	61.000000	0.000000	0.000000
0.010000	59.600000	81.250000	277.000000	0.000000	144.000000	61.000000	-22.000000	-26.000000
0.020000	59.350000	81.200000	311.000000	0.000000	147.000000	61.000000	-25.000000	-5.000000
0.030000	59.280000	81.120000	388.000000	0.000000	147.000000	61.000000	-7.000000	-8.000000
0.040000	59.280000	81.030000	438.000000	0.000000	148.000000	61.000000	0.000000	-9.000000
0.050000	59.280000	80.950000	480.000000	0.000000	150.000000	60.000000	0.000000	-8.000000
0.060000	59.340000	80.890000	546.000000	0.000000	151.000000	61.000000	6.000000	-6.000000
0.070000	59.590000	80.820000	592.000000	0.000000	151.000000	61.000000	25.000000	-7.000000
0.080000	59.970000	80.820000	614.000000	0.000000	151.000000	61.000000	38.000000	0.000000
0.090000	60.560000	80.890000	638.000000	0.000000	151.000000	61.000000	59.000000	7.000000
0.100000	61.170000	81.080000	656.000000	0.000000	151.000000	61.000000	61.000000	19.000000
0.110000	62.020000	81.360000	650.000000	0.000000	150.000000	60.000000	85.000000	28.000000
0.120000	63.010000	81.770000	662.000000	0.000000	150.000000	60.000000	99.000000	41.000000
0.130000	63.980000	82.270000	658.000000	0.000000	148.000000	60.000000	97.000000	50.000000
0.140000	64.820000	82.910000	659.000000	0.000000	148.000000	60.000000	84.000000	64.000000
0.150000	65.560000	83.680000	655.000000	0.000000	148.000000	60.000000	74.000000	77.000000
0.160000	65.940000	84.540000	659.000000	0.000000	146.000000	60.000000	38.000000	86.000000
0.170000	65.940000	85.280000	650.000000	0.000000	146.000000	60.000000	0.000000	74.000000
0.180000	65.700000	85.800000	642.000000	0.000000	148.000000	60.000000	-24.000000	52.000000
0.190000	65.070000	86.180000	639.000000	0.000000	148.000000	60.000000	-63.000000	38.000000
0.200000	64.140000	86.440000	625.000000	0.000000	148.000000	60.000000	-93.000000	26.000000
0.210000	63.010000	86.440000	639.000000	0.000000	148.000000	60.000000	-113.000000	0.000000
0.220000	61.900000	86.180000	641.000000	0.000000	148.000000	60.000000	-111.000000	-26.000000
0.230000	61.200000	85.650000	636.000000	0.000000	150.000000	60.000000	-70.000000	-53.000000
0.240000	60.780000	85.070000	620.000000	0.000000	150.000000	60.000000	-42.000000	-58.000000
0.250000	61.090000	84.400000	619.000000	0.000000	150.000000	60.000000	31.000000	-67.000000
0.260000	61.700000	83.690000	622.000000	0.000000	150.000000	60.000000	61.000000	-71.000000
0.270000	62.520000	83.020000	627.000000	0.000000	150.000000	60.000000	82.000000	-67.000000
0.280000	63.360000	82.400000	620.000000	0.000000	150.000000	60.000000	84.000000	-62.000000
0.290000	63.840000	81.800000	610.000000	0.000000	151.000000	60.000000	48.000000	-60.000000
0.300000	64.070000	81.230000	614.000000	0.000000	149.000000	59.000000	23.000000	-57.000000
0.310000	63.720000	80.600000	605.000000	0.000000	149.000000	59.000000	-35.000000	-63.000000
0.320000	62.710000	79.850000	575.000000	0.000000	149.000000	59.000000	-101.000000	-75.000000
0.330000	61.250000	79.030000	564.000000	0.000000	149.000000	59.000000	-146.000000	-82.000000
0.340000	59.490000	78.360000	559.000000	0.000000	149.000000	59.000000	-176.000000	-67.000000
0.350000	57.390000	77.760000	553.000000	0.000000	148.000000	60.000000	-210.000000	-60.000000
0.360000	55.060000	77.200000	538.000000	0.000000	148.000000	60.000000	-233.000000	-56.000000
0.370000	53.390000	77.060000	524.000000	0.000000	146.000000	60.000000	-167.000000	-14.000000
0.380000	52.650000	77.460000	382.000000	0.000000	146.000000	60.000000	-74.000000	40.000000
0.390000	52.530000	78.210000	302.000000	0.000000	146.000000	60.000000	-12.000000	75.000000
0.400000	53.220000	79.410000	282.000000	0.000000	146.000000	60.000000	69.000000	120.000000
0.410000	54.560000	80.830000	284.000000	0.000000	145.000000	59.000000	134.000000	142.000000
0.420000	56.330000	82.410000	412.000000	0.000000	145.000000	59.000000	177.000000	158.000000
0.430000	58.980000	83.910000	535.000000	0.000000	145.000000	59.000000	265.000000	150.000000
0.440000	61.860000	85.380000	588.000000	0.000000	146.000000	60.000000	288.000000	147.000000
0.450000	64.890000	86.390000	628.000000	0.000000	147.000000	59.000000	303.000000	101.000000
0.460000	67.750000	87.120000	664.000000	0.000000	148.000000	60.000000	286.000000	73.000000
0.470000	69.980000	87.490000	694.000000	0.000000	150.000000	60.000000	223.000000	37.000000
0.480000	71.790000	87.490000	693.000000	0.000000	151.000000	61.000000	181.000000	0.000000
0.490000	72.780000	87.280000	685.000000	0.000000	152.000000	62.000000	99.000000	-21.000000
0.500000	72.950000	86.910000	693.000000	0.000000	152.000000	62.000000	17.000000	-37.000000
0.510000	72.570000	86.240000	691.000000	0.000000	154.000000	63.000000	-38.000000	-67.000000
0.520000	71.420000	85.380000	687.000000	0.000000	155.000000	63.000000	-115.000000	-86.000000
0.530000	69.420000	84.250000	693.000000	0.000000	155.000000	63.000000	-200.000000	-113.000000
0.540000	66.850000	83.100000	700.000000	0.000000	155.000000	63.000000	-257.000000	-115.000000
0.550000	63.750000	81.870000	691.000000	0.000000	156.000000	62.000000	-310.000000	-123.000000
0.560000	60.320000	80.530000	691.000000	0.000000	155.000000	62.000000	-343.000000	-134.000000
0.570000	56.660000	79.100000	687.000000	0.000000	156.000000	61.000000	-366.000000	-143.000000
0.580000	53.810000	78.120000	664.000000	0.000000	154.000000	60.000000	-285.000000	-98.000000
0.590000	51.900000	77.450000	667.000000	0.000000	152.000000	60.000000	-191.000000	-67.000000
0.600000	50.620000	77.300000	667.000000	0.000000	151.000000	60.000000	-128.000000	-15.000000
0.610000	50.530000	77.450000	641.000000	0.000000	149.000000	59.000000	-9.000000	15.000000
0.620000	51.350000	77.810000	636.000000	0.000000	149.000000	59.000000	82.000000	36.000000
0.630000	52.780000	78.760000	652.000000	0.000000	147.000000	59.000000	143.000000	95.000000
0.640000	55.070000	80.070000	682.000000	0.000000	147.000000	59.000000	229.000000	131.000000
0.650000	58.100000	81.630000	693.000000	0.000000	147.000000	59.000000	303.000000	156.000000
0.660000	61.620000	83.130000	693.000000	0.000000	147.000000	59.000000	352.000000	150.000000
0.670000	65.150000	84.330000	685.000000	0.000000	150.000000	58.000000	353.000000	120.000000
0.680000	68.630000	85.330000	678.000000	0.000000	150.000000	58.000000	348.000000	100.000000
0.690000	71.530000	85.990000	669.000000	0.000000	152.000000	59.000000	290.000000	66.000000
0.700000	74.070000	86.360000	668.000000	0.000000	153.000000	59.000000	254.000000	37.000000
0.710000	75.690000	86.540000	643.000000	0.000000	155.000000	60.000000	162.000000	18.000000
0.720000	76.650000	86.540000	588.000000	0.000000	156.000000	61.000000	96.000000	0.000000
0.730000	77.170000	86.540000	425.000000	0.000000	157.000000	61.000000	52.000000	0.000000
0.740000	77.330000	86.480000	200.000000	0.000000	159.000000	61.000000	16.000000	-6.000000
0.750000	77.330000	86.480000	0.000000	1.000000	159.000000	61.000000	0.000000	0.000000
0.760000	76.830000	86.370000	0.000000	0.000000	161.000000	62.000000	-50.000000	-11.000000
0.770000	76.190000	86.300000	0.000000	0.000000	161.000000	62.000000	-64.000000	-7.000000
0.780000	75.200000	86.210000	0.000000	0.000000	161.000000	62.000000	-99.000000	-9.000000
0.790000	73.970000	86.040000	0.000000	0.000000	161.000000	62.000000	-123.000000	-17.000000
0.800000	72.440000	85.790000	0.000000	0.000000	161.000000	62.000000	-153.000000	-25.000000
0.810000	70.910000	85.490000	0.000000	0.000000	162.000000	61.000000	-153.000000	-30.000000
0.820000	69.480000	85.190000	0.000000	0.000000	160.000000	60.000000	-143.000000	-30.000000
0.830000	68.110000	84.930000	0.000000	0.000000	161.000000	60.000000	-137.000000	-26.000000
0.840000	66.630000	84.620000	0.000000	0.000000	160.000000	58.000000	-148.000000	-31.000000
0.850000	64.970000	84.270000	0.000000	0.000000	160.000000	58.000000	-166.000000	-35.000000
0.860000	63.180000	83.860000	0.000000	0.000000	158.000000	58.000000	-179.000000	-41.000000
0.870000	61.260000	83.430000	0.000000	0.000000	157.000000	57.000000	-192.000000	-43.000000
0.880000	59.540000	83.000000	0.000000	0.000000	156.000000	57.000000	-172.000000	-43.000000
0.890000	57.960000	82.570000	0.000000	0.000000	156.000000	57.000000	-158.000000	-43.000000
0.900000	56.890000	82.300000	0.000000	0.000000	155.000000	58.000000	-107.000000	-27.000000
0.910000	56.480000	82.140000	0.000000	0.000000	154.000000	57.000000	-41.000000	-16.000000
0.920000	56.480000	82.200000	0.000000	0.000000	154.000000	57.000000	0.000000	6.000000
0.930000	56.740000	82.250000	0.000000	0.000000	153.000000	58.000000	26.000000	5.000000
0.940000	57.030000	82.340000	0.000000	0.000000	153.000000	58.000000	29.000000	9.000000
0.950000	57.390000	82.450000	0.000000	0.000000	153.000000	58.000000	36.000000	11.000000
0.960000	57.770000	82.580000	0.000000	0.000000	154.000000	58.000000	38.000000	13.000000
0.970000	58.090000	82.720000	0.000000	0.000000	154.000000	58.000000	32.000000	14.000000
0.980000	58.380000	82.850000	0.000000	0.000000	154.000000	58.000000	29.000000	13.000000
0.990000	58.520000	83.000000	0.000000	0.000000	154.000000	58.000000	14.000000	15.000000
1.000000	58.570000	83.100000	0.000000	0.000000	153.000000	58.000000	5.000000	10.000000
1.010000	58.570000	83.160000	0.000000	0.000000	153.000000	58.000000	0.000000	6.000000
1.020000	58.570000	83.160000	0.000000	0.000000	153.000000	58.000000	0.000000	0.000000
1.030000	58.570000	83.210000	0.000000	0.000000	153.000000	58.000000	0.000000	5.000000
1.040000	58.620000	83.210000	0.000000	0.000000	153.000000	58.000000	5.000000	0.000000
1.050000	58.690000	83.210000	0.000000	0.000000	154.000000	58.000000	7.000000	0.000000
1.060000	58.810000	83.210000	0.000000	0.000000	154.000000	58.000000	12.000000	0.000000
1.070000	58.970000	83.210000	0.000000	0.000000	154.000000	58.000000	16.000000	0.000000
1.080000	58.970000	83.210000	34.000000	1.000000	155.000000	58.000000	0.000000	0.000000
1.090000	59.370000	83.280000	93.000000	0.000000	156.000000	59.000000	40.000000	7.000000
1.100000	59.480000	83.360000	183.000000	0.000000	156.000000	59.000000	11.000000	8.000000
1.110000	59.530000	83.360000	314.000000	0.000000	156.000000	59.000000	5.000000	0.000000
1.120000	59.530000	83.430000	440.000000	0.000000	157.000000	59.000000	0.000000	7.000000
1.130000	59.530000	83.430000	524.000000	0.000000	157.000000	59.000000	0.000000	0.000000
1.140000	59.530000	83.430000	595.000000	0.000000	157.000000	59.000000	0.000000	0.000000
1.150000	59.530000	83.430000	641.000000	0.000000	157.000000	59.000000	0.000000	0.000000
1.160000	59.450000	83.430000	670.000000	0.000000	157.000000	59.000000	-8.000000	0.000000
1.170000	59.330000	83.430000	676.000000	0.000000	157.000000	59.000000	-12.000000	0.000000
1.180000	59.150000	83.300000	688.000000	0.000000	157.000000	59.000000	-18.000000	-13.000000
1.190000	59.010000	83.190000	700.000000	0.000000	157.000000	59.000000	-14.000000	-11.000000
1.200000	58.860000	83.070000	702.000000	0.000000	158.000000	58.000000	-15.000000	-12.000000
1.210000	58.680000	82.940000	696.000000	0.000000	156.000000	59.000000	-18.000000	-13.000000
1.220000	58.490000	82.800000	694.000000	0.000000	156.000000	59.000000	-19.000000	-14.000000
1.230000	58.290000	82.620000	691.000000	0.000000	154.000000	58.000000	-20.000000	-18.000000
1.240000	58.150000	82.490000	676.000000	0.000000	154.000000	58.000000	-14.000000	-13.000000
1.250000	58.150000	82.390000	671.000000	0.000000	153.000000	58.000000	0.000000	-10.000000
1.260000	58.100000	82.320000	641.000000	0.000000	153.000000	58.000000	-5.000000	-7.000000
1.270000	58.100000	82.260000	627.000000	0.000000	151.000000	58.000000	0.000000	-6.000000
1.280000	58.170000	82.210000	611.000000	0.000000	151.000000	58.000000	7.000000	-5.000000
1.290000	58.260000	82.210000	606.000000	0.000000	151.000000	58.000000	9.000000	0.000000
1.300000	58.380000	82.280000	605.000000	0.000000	150.000000	57.000000	12.000000	7.000000
1.310000	58.620000	82.430000	614.000000	0.000000	150.000000	57.000000	24.000000	15.000000
1.320000	58.950000	82.640000	620.000000	0.000000	151.000000	58.000000	33.000000	21.000000
1.330000	59.180000	82.920000	619.000000	0.000000	151.000000	58.000000	23.000000	28.000000
1.340000	59.310000	83.240000	637.000000	0.000000	151.000000	58.000000	13.000000	32.000000
1.350000	59.360000	83.440000	682.000000	0.000000	153.000000	58.000000	5.000000	20.000000
1.360000	59.360000	83.510000	697.000000	0.000000	154.000000	58.000000	0.000000	7.000000
1.370000	59.360000	83.510000	703.000000	0.000000	154.000000	58.000000	0.000000	0.000000
1.380000	59.360000	83.510000	703.000000	0.000000	156.000000	59.000000	0.000000	0.000000
1.390000	59.290000	83.410000	694.000000	0.000000	156.000000	59.000000	-7.000000	-10.000000
1.400000	59.230000	83.280000	691.000000	0.000000	156.000000	59.000000	-6.000000	-13.000000
1.410000	59.150000	83.100000	697.000000	0.000000	156.000000	59.000000	-8.000000	-18.000000
1.420000	59.150000	82.890000	670.000000	0.000000	156.000000	59.000000	0.000000	-21.000000
1.430000	59.150000	82.660000	634.000000	0.000000	156.000000	59.000000	0.000000	-23.000000
1.440000	59.150000	82.490000	564.000000	0.000000	154.000000	58.000000	0.000000	-17.000000
1.450000	59.150000	82.340000	397.000000	0.000000	154.000000	58.000000	0.000000	-15.000000
1.460000	59.150000	82.230000	98.000000	0.000000	154.000000	58.000000	0.000000	-11.000000
1.470000	59.150000	82.230000	0.000000	1.000000	154.000000	58.000000	0.000000	0.000000
1.480000	59.150000	82.230000	0.000000	0.000000	153.000000	59.000000	0.000000	0.000000
1.490000	59.250000	82.460000	0.000000	0.000000	153.000000	59.000000	10.000000	23.000000
1.500000	59.330000	82.800000	0.000000	0.000000	153.000000	59.000000	8.000000	34.000000
1.510000	59.430000	83.250000	0.000000	0.000000	153.000000	59.000000	10.000000	45.000000
1.520000	59.530000	83.720000	0.000000	0.000000	154.000000	58.000000	10.000000	47.000000
1.530000	59.640000	84.320000	0.000000	0.000000	154.000000	58.000000	11.000000	60.000000
1.540000	59.760000	85.020000	0.000000	0.000000	154.000000	58.000000	12.000000	70.000000
1.550000	59.910000	85.740000	0.000000	0.000000	153.000000	58.000000	15.000000	72.000000
1.560000	59.910000	85.740000	235.000000	1.000000	152.000000	59.000000	0.000000	0.000000
1.570000	60.100000	86.380000	366.000000	0.000000	152.000000	59.000000	19.000000	64.000000
1.580000	60.100000	86.600000	472.000000	0.000000	152.000000	59.000000	0.000000	22.000000
1.590000	60.100000	86.660000	589.000000	0.000000	151.000000	60.000000	0.000000	6.000000
1.600000	60.100000	86.660000	619.000000	0.000000	152.000000	60.000000	0.000000	0.000000
1.610000	60.100000	86.550000	659.000000	0.000000	152.000000	60.000000	0.000000	-11.000000
1.620000	60.100000	86.430000	684.000000	0.000000	152.000000	60.000000	0.000000	-12.000000
1.630000	60.100000	86.100000	700.000000	0.000000	152.000000	60.000000	0.000000	-33.000000
1.640000	60.150000	85.650000	716.000000	0.000000	152.000000	60.000000	5.000000	-45.000000
1.650000	60.150000	85.140000	719.000000	0.000000	152.000000	60.000000	0.000000	-51.000000
1.660000	60.150000	84.580000	727.000000	0.000000	152.000000	60.000000	0.000000	-56.000000
1.670000	60.210000	83.950000	722.000000	0.000000	152.000000	60.000000	6.000000	-63.000000
1.680000	60.210000	83.350000	705.000000	0.000000	152.000000	60.000000	0.000000	-60.000000
1.690000	60.210000	82.830000	675.000000	0.000000	153.000000	59.000000	0.000000	-52.000000
1.700000	60.210000	82.350000	617.000000	0.000000	153.000000	59.000000	0.000000	-48.000000
1.710000	60.110000	82.000000	512.000000	0.000000	153.000000	59.000000	-10.000000	-35.000000
1.720000	60.060000	81.830000	273.000000	0.000000	154.000000	58.000000	-5.000000	-17.000000
1.730000	60.060000	81.830000	0.000000	1.000000	154.000000	58.000000	0.000000	0.000000
1.740000	60.060000	81.880000	0.000000	0.000000	154.000000	58.000000	0.000000	5.000000
1.750000	60.060000	82.270000	0.000000	0.000000	154.000000	58.000000	0.000000	39.000000
1.760000	60.180000	82.850000	0.000000	0.000000	154.000000	58.000000	12.000000	58.000000
1.770000	60.320000	83.580000	0.000000	0.000000	154.000000	58.000000	14.000000	73.000000
1.780000	60.500000	84.520000	0.000000	0.000000	154.000000	58.000000	18.000000	94.000000
1.790000	60.690000	85.600000	0.000000	0.000000	154.000000	58.000000	19.000000	108.000000
1.800000	60.930000	86.670000	0.000000	0.000000	154.000000	58.000000	24.000000	107.000000
1.810000	61.200000	87.350000	0.000000	0.000000	153.000000	58.000000	27.000000	68.000000
1.820000	61.400000	87.770000	0.000000	0.000000	152.000000	59.000000	20.000000	42.000000
1.830000	61.400000	87.770000	304.000000	1.000000	152.000000	59.000000	0.000000	0.000000
1.840000	61.400000	87.770000	332.000000	0.000000	150.000000	58.000000	0.000000	0.000000
1.850000	61.400000	87.770000	396.000000	0.000000	151.000000	60.000000	0.000000	0.000000
1.860000	61.400000	87.770000	493.000000	0.000000	151.000000	60.000000	0.000000	0.000000
1.870000	61.130000	87.400000	546.000000	0.000000	150.000000	60.000000	-27.000000	-37.000000
1.880000	61.130000	86.990000	569.000000	0.000000	150.000000	60.000000	0.000000	-41.000000
1.890000	61.200000	86.490000	605.000000	0.000000	150.000000	60.000000	7.000000	-50.000000
1.900000	61.260000	85.880000	616.000000	0.000000	150.000000	60.000000	6.000000	-61.000000
1.910000	61.260000	85.230000	611.000000	0.000000	150.000000	60.000000	0.000000	-65.000000
1.920000	61.310000	84.610000	620.000000	0.000000	150.000000	60.000000	5.000000	-62.000000
1.930000	61.310000	84.030000	625.000000	0.000000	151.000000	60.000000	0.000000	-58.000000
1.940000	61.310000	83.530000	630.000000	0.000000	151.000000	60.000000	0.000000	-50.000000
1.950000	61.140000	83.120000	627.000000	0.000000	152.000000	59.000000	-17.000000	-41.000000
1.960000	60.940000	82.770000	611.000000	0.000000	152.000000	59.000000	-20.000000	-35.000000
1.970000	60.800000	82.610000	619.000000	0.000000	153.000000	59.000000	-14.000000	-16.000000
1.980000	60.710000	82.550000	611.000000	0.000000	154.000000	58.000000	-9.000000	-6.000000
1.990000	60.710000	82.550000	595.000000	0.000000	154.000000	58.000000	0.000000	0.000000
2.000000	60.790000	82.640000	586.000000	0.000000	154.000000	58.000000	8.000000	9.000000
2.010000	60.860000	82.880000	559.000000	0.000000	154.000000	58.000000	7.000000	24.000000
2.020000	61.100000	83.240000	544.000000	0.000000	154.000000	58.000000	24.000000	36.000000
2.030000	61.350000	83.560000	530.000000	0.000000	154.000000	58.000000	25.000000	32.000000
2.040000	61.550000	83.840000	535.000000	0.000000	154.000000	58.000000	20.000000	28.000000
2.050000	61.710000	84.030000	530.000000	0.000000	153.000000	58.000000	16.000000	19.000000
2.060000	61.850000	84.130000	527.000000	0.000000	153.000000	58.000000	14.000000	10.000000
2.070000	61.950000	84.130000	518.000000	0.000000	153.000000	58.000000	10.000000	0.000000
2.080000	62.010000	84.010000	514.000000	0.000000	153.000000	58.000000	6.000000	-12.000000
2.090000	62.010000	83.880000	510.000000	0.000000	153.000000	58.000000	0.000000	-13.000000
2.100000	62.010000	83.720000	509.000000	0.000000	153.000000	58.000000	0.000000	-16.000000
2.110000	62.010000	83.530000	512.000000	0.000000	153.000000	58.000000	0.000000	-19.000000
2.120000	61.860000	83.330000	515.000000	0.000000	153.000000	58.000000	-15.000000	-20.000000
2.130000	61.660000	83.130000	520.000000	0.000000	153.000000	58.000000	-20.000000	-20.000000
2.140000	61.420000	82.980000	512.000000	0.000000	153.000000	58.000000	-24.000000	-15.000000
2.150000	61.190000	82.870000	510.000000	0.000000	153.000000	58.000000	-23.000000	-11.000000
2.160000	60.990000	82.790000	473.000000	0.000000	153.000000	58.000000	-20.000000	-8.000000
2.170000	60.850000	82.710000	362.000000	0.000000	153.000000	58.000000	-14.000000	-8.000000
2.180000	60.740000	82.650000	104.000000	0.000000	153.000000	58.000000	-11.000000	-6.000000
2.190000	60.740000	82.650000	0.000000	1.000000	153.000000	58.000000	0.000000	0.000000
2.200000	60.880000	82.720000	0.000000	0.000000	152.000000	59.000000	14.000000	7.000000
