t	x	y	pressure	penup	azimuth	inclination	v_x	v_y
0.000000	60.010000	80.270000	76.000000	1.000000	139.000000	61.000000	0.000000	0.000000
0.010000	60.450000	79.760000	203.000000	0.000000	141.000000	61.000000	44.000000	-51.000000
0.020000	60.540000	79.680000	249.000000	0.000000	143.000000	62.000000	9.000000	-8.000000
0.030000	60.540000	79.680000	361.000000	0.000000	144.000000	61.000000	0.000000	0.000000
0.040000	60.710000	79.680000	446.000000	0.000000	146.000000	62.000000	17.000000	0.000000
0.050000	60.920000	79.680000	495.000000	0.000000	146.000000	62.000000	21.000000	0.000000
0.060000	61.320000	79.840000	524.000000	0.000000	147.000000	61.000000	40.000000	16.000000
0.070000	61.840000	80.050000	561.000000	0.000000	147.000000	61.000000	52.000000	21.000000
0.080000	62.560000	80.350000	567.000000	0.000000	147.000000	61.000000	72.000000	30.000000
0.090000	63.330000	80.790000	584.000000	0.000000	147.000000	61.000000	77.000000	44.000000
0.100000	64.040000	81.330000	589.000000	0.000000	147.000000	61.000000	71.000000	54.000000
0.110000	64.700000	81.950000	591.000000	0.000000	147.000000	61.000000	66.000000	62.000000
0.120000	64.990000	82.460000	595.000000	0.000000	148.000000	60.000000	29.000000	51.000000
0.130000	64.810000	83.260000	603.000000	0.000000	148.000000	60.000000	-18.000000	80.000000
0.140000	64.320000	84.280000	608.000000	0.000000	148.000000	60.000000	-49.000000	102.000000
0.150000	63.220000	84.780000	619.000000	0.000000	149.000000	59.000000	-110.000000	50.000000
0.160000	61.820000	85.010000	619.000000	0.000000	151.000000	60.000000	-140.000000	23.000000
0.170000	60.220000	85.070000	636.000000	0.000000	151.000000	60.000000	-160.000000	6.000000
0.180000	59.030000	84.940000	644.000000	0.000000	152.000000	60.000000	-119.000000	-13.000000
0.190000	58.660000	84.800000	616.000000	0.000000	152.000000	60.000000	-37.000000	-14.000000
0.200000	58.840000	84.440000	624.000000	0.000000	154.000000	60.000000	18.000000	-36.000000
0.210000	59.680000	83.950000	644.000000	0.000000	154.000000	60.000000	84.000000	-49.000000
0.220000	61.080000	83.270000	650.000000	0.000000	154.000000	60.000000	140.000000	-68.000000
0.230000	62.860000	82.590000	659.000000	0.000000	154.000000	60.000000	178.000000	-68.000000
0.240000	64.770000	81.910000	659.000000	0.000000	154.000000	60.000000	191.000000	-68.000000
0.250000	66.070000	81.150000	663.000000	0.000000	154.000000	60.000000	130.000000	-76.000000
0.260000	66.950000	80.340000	696.000000	0.000000	153.000000	61.000000	88.000000	-81.000000
0.270000	67.030000	79.380000	773.000000	0.000000	153.000000	61.000000	8.000000	-96.000000
0.280000	66.330000	78.290000	827.000000	0.000000	153.000000	61.000000	-70.000000	-109.000000
0.290000	65.120000	77.120000	825.000000	0.000000	151.000000	61.000000	-121.000000	-117.000000
0.300000	63.370000	76.020000	821.000000	0.000000	151.000000	61.000000	-175.000000	-110.000000
0.310000	61.320000	75.110000	761.000000	0.000000	151.000000	61.000000	-205.000000	-91.000000
0.320000	59.060000	74.320000	757.000000	0.000000	150.000000	60.000000	-226.000000	-79.000000
0.330000	56.970000	74.090000	743.000000	0.000000	150.000000	60.000000	-209.000000	-23.000000
0.340000	55.390000	74.320000	694.000000	0.000000	150.000000	60.000000	-158.000000	23.000000
0.350000	54.150000	74.860000	670.000000	0.000000	148.000000	60.000000	-124.000000	54.000000
0.360000	53.410000	75.680000	614.000000	0.000000	149.000000	59.000000	-74.000000	82.000000
0.370000	53.270000	76.710000	545.000000	0.000000	147.000000	59.000000	-14.000000	103.000000
0.380000	53.520000	77.870000	502.000000	0.000000	147.000000	59.000000	25.000000	116.000000
0.390000	54.590000	79.410000	448.000000	0.000000	146.000000	60.000000	107.000000	154.000000
0.400000	56.600000	80.940000	469.000000	0.000000	146.000000	60.000000	201.000000	153.000000
0.410000	59.230000	82.460000	486.000000	0.000000	146.000000	60.000000	263.000000	152.000000
0.420000	61.980000	83.560000	507.000000	0.000000	146.000000	60.000000	275.000000	110.000000
0.430000	64.720000	84.330000	526.000000	0.000000	148.000000	60.000000	274.000000	77.000000
0.440000	67.440000	84.880000	540.000000	0.000000	148.000000	60.000000	272.000000	55.000000
0.450000	69.440000	84.980000	548.000000	0.000000	150.000000	60.000000	200.000000	10.000000
0.460000	70.410000	84.620000	562.000000	0.000000	151.000000	61.000000	97.000000	-36.000000
0.470000	70.680000	83.960000	611.000000	0.000000	153.000000	61.000000	27.000000	-66.000000
0.480000	70.170000	83.220000	637.000000	0.000000	153.000000	61.000000	-51.000000	-74.000000
0.490000	68.590000	82.240000	647.000000	0.000000	153.000000	61.000000	-158.000000	-98.000000
0.500000	66.290000	81.110000	644.000000	0.000000	153.000000	61.000000	-230.000000	-113.000000
0.510000	63.390000	79.910000	619.000000	0.000000	153.000000	61.000000	-290.000000	-120.000000
0.520000	60.030000	78.670000	619.000000	0.000000	153.000000	61.000000	-336.000000	-124.000000
0.530000	56.350000	77.610000	625.000000	0.000000	153.000000	61.000000	-368.000000	-106.000000
0.540000	52.690000	76.690000	627.000000	0.000000	151.000000	61.000000	-366.000000	-92.000000
0.550000	50.070000	76.050000	627.000000	0.000000	151.000000	61.000000	-262.000000	-64.000000
0.560000	48.140000	75.770000	624.000000	0.000000	150.000000	60.000000	-193.000000	-28.000000
0.570000	47.290000	75.720000	627.000000	0.000000	150.000000	60.000000	-85.000000	-5.000000
0.580000	47.440000	75.860000	617.000000	0.000000	148.000000	60.000000	15.000000	14.000000
0.590000	48.260000	76.310000	644.000000	0.000000	148.000000	60.000000	82.000000	45.000000
0.600000	49.990000	76.980000	661.000000	0.000000	148.000000	60.000000	173.000000	67.000000
0.610000	52.670000	77.830000	688.000000	0.000000	146.000000	60.000000	268.000000	85.000000
0.620000	55.980000	78.730000	722.000000	0.000000	148.000000	60.000000	331.000000	90.000000
0.630000	59.870000	79.660000	725.000000	0.000000	148.000000	60.000000	389.000000	93.000000
0.640000	63.500000	80.560000	724.000000	0.000000	149.000000	59.000000	363.000000	90.000000
0.650000	66.960000	81.220000	727.000000	0.000000	151.000000	60.000000	346.000000	66.000000
0.660000	70.090000	81.710000	713.000000	0.000000	151.000000	60.000000	313.000000	49.000000
0.670000	72.460000	81.980000	681.000000	0.000000	152.000000	60.000000	237.000000	27.000000
0.680000	74.320000	82.200000	610.000000	0.000000	154.000000	60.000000	186.000000	22.000000
0.690000	75.420000	82.340000	491.000000	0.000000	154.000000	60.000000	110.000000	14.000000
0.700000	75.850000	82.420000	253.000000	0.000000	156.000000	61.000000	43.000000	8.000000
0.710000	75.850000	82.420000	0.000000	1.000000	156.000000	61.000000	0.000000	0.000000
0.720000	75.330000	82.500000	0.000000	0.000000	156.000000	61.000000	-52.000000	8.000000
0.730000	74.350000	82.500000	0.000000	0.000000	156.000000	61.000000	-98.000000	0.000000
0.740000	73.050000	82.500000	0.000000	0.000000	156.000000	61.000000	-130.000000	0.000000
0.750000	71.360000	82.370000	0.000000	0.000000	156.000000	61.000000	-169.000000	-13.000000
0.760000	69.480000	82.140000	0.000000	0.000000	156.000000	61.000000	-188.000000	-23.000000
0.770000	67.480000	81.830000	0.000000	0.000000	156.000000	61.000000	-200.000000	-31.000000
0.780000	65.570000	81.490000	0.000000	0.000000	153.000000	61.000000	-191.000000	-34.000000
0.790000	63.960000	81.110000	0.000000	0.000000	153.000000	61.000000	-161.000000	-38.000000
0.800000	62.560000	80.710000	0.000000	0.000000	151.000000	61.000000	-140.000000	-40.000000
0.810000	61.560000	80.400000	0.000000	0.000000	148.000000	61.000000	-100.000000	-31.000000
0.820000	60.940000	80.150000	0.000000	0.000000	147.000000	61.000000	-62.000000	-25.000000
0.830000	60.580000	80.020000	0.000000	0.000000	144.000000	61.000000	-36.000000	-13.000000
0.840000	60.370000	79.970000	0.000000	0.000000	142.000000	61.000000	-21.000000	-5.000000
0.850000	60.180000	79.890000	0.000000	0.000000	141.000000	61.000000	-19.000000	-8.000000
0.860000	60.050000	79.810000	0.000000	0.000000	139.000000	61.000000	-13.000000	-8.000000
0.870000	59.940000	79.810000	0.000000	0.000000	139.000000	61.000000	-11.000000	0.000000
0.880000	59.850000	79.760000	0.000000	0.000000	138.000000	60.000000	-9.000000	-5.000000
0.890000	59.850000	79.810000	0.000000	0.000000	139.000000	61.000000	0.000000	5.000000
0.900000	59.800000	79.900000	0.000000	0.000000	139.000000	61.000000	-5.000000	9.000000
0.910000	59.800000	80.030000	0.000000	0.000000	139.000000	61.000000	0.000000	13.000000
0.920000	59.800000	80.130000	0.000000	0.000000	141.000000	61.000000	0.000000	10.000000
0.930000	59.800000	80.260000	0.000000	0.000000	141.000000	61.000000	0.000000	13.000000
0.940000	59.750000	80.390000	0.000000	0.000000	142.000000	61.000000	-5.000000	13.000000
0.950000	59.660000	80.480000	0.000000	0.000000	144.000000	61.000000	-9.000000	9.000000
0.960000	59.490000	80.480000	0.000000	0.000000	144.000000	61.000000	-17.000000	0.000000
0.970000	59.300000	80.540000	0.000000	0.000000	145.000000	60.000000	-19.000000	6.000000
0.980000	59.100000	80.540000	0.000000	0.000000	145.000000	60.000000	-20.000000	0.000000
0.990000	58.960000	80.540000	0.000000	0.000000	145.000000	60.000000	-14.000000	0.000000
1.000000	58.850000	80.540000	0.000000	0.000000	145.000000	60.000000	-11.000000	0.000000
1.010000	58.800000	80.630000	0.000000	0.000000	145.000000	60.000000	-5.000000	9.000000
1.020000	58.800000	80.700000	0.000000	0.000000	146.000000	60.000000	0.000000	7.000000
1.030000	58.720000	80.790000	0.000000	0.000000	146.000000	60.000000	-8.000000	9.000000
1.040000	58.720000	80.900000	0.000000	0.000000	146.000000	60.000000	0.000000	11.000000
1.050000	58.720000	81.000000	0.000000	0.000000	146.000000	60.000000	0.000000	10.000000
1.060000	58.720000	81.100000	0.000000	0.000000	148.000000	60.000000	0.000000	10.000000
1.070000	58.870000	81.180000	0.000000	0.000000	148.000000	60.000000	15.000000	8.000000
1.080000	59.030000	81.230000	0.000000	0.000000	148.000000	60.000000	16.000000	5.000000
1.090000	59.030000	81.230000	149.000000	1.000000	151.000000	60.000000	0.000000	0.000000
1.100000	59.300000	81.380000	191.000000	0.000000	151.000000	60.000000	27.000000	15.000000
1.110000	59.350000	81.490000	289.000000	0.000000	151.000000	60.000000	5.000000	11.000000
1.120000	59.350000	81.540000	387.000000	0.000000	153.000000	59.000000	0.000000	5.000000
1.130000	59.290000	81.540000	431.000000	0.000000	153.000000	59.000000	-6.000000	0.000000
1.140000	59.170000	81.620000	481.000000	0.000000	153.000000	59.000000	-12.000000	8.000000
1.150000	59.020000	81.620000	512.000000	0.000000	154.000000	58.000000	-15.000000	0.000000
1.160000	58.890000	81.620000	524.000000	0.000000	154.000000	58.000000	-13.000000	0.000000
1.170000	58.660000	81.490000	529.000000	0.000000	154.000000	58.000000	-23.000000	-13.000000
1.180000	58.360000	81.310000	537.000000	0.000000	153.000000	58.000000	-30.000000	-18.000000
1.190000	58.050000	81.120000	535.000000	0.000000	153.000000	58.000000	-31.000000	-19.000000
1.200000	57.770000	80.910000	533.000000	0.000000	151.000000	58.000000	-28.000000	-21.000000
1.210000	57.550000	80.700000	537.000000	0.000000	150.000000	57.000000	-22.000000	-21.000000
1.220000	57.420000	80.500000	527.000000	0.000000	150.000000	57.000000	-13.000000	-20.000000
1.230000	57.350000	80.320000	519.000000	0.000000	148.000000	57.000000	-7.000000	-18.000000
1.240000	57.350000	80.150000	488.000000	0.000000	147.000000	58.000000	0.000000	-17.000000
1.250000	57.350000	80.080000	470.000000	0.000000	147.000000	58.000000	0.000000	-7.000000
1.260000	57.400000	80.020000	469.000000	0.000000	146.000000	57.000000	5.000000	-6.000000
1.270000	57.550000	79.950000	448.000000	0.000000	146.000000	57.000000	15.000000	-7.000000
1.280000	57.850000	80.110000	445.000000	0.000000	146.000000	57.000000	30.000000	16.000000
1.290000	58.250000	80.420000	448.000000	0.000000	147.000000	58.000000	40.000000	31.000000
1.300000	58.560000	80.750000	447.000000	0.000000	147.000000	58.000000	31.000000	33.000000
1.310000	58.810000	81.080000	460.000000	0.000000	147.000000	58.000000	25.000000	33.000000
1.320000	59.010000	81.400000	467.000000	0.000000	149.000000	58.000000	20.000000	32.000000
1.330000	59.010000	81.570000	512.000000	0.000000	149.000000	58.000000	0.000000	17.000000
1.340000	59.010000	81.630000	518.000000	0.000000	149.000000	58.000000	0.000000	6.000000
1.350000	59.010000	81.550000	530.000000	0.000000	150.000000	58.000000	0.000000	-8.000000
1.360000	58.950000	81.410000	543.000000	0.000000	151.000000	58.000000	-6.000000	-14.000000
1.370000	58.900000	81.160000	538.000000	0.000000	151.000000	58.000000	-5.000000	-25.000000
1.380000	58.840000	80.840000	524.000000	0.000000	151.000000	58.000000	-6.000000	-32.000000
1.390000	58.760000	80.460000	501.000000	0.000000	151.000000	58.000000	-8.000000	-38.000000
1.400000	58.760000	80.170000	460.000000	0.000000	151.000000	58.000000	0.000000	-29.000000
1.410000	58.820000	79.940000	377.000000	0.000000	150.000000	58.000000	6.000000	-23.000000
1.420000	58.880000	79.760000	218.000000	0.000000	150.000000	58.000000	6.000000	-18.000000
1.430000	58.880000	79.760000	0.000000	1.000000	150.000000	58.000000	0.000000	0.000000
1.440000	58.930000	79.670000	0.000000	0.000000	149.000000	59.000000	5.000000	-9.000000
1.450000	58.930000	79.820000	0.000000	0.000000	149.000000	59.000000	0.000000	15.000000
1.460000	58.930000	80.160000	0.000000	0.000000	149.000000	59.000000	0.000000	34.000000
1.470000	58.980000	80.620000	0.000000	0.000000	149.000000	59.000000	5.000000	46.000000
1.480000	58.980000	81.150000	0.000000	0.000000	149.000000	59.000000	0.000000	53.000000
1.490000	59.080000	81.770000	0.000000	0.000000	149.000000	59.000000	10.000000	62.000000
1.500000	59.180000	82.440000	0.000000	0.000000	149.000000	59.000000	10.000000	67.000000
1.510000	59.290000	83.250000	0.000000	0.000000	147.000000	59.000000	11.000000	81.000000
1.520000	59.430000	83.990000	0.000000	0.000000	149.000000	58.000000	14.000000	74.000000
1.530000	59.610000	84.690000	0.000000	0.000000	149.000000	58.000000	18.000000	70.000000
1.540000	59.610000	84.690000	262.000000	1.000000	149.000000	58.000000	0.000000	0.000000
1.550000	59.680000	85.190000	314.000000	0.000000	151.000000	58.000000	7.000000	50.000000
1.560000	59.590000	85.330000	344.000000	0.000000	151.000000	58.000000	-9.000000	14.000000
1.570000	59.530000	85.250000	430.000000	0.000000	151.000000	58.000000	-6.000000	-8.000000
1.580000	59.530000	85.040000	473.000000	0.000000	153.000000	58.000000	0.000000	-21.000000
1.590000	59.530000	84.720000	499.000000	0.000000	153.000000	58.000000	0.000000	-32.000000
1.600000	59.610000	84.380000	526.000000	0.000000	155.000000	58.000000	8.000000	-34.000000
1.610000	59.680000	83.840000	535.000000	0.000000	155.000000	58.000000	7.000000	-54.000000
1.620000	59.760000	83.180000	535.000000	0.000000	155.000000	58.000000	8.000000	-66.000000
1.630000	59.840000	82.520000	533.000000	0.000000	155.000000	58.000000	8.000000	-66.000000
1.640000	59.960000	81.860000	512.000000	0.000000	155.000000	58.000000	12.000000	-66.000000
1.650000	60.020000	81.200000	465.000000	0.000000	155.000000	58.000000	6.000000	-66.000000
1.660000	60.020000	80.650000	364.000000	0.000000	155.000000	58.000000	0.000000	-55.000000
1.670000	60.080000	80.170000	136.000000	0.000000	155.000000	58.000000	6.000000	-48.000000
1.680000	60.080000	80.170000	0.000000	1.000000	154.000000	58.000000	0.000000	0.000000
1.690000	60.180000	80.330000	0.000000	0.000000	154.000000	58.000000	10.000000	16.000000
1.700000	60.180000	80.610000	0.000000	0.000000	154.000000	58.000000	0.000000	28.000000
1.710000	60.260000	81.220000	0.000000	0.000000	152.000000	59.000000	8.000000	61.000000
1.720000	60.260000	81.910000	0.000000	0.000000	152.000000	59.000000	0.000000	69.000000
1.730000	60.160000	82.660000	0.000000	0.000000	150.000000	58.000000	-10.000000	75.000000
1.740000	60.100000	83.560000	0.000000	0.000000	150.000000	58.000000	-6.000000	90.000000
1.750000	60.100000	84.500000	0.000000	0.000000	151.000000	58.000000	0.000000	94.000000
1.760000	60.220000	85.470000	0.000000	0.000000	150.000000	57.000000	12.000000	97.000000
1.770000	60.220000	85.470000	89.000000	1.000000	150.000000	57.000000	0.000000	0.000000
1.780000	60.620000	86.030000	301.000000	0.000000	150.000000	57.000000	40.000000	56.000000
1.790000	60.670000	86.030000	317.000000	0.000000	150.000000	57.000000	5.000000	0.000000
1.800000	60.670000	85.930000	334.000000	0.000000	150.000000	57.000000	0.000000	-10.000000
1.810000	60.840000	85.640000	420.000000	0.000000	151.000000	58.000000	17.000000	-29.000000
1.820000	61.000000	85.220000	455.000000	0.000000	151.000000	58.000000	16.000000	-42.000000
1.830000	61.140000	84.780000	489.000000	0.000000	151.000000	58.000000	14.000000	-44.000000
1.840000	61.350000	84.240000	512.000000	0.000000	151.000000	58.000000	21.000000	-54.000000
1.850000	61.500000	83.630000	524.000000	0.000000	151.000000	58.000000	15.000000	-61.000000
1.860000	61.500000	82.980000	541.000000	0.000000	151.000000	58.000000	0.000000	-65.000000
1.870000	61.500000	82.390000	546.000000	0.000000	152.000000	57.000000	0.000000	-59.000000
1.880000	61.380000	81.870000	536.000000	0.000000	152.000000	57.000000	-12.000000	-52.000000
1.890000	61.200000	81.380000	543.000000	0.000000	152.000000	57.000000	-18.000000	-49.000000
1.900000	60.970000	80.960000	538.000000	0.000000	152.000000	57.000000	-23.000000	-42.000000
1.910000	60.710000	80.730000	526.000000	0.000000	152.000000	57.000000	-26.000000	-23.000000
1.920000	60.480000	80.640000	518.000000	0.000000	154.000000	57.000000	-23.000000	-9.000000
1.930000	60.310000	80.640000	494.000000	0.000000	154.000000	57.000000	-17.000000	0.000000
1.940000	60.150000	80.700000	488.000000	0.000000	154.000000	57.000000	-16.000000	6.000000
1.950000	60.050000	80.780000	493.000000	0.000000	154.000000	57.000000	-10.000000	8.000000
1.960000	60.050000	80.850000	472.000000	0.000000	154.000000	57.000000	0.000000	7.000000
1.970000	60.050000	80.920000	464.000000	0.000000	154.000000	57.000000	0.000000	7.000000
1.980000	60.320000	81.010000	460.000000	0.000000	154.000000	57.000000	27.000000	9.000000
1.990000	60.670000	81.120000	449.000000	0.000000	154.000000	57.000000	35.000000	11.000000
2.000000	61.140000	81.240000	423.000000	0.000000	154.000000	57.000000	47.000000	12.000000
2.010000	61.510000	81.330000	407.000000	0.000000	154.000000	57.000000	37.000000	9.000000
2.020000	61.820000	81.390000	379.000000	0.000000	154.000000	57.000000	31.000000	6.000000
2.030000	61.990000	81.390000	341.000000	0.000000	154.000000	57.000000	17.000000	0.000000
2.040000	61.990000	81.320000	343.000000	0.000000	154.000000	57.000000	0.000000	-7.000000
2.050000	61.990000	81.210000	351.000000	0.000000	152.000000	57.000000	0.000000	-11.000000
2.060000	61.750000	81.070000	349.000000	0.000000	152.000000	57.000000	-24.000000	-14.000000
2.070000	61.490000	80.900000	363.000000	0.000000	152.000000	57.000000	-26.000000	-17.000000
2.080000	61.200000	80.740000	379.000000	0.000000	152.000000	57.000000	-29.000000	-16.000000
2.090000	61.050000	80.660000	371.000000	0.000000	152.000000	57.000000	-15.000000	-8.000000
2.100000	60.930000	80.660000	367.000000	0.000000	152.000000	57.000000	-12.000000	0.000000
2.110000	60.880000	80.580000	334.000000	0.000000	151.000000	58.000000	-5.000000	-8.000000
2.120000	60.880000	80.520000	190.000000	0.000000	151.000000	58.000000	0.000000	-6.000000
2.130000	60.880000	80.520000	0.000000	1.000000	151.000000	58.000000	0.000000	0.000000
2.140000	60.770000	80.240000	0.000000	0.000000	151.000000	58.000000	-11.000000	-28.000000
2.150000	60.680000	80.110000	0.000000	0.000000	151.000000	58.000000	-9.000000	-13.000000
2.160000	60.740000	80.030000	0.000000	0.000000	150.000000	58.000000	6.000000	-8.000000
2.170000	60.850000	80.030000	0.000000	0.000000	150.000000	58.000000	11.000000	0.000000
2.180000	61.060000	80.210000	0.000000	0.000000	150.000000	58.000000	21.000000	18.000000
2.190000	61.360000	80.450000	0.000000	0.000000	149.000000	59.000000	30.000000	24.000000
2.200000	61.730000	80.640000	0.000000	0.000000	147.000000	59.000000	37.000000	19.000000
2.210000	62.140000	80.810000	0.000000	0.000000	147.000000	59.000000	41.000000	17.000000
