t	x	y	pressure	penup	azimuth	inclination	v_x	v_y
0.000000	94.220000	80.780000	20.000000	1.000000	113.000000	56.000000	0.000000	0.000000
0.010000	94.220000	80.780000	98.000000	0.000000	113.000000	56.000000	0.000000	0.000000
0.020000	94.220000	80.780000	168.000000	0.000000	113.000000	56.000000	0.000000	0.000000
0.030000	94.270000	81.120000	242.000000	0.000000	116.000000	56.000000	5.000000	34.000000
0.040000	94.270000	81.250000	315.000000	0.000000	116.000000	56.000000	0.000000	13.000000
0.050000	94.270000	81.390000	384.000000	0.000000	116.000000	56.000000	0.000000	14.000000
0.060000	94.270000	81.470000	414.000000	0.000000	117.000000	56.000000	0.000000	8.000000
0.070000	94.190000	81.570000	446.000000	0.000000	117.000000	56.000000	-8.000000	10.000000
0.080000	94.090000	81.650000	469.000000	0.000000	117.000000	56.000000	-10.000000	8.000000
0.090000	93.970000	81.700000	469.000000	0.000000	118.000000	56.000000	-12.000000	5.000000
0.100000	93.800000	81.600000	475.000000	0.000000	118.000000	56.000000	-17.000000	-10.000000
0.110000	93.600000	81.400000	475.000000	0.000000	118.000000	56.000000	-20.000000	-20.000000
0.120000	93.410000	81.030000	481.000000	0.000000	118.000000	56.000000	-19.000000	-37.000000
0.130000	93.250000	80.660000	472.000000	0.000000	118.000000	56.000000	-16.000000	-37.000000
0.140000	93.150000	80.260000	472.000000	0.000000	118.000000	56.000000	-10.000000	-40.000000
0.150000	93.150000	79.970000	474.000000	0.000000	118.000000	56.000000	0.000000	-29.000000
0.160000	93.230000	79.760000	465.000000	0.000000	118.000000	56.000000	8.000000	-21.000000
0.170000	93.430000	79.670000	477.000000	0.000000	118.000000	56.000000	20.000000	-9.000000
0.180000	93.650000	79.750000	493.000000	0.000000	117.000000	56.000000	22.000000	8.000000
0.190000	93.900000	79.950000	507.000000	0.000000	117.000000	56.000000	25.000000	20.000000
0.200000	94.180000	80.320000	518.000000	0.000000	117.000000	56.000000	28.000000	37.000000
0.210000	94.390000	80.730000	530.000000	0.000000	117.000000	56.000000	21.000000	41.000000
0.220000	94.560000	81.160000	537.000000	0.000000	117.000000	56.000000	17.000000	43.000000
0.230000	94.630000	81.410000	570.000000	0.000000	118.000000	57.000000	7.000000	25.000000
0.240000	94.630000	81.480000	602.000000	0.000000	119.000000	56.000000	0.000000	7.000000
0.250000	94.630000	81.480000	620.000000	0.000000	119.000000	56.000000	0.000000	0.000000
0.260000	94.570000	81.410000	617.000000	0.000000	119.000000	56.000000	-6.000000	-7.000000
0.270000	94.570000	81.410000	619.000000	0.000000	119.000000	56.000000	0.000000	0.000000
0.280000	94.510000	81.200000	624.000000	0.000000	119.000000	56.000000	-6.000000	-21.000000
0.290000	94.510000	80.880000	625.000000	0.000000	119.000000	56.000000	0.000000	-32.000000
0.300000	94.510000	80.660000	622.000000	0.000000	119.000000	56.000000	0.000000	-22.000000
0.310000	94.590000	80.480000	616.000000	0.000000	119.000000	56.000000	8.000000	-18.000000
0.320000	94.770000	80.330000	602.000000	0.000000	118.000000	57.000000	18.000000	-15.000000
0.330000	95.000000	80.200000	551.000000	0.000000	118.000000	57.000000	23.000000	-13.000000
0.340000	95.240000	80.200000	499.000000	0.000000	118.000000	57.000000	24.000000	0.000000
0.350000	95.480000	80.200000	362.000000	0.000000	118.000000	57.000000	24.000000	0.000000
0.360000	95.670000	80.270000	161.000000	0.000000	118.000000	57.000000	19.000000	7.000000
0.370000	95.670000	80.270000	0.000000	1.000000	118.000000	57.000000	0.000000	0.000000
0.380000	95.970000	80.620000	0.000000	0.000000	116.000000	57.000000	30.000000	35.000000
0.390000	96.030000	80.910000	0.000000	0.000000	116.000000	57.000000	6.000000	29.000000
0.400000	96.030000	81.330000	0.000000	0.000000	116.000000	57.000000	0.000000	42.000000
0.410000	96.030000	81.840000	0.000000	0.000000	116.000000	57.000000	0.000000	51.000000
0.420000	96.030000	82.310000	0.000000	0.000000	116.000000	57.000000	0.000000	47.000000
0.430000	96.120000	82.750000	0.000000	0.000000	116.000000	56.000000	9.000000	44.000000
0.440000	96.180000	83.140000	0.000000	0.000000	116.000000	56.000000	6.000000	39.000000
0.450000	96.180000	83.480000	0.000000	0.000000	117.000000	56.000000	0.000000	34.000000
0.460000	96.180000	83.830000	0.000000	0.000000	117.000000	56.000000	0.000000	35.000000
0.470000	96.180000	84.150000	0.000000	0.000000	116.000000	55.000000	0.000000	32.000000
0.480000	96.130000	84.480000	0.000000	0.000000	116.000000	55.000000	-5.000000	33.000000
0.490000	96.130000	84.480000	124.000000	1.000000	116.000000	55.000000	0.000000	0.000000
0.500000	96.130000	85.010000	171.000000	0.000000	116.000000	55.000000	0.000000	53.000000
0.510000	96.180000	85.150000	279.000000	0.000000	116.000000	55.000000	5.000000	14.000000
0.520000	96.180000	85.150000	371.000000	0.000000	116.000000	55.000000	0.000000	0.000000
0.530000	96.180000	85.150000	423.000000	0.000000	115.000000	55.000000	0.000000	0.000000
0.540000	96.180000	84.990000	473.000000	0.000000	115.000000	55.000000	0.000000	-16.000000
0.550000	96.180000	84.600000	502.000000	0.000000	115.000000	55.000000	0.000000	-39.000000
0.560000	96.180000	84.050000	519.000000	0.000000	115.000000	55.000000	0.000000	-55.000000
0.570000	96.180000	83.450000	553.000000	0.000000	117.000000	56.000000	0.000000	-60.000000
0.580000	96.180000	82.840000	565.000000	0.000000	117.000000	56.000000	0.000000	-61.000000
0.590000	96.180000	82.230000	563.000000	0.000000	117.000000	56.000000	0.000000	-61.000000
0.600000	96.180000	81.680000	556.000000	0.000000	117.000000	56.000000	0.000000	-55.000000
0.610000	96.180000	81.280000	504.000000	0.000000	117.000000	56.000000	0.000000	-40.000000
0.620000	96.230000	81.000000	371.000000	0.000000	119.000000	56.000000	5.000000	-28.000000
0.630000	96.330000	80.920000	257.000000	0.000000	119.000000	56.000000	10.000000	-8.000000
0.640000	96.460000	81.020000	108.000000	0.000000	118.000000	57.000000	13.000000	10.000000
0.650000	96.460000	81.020000	0.000000	1.000000	118.000000	57.000000	0.000000	0.000000
0.660000	96.840000	81.610000	0.000000	0.000000	118.000000	57.000000	38.000000	59.000000
0.670000	96.890000	81.970000	0.000000	0.000000	118.000000	57.000000	5.000000	36.000000
0.680000	96.890000	82.350000	0.000000	0.000000	118.000000	57.000000	0.000000	38.000000
0.690000	96.890000	82.790000	0.000000	0.000000	118.000000	57.000000	0.000000	44.000000
0.700000	96.970000	83.260000	0.000000	0.000000	118.000000	57.000000	8.000000	47.000000
0.710000	96.970000	83.600000	0.000000	0.000000	118.000000	57.000000	0.000000	34.000000
0.720000	97.030000	83.940000	0.000000	0.000000	118.000000	57.000000	6.000000	34.000000
0.730000	97.030000	84.260000	0.000000	0.000000	118.000000	57.000000	0.000000	32.000000
0.740000	97.120000	84.560000	0.000000	0.000000	118.000000	57.000000	9.000000	30.000000
0.750000	97.120000	84.560000	24.000000	1.000000	118.000000	57.000000	0.000000	0.000000
0.760000	97.260000	85.120000	130.000000	0.000000	118.000000	57.000000	14.000000	56.000000
0.770000	97.260000	85.230000	212.000000	0.000000	117.000000	56.000000	0.000000	11.000000
0.780000	97.260000	85.230000	335.000000	0.000000	117.000000	56.000000	0.000000	0.000000
0.790000	97.200000	85.180000	445.000000	0.000000	117.000000	56.000000	-6.000000	-5.000000
0.800000	97.200000	85.110000	540.000000	0.000000	117.000000	56.000000	0.000000	-7.000000
0.810000	97.200000	84.820000	586.000000	0.000000	117.000000	56.000000	0.000000	-29.000000
0.820000	97.200000	84.390000	616.000000	0.000000	117.000000	56.000000	0.000000	-43.000000
0.830000	97.100000	83.760000	642.000000	0.000000	117.000000	56.000000	-10.000000	-63.000000
0.840000	96.990000	83.190000	675.000000	0.000000	117.000000	56.000000	-11.000000	-57.000000
0.850000	96.990000	82.650000	682.000000	0.000000	117.000000	56.000000	0.000000	-54.000000
0.860000	97.070000	82.240000	688.000000	0.000000	118.000000	57.000000	8.000000	-41.000000
0.870000	97.160000	82.010000	669.000000	0.000000	119.000000	56.000000	9.000000	-23.000000
0.880000	97.270000	81.890000	662.000000	0.000000	119.000000	56.000000	11.000000	-12.000000
0.890000	97.410000	81.890000	670.000000	0.000000	119.000000	56.000000	14.000000	0.000000
0.900000	97.580000	81.970000	664.000000	0.000000	119.000000	56.000000	17.000000	8.000000
0.910000	97.580000	81.970000	662.000000	0.000000	119.000000	56.000000	0.000000	0.000000
0.920000	98.010000	82.070000	662.000000	0.000000	120.000000	57.000000	43.000000	10.000000
0.930000	98.100000	82.000000	667.000000	0.000000	120.000000	57.000000	9.000000	-7.000000
0.940000	98.100000	81.780000	669.000000	0.000000	120.000000	57.000000	0.000000	-22.000000
0.950000	98.190000	81.510000	676.000000	0.000000	120.000000	57.000000	9.000000	-27.000000
0.960000	98.250000	81.240000	676.000000	0.000000	120.000000	57.000000	6.000000	-27.000000
0.970000	98.250000	81.000000	678.000000	0.000000	120.000000	57.000000	0.000000	-24.000000
0.980000	98.250000	80.790000	682.000000	0.000000	120.000000	57.000000	0.000000	-21.000000
0.990000	98.090000	80.640000	676.000000	0.000000	120.000000	57.000000	-16.000000	-15.000000
1.000000	97.910000	80.490000	666.000000	0.000000	120.000000	57.000000	-18.000000	-15.000000
1.010000	97.590000	80.330000	653.000000	0.000000	120.000000	57.000000	-32.000000	-16.000000
1.020000	97.180000	80.130000	639.000000	0.000000	120.000000	57.000000	-41.000000	-20.000000
1.030000	96.770000	79.930000	589.000000	0.000000	120.000000	57.000000	-41.000000	-20.000000
1.040000	96.540000	79.830000	515.000000	0.000000	119.000000	58.000000	-23.000000	-10.000000
1.050000	96.430000	79.830000	353.000000	0.000000	118.000000	57.000000	-11.000000	0.000000
1.060000	96.430000	79.830000	182.000000	0.000000	118.000000	57.000000	0.000000	0.000000
1.070000	96.430000	79.830000	0.000000	1.000000	118.000000	57.000000	0.000000	0.000000
1.080000	96.960000	80.330000	0.000000	0.000000	118.000000	57.000000	53.000000	50.000000
1.090000	97.290000	80.560000	0.000000	0.000000	118.000000	57.000000	33.000000	23.000000
1.100000	97.490000	80.770000	0.000000	0.000000	116.000000	57.000000	20.000000	21.000000
1.110000	97.610000	80.960000	0.000000	0.000000	116.000000	57.000000	12.000000	19.000000
1.120000	97.700000	81.140000	0.000000	0.000000	116.000000	57.000000	9.000000	18.000000
1.130000	97.800000	81.270000	0.000000	0.000000	116.000000	57.000000	10.000000	13.000000
1.140000	97.890000	81.270000	0.000000	0.000000	116.000000	57.000000	9.000000	0.000000
1.150000	97.970000	81.270000	0.000000	0.000000	116.000000	57.000000	8.000000	0.000000
1.160000	98.030000	81.190000	0.000000	0.000000	116.000000	57.000000	6.000000	-8.000000
1.170000	98.030000	81.190000	110.000000	1.000000	116.000000	57.000000	0.000000	0.000000
1.180000	98.030000	81.190000	184.000000	0.000000	117.000000	58.000000	0.000000	0.000000
1.190000	98.030000	81.190000	259.000000	0.000000	119.000000	58.000000	0.000000	0.000000
1.200000	98.390000	80.940000	325.000000	0.000000	119.000000	58.000000	36.000000	-25.000000
1.210000	98.610000	80.940000	393.000000	0.000000	119.000000	58.000000	22.000000	0.000000
1.220000	98.980000	81.020000	436.000000	0.000000	119.000000	58.000000	37.000000	8.000000
1.230000	99.430000	81.180000	473.000000	0.000000	119.000000	58.000000	45.000000	16.000000
1.240000	99.770000	81.410000	493.000000	0.000000	119.000000	58.000000	34.000000	23.000000
1.250000	99.980000	81.690000	488.000000	0.000000	118.000000	57.000000	21.000000	28.000000
1.260000	100.090000	81.900000	496.000000	0.000000	118.000000	57.000000	11.000000	21.000000
1.270000	100.090000	82.080000	504.000000	0.000000	117.000000	56.000000	0.000000	18.000000
1.280000	100.010000	82.220000	519.000000	0.000000	116.000000	55.000000	-8.000000	14.000000
1.290000	99.870000	82.330000	522.000000	0.000000	115.000000	54.000000	-14.000000	11.000000
1.300000	99.690000	82.380000	516.000000	0.000000	115.000000	54.000000	-18.000000	5.000000
1.310000	99.500000	82.330000	515.000000	0.000000	114.000000	53.000000	-19.000000	-5.000000
1.320000	99.300000	82.200000	519.000000	0.000000	114.000000	53.000000	-20.000000	-13.000000
1.330000	99.150000	82.020000	529.000000	0.000000	114.000000	53.000000	-15.000000	-18.000000
1.340000	98.990000	81.760000	540.000000	0.000000	115.000000	54.000000	-16.000000	-26.000000
1.350000	98.860000	81.450000	536.000000	0.000000	116.000000	55.000000	-13.000000	-31.000000
1.360000	98.860000	81.170000	536.000000	0.000000	116.000000	55.000000	0.000000	-28.000000
1.370000	98.860000	80.950000	529.000000	0.000000	117.000000	56.000000	0.000000	-22.000000
1.380000	99.050000	80.810000	509.000000	0.000000	118.000000	57.000000	19.000000	-14.000000
1.390000	99.330000	80.710000	466.000000	0.000000	118.000000	57.000000	28.000000	-10.000000
1.400000	99.680000	80.710000	391.000000	0.000000	118.000000	57.000000	35.000000	0.000000
1.410000	100.020000	80.710000	246.000000	0.000000	116.000000	57.000000	34.000000	0.000000
1.420000	100.020000	80.710000	0.000000	1.000000	116.000000	57.000000	0.000000	0.000000
1.430000	100.450000	80.770000	0.000000	0.000000	116.000000	56.000000	43.000000	6.000000
1.440000	100.550000	80.830000	0.000000	0.000000	116.000000	56.000000	10.000000	6.000000
1.450000	100.550000	80.880000	0.000000	0.000000	114.000000	57.000000	0.000000	5.000000
1.460000	100.410000	81.010000	0.000000	0.000000	115.000000	58.000000	-14.000000	13.000000
1.470000	100.410000	81.180000	0.000000	0.000000	115.000000	58.000000	0.000000	17.000000
1.480000	100.510000	81.370000	0.000000	0.000000	116.000000	58.000000	10.000000	19.000000
1.490000	100.580000	81.560000	0.000000	0.000000	117.000000	59.000000	7.000000	19.000000
1.500000	100.630000	81.750000	0.000000	0.000000	118.000000	60.000000	5.000000	19.000000
1.510000	100.630000	81.990000	0.000000	0.000000	119.000000	60.000000	0.000000	24.000000
1.520000	100.710000	82.260000	0.000000	0.000000	120.000000	60.000000	8.000000	27.000000
1.530000	100.710000	82.260000	172.000000	1.000000	120.000000	60.000000	0.000000	0.000000
1.540000	100.780000	82.530000	203.000000	0.000000	119.000000	60.000000	7.000000	27.000000
1.550000	100.780000	82.590000	255.000000	0.000000	119.000000	60.000000	0.000000	6.000000
1.560000	100.780000	82.590000	335.000000	0.000000	118.000000	59.000000	0.000000	0.000000
1.570000	100.910000	82.450000	373.000000	0.000000	119.000000	58.000000	13.000000	-14.000000
1.580000	100.980000	82.200000	418.000000	0.000000	118.000000	57.000000	7.000000	-25.000000
1.590000	101.040000	81.870000	458.000000	0.000000	117.000000	56.000000	6.000000	-33.000000
1.600000	101.140000	81.530000	465.000000	0.000000	117.000000	56.000000	10.000000	-34.000000
1.610000	101.210000	81.190000	496.000000	0.000000	116.000000	55.000000	7.000000	-34.000000
1.620000	101.210000	80.920000	514.000000	0.000000	117.000000	55.000000	0.000000	-27.000000
1.630000	101.210000	80.690000	535.000000	0.000000	117.000000	55.000000	0.000000	-23.000000
1.640000	101.080000	80.490000	543.000000	0.000000	116.000000	55.000000	-13.000000	-20.000000
1.650000	100.990000	80.440000	564.000000	0.000000	116.000000	55.000000	-9.000000	-5.000000
1.660000	100.910000	80.500000	594.000000	0.000000	116.000000	55.000000	-8.000000	6.000000
1.670000	100.830000	80.620000	595.000000	0.000000	116.000000	55.000000	-8.000000	12.000000
1.680000	100.760000	80.880000	597.000000	0.000000	116.000000	55.000000	-7.000000	26.000000
1.690000	100.760000	81.230000	586.000000	0.000000	116.000000	55.000000	0.000000	35.000000
1.700000	100.760000	81.500000	581.000000	0.000000	116.000000	55.000000	0.000000	27.000000
1.710000	100.860000	81.750000	542.000000	0.000000	116.000000	55.000000	10.000000	25.000000
1.720000	101.010000	81.930000	446.000000	0.000000	116.000000	55.000000	15.000000	18.000000
1.730000	101.170000	82.030000	240.000000	0.000000	116.000000	55.000000	16.000000	10.000000
1.740000	101.170000	82.030000	0.000000	1.000000	116.000000	55.000000	0.000000	0.000000
1.750000	101.560000	82.240000	0.000000	0.000000	117.000000	56.000000	39.000000	21.000000
1.760000	101.790000	82.410000	0.000000	0.000000	117.000000	56.000000	23.000000	17.000000
1.770000	101.910000	82.620000	0.000000	0.000000	117.000000	56.000000	12.000000	21.000000
1.780000	101.960000	82.920000	0.000000	0.000000	118.000000	57.000000	5.000000	30.000000
1.790000	102.060000	83.260000	0.000000	0.000000	118.000000	57.000000	10.000000	34.000000
1.800000	102.150000	83.620000	0.000000	0.000000	119.000000	58.000000	9.000000	36.000000
1.810000	102.210000	83.950000	0.000000	0.000000	119.000000	58.000000	6.000000	33.000000
1.820000	102.290000	84.280000	0.000000	0.000000	119.000000	58.000000	8.000000	33.000000
1.830000	102.290000	84.600000	0.000000	0.000000	119.000000	58.000000	0.000000	32.000000
1.840000	102.290000	84.900000	0.000000	0.000000	118.000000	57.000000	0.000000	30.000000
1.850000	102.290000	85.160000	0.000000	0.000000	118.000000	57.000000	0.000000	26.000000
1.860000	102.290000	85.400000	0.000000	0.000000	119.000000	56.000000	0.000000	24.000000
1.870000	102.290000	85.650000	0.000000	0.000000	117.000000	56.000000	0.000000	25.000000
1.880000	102.290000	85.760000	0.000000	0.000000	117.000000	56.000000	0.000000	11.000000
1.890000	102.290000	85.760000	0.000000	0.000000	117.000000	56.000000	0.000000	0.000000
1.900000	102.290000	85.760000	65.000000	1.000000	117.000000	56.000000	0.000000	0.000000
1.910000	102.290000	85.760000	141.000000	0.000000	117.000000	56.000000	0.000000	0.000000
1.920000	102.290000	85.760000	216.000000	0.000000	117.000000	56.000000	0.000000	0.000000
1.930000	102.290000	85.760000	304.000000	0.000000	117.000000	56.000000	0.000000	0.000000
1.940000	102.290000	85.430000	387.000000	0.000000	117.000000	56.000000	0.000000	-33.000000
1.950000	102.390000	84.990000	443.000000	0.000000	117.000000	56.000000	10.000000	-44.000000
1.960000	102.450000	84.410000	494.000000	0.000000	117.000000	56.000000	6.000000	-58.000000
1.970000	102.530000	83.750000	535.000000	0.000000	117.000000	56.000000	8.000000	-66.000000
1.980000	102.590000	83.100000	538.000000	0.000000	116.000000	55.000000	6.000000	-65.000000
1.990000	102.650000	82.450000	540.000000	0.000000	116.000000	55.000000	6.000000	-65.000000
2.000000	102.650000	81.900000	527.000000	0.000000	118.000000	56.000000	0.000000	-55.000000
2.010000	102.750000	81.410000	460.000000	0.000000	118.000000	56.000000	10.000000	-49.000000
2.020000	102.840000	81.040000	366.000000	0.000000	118.000000	56.000000	9.000000	-37.000000
2.030000	102.930000	80.770000	170.000000	0.000000	118.000000	56.000000	9.000000	-27.000000
2.040000	102.930000	80.770000	0.000000	1.000000	117.000000	56.000000	0.000000	0.000000
2.050000	103.110000	80.570000	0.000000	0.000000	118.000000	57.000000	18.000000	-20.000000
2.060000	103.110000	80.570000	0.000000	0.000000	118.000000	57.000000	0.000000	0.000000
2.070000	103.120000	80.950000	0.000000	0.000000	116.000000	57.000000	1.000000	38.000000
2.080000	102.970000	81.330000	0.000000	0.000000	116.000000	57.000000	-15.000000	38.000000
2.090000	102.770000	81.770000	0.000000	0.000000	116.000000	57.000000	-20.000000	44.000000
2.100000	102.650000	82.240000	0.000000	0.000000	116.000000	57.000000	-12.000000	47.000000
2.110000	102.530000	82.580000	0.000000	0.000000	116.000000	57.000000	-12.000000	34.000000
2.120000	102.420000	82.900000	0.000000	0.000000	116.000000	57.000000	-11.000000	32.000000
2.130000	102.350000	83.200000	0.000000	0.000000	116.000000	57.000000	-7.000000	30.000000
2.140000	102.200000	83.420000	0.000000	0.000000	116.000000	57.000000	-15.000000	22.000000
2.150000	102.000000	83.610000	0.000000	0.000000	118.000000	57.000000	-20.000000	19.000000
2.160000	101.770000	83.740000	0.000000	0.000000	118.000000	57.000000	-23.000000	13.000000
2.170000	101.540000	83.820000	0.000000	0.000000	118.000000	57.000000	-23.000000	8.000000
2.180000	101.320000	83.880000	0.000000	0.000000	118.000000	57.000000	-22.000000	6.000000
2.190000	101.110000	83.880000	0.000000	0.000000	118.000000	57.000000	-21.000000	0.000000
2.200000	100.940000	83.960000	0.000000	0.000000	119.000000	56.000000	-17.000000	8.000000
2.210000	100.780000	83.960000	0.000000	0.000000	119.000000	56.000000	-16.000000	0.000000
2.220000	100.620000	83.960000	0.000000	0.000000	120.000000	57.000000	-16.000000	0.000000
