t	x	y	pressure	penup	azimuth	inclination	v_x	v_y
0.000000	20.670000	30.360000	41.000000	1.000000	110.000000	60.000000	0.000000	0.000000
0.010000	20.900000	30.700000	247.000000	0.000000	110.000000	60.000000	23.000000	34.000000
0.020000	20.900000	30.890000	364.000000	0.000000	110.000000	60.000000	0.000000	19.000000
0.030000	20.900000	31.020000	493.000000	0.000000	113.000000	61.000000	0.000000	13.000000
0.040000	20.850000	31.070000	614.000000	0.000000	113.000000	61.000000	-5.000000	5.000000
0.050000	20.790000	31.070000	699.000000	0.000000	113.000000	61.000000	-6.000000	0.000000
0.060000	20.650000	31.070000	743.000000	0.000000	113.000000	61.000000	-14.000000	0.000000
0.070000	20.460000	31.070000	790.000000	0.000000	113.000000	61.000000	-19.000000	0.000000
0.080000	20.240000	30.900000	796.000000	0.000000	114.000000	61.000000	-22.000000	-17.000000
0.090000	20.030000	30.630000	817.000000	0.000000	114.000000	61.000000	-21.000000	-27.000000
0.100000	19.880000	30.270000	824.000000	0.000000	114.000000	61.000000	-15.000000	-36.000000
0.110000	19.810000	30.040000	827.000000	0.000000	114.000000	61.000000	-7.000000	-23.000000
0.120000	19.810000	29.820000	832.000000	0.000000	114.000000	61.000000	0.000000	-22.000000
0.130000	19.810000	29.610000	827.000000	0.000000	114.000000	61.000000	0.000000	-21.000000
0.140000	19.930000	29.500000	827.000000	0.000000	114.000000	61.000000	12.000000	-11.000000
0.150000	20.090000	29.430000	821.000000	0.000000	114.000000	61.000000	16.000000	-7.000000
0.160000	20.250000	29.500000	823.000000	0.000000	113.000000	61.000000	16.000000	7.000000
0.170000	20.400000	29.680000	823.000000	0.000000	113.000000	61.000000	15.000000	18.000000
0.180000	20.560000	29.930000	817.000000	0.000000	113.000000	61.000000	16.000000	25.000000
0.190000	20.740000	30.300000	815.000000	0.000000	113.000000	61.000000	18.000000	37.000000
0.200000	20.940000	30.650000	814.000000	0.000000	113.000000	61.000000	20.000000	35.000000
0.210000	21.030000	30.980000	818.000000	0.000000	113.000000	61.000000	9.000000	33.000000
0.220000	21.030000	31.120000	818.000000	0.000000	113.000000	61.000000	0.000000	14.000000
0.230000	21.030000	31.120000	823.000000	0.000000	113.000000	61.000000	0.000000	0.000000
0.240000	21.030000	31.120000	826.000000	0.000000	113.000000	61.000000	0.000000	0.000000
0.250000	21.030000	30.990000	832.000000	0.000000	113.000000	61.000000	0.000000	-13.000000
0.260000	21.030000	30.830000	819.000000	0.000000	114.000000	62.000000	0.000000	-16.000000
0.270000	21.090000	30.540000	827.000000	0.000000	114.000000	62.000000	6.000000	-29.000000
0.280000	21.090000	30.300000	834.000000	0.000000	115.000000	62.000000	0.000000	-24.000000
0.290000	21.220000	30.110000	830.000000	0.000000	115.000000	62.000000	13.000000	-19.000000
0.300000	21.320000	30.020000	819.000000	0.000000	115.000000	62.000000	10.000000	-9.000000
0.310000	21.410000	29.920000	736.000000	0.000000	115.000000	62.000000	9.000000	-10.000000
0.320000	21.470000	29.870000	575.000000	0.000000	114.000000	62.000000	6.000000	-5.000000
0.330000	21.560000	29.990000	244.000000	0.000000	114.000000	62.000000	9.000000	12.000000
0.340000	21.560000	29.990000	0.000000	1.000000	114.000000	62.000000	0.000000	0.000000
0.350000	21.860000	30.510000	0.000000	0.000000	114.000000	62.000000	30.000000	52.000000
0.360000	21.860000	30.720000	0.000000	0.000000	114.000000	62.000000	0.000000	21.000000
0.370000	21.860000	30.720000	0.000000	0.000000	114.000000	62.000000	0.000000	0.000000
0.380000	21.860000	30.990000	0.000000	0.000000	114.000000	62.000000	0.000000	27.000000
0.390000	21.860000	31.120000	0.000000	0.000000	113.000000	61.000000	0.000000	13.000000
0.400000	21.860000	31.220000	0.000000	0.000000	113.000000	61.000000	0.000000	10.000000
0.410000	21.860000	31.310000	0.000000	0.000000	113.000000	61.000000	0.000000	9.000000
0.420000	21.860000	31.410000	0.000000	0.000000	112.000000	60.000000	0.000000	10.000000
0.430000	21.860000	31.550000	0.000000	0.000000	112.000000	60.000000	0.000000	14.000000
0.440000	21.860000	31.710000	0.000000	0.000000	113.000000	60.000000	0.000000	16.000000
0.450000	21.860000	31.990000	0.000000	0.000000	113.000000	59.000000	0.000000	28.000000
0.460000	21.930000	32.270000	0.000000	0.000000	113.000000	59.000000	7.000000	28.000000
0.470000	21.930000	32.590000	0.000000	0.000000	113.000000	59.000000	0.000000	32.000000
0.480000	21.930000	32.590000	66.000000	1.000000	111.000000	59.000000	0.000000	0.000000
0.490000	22.000000	33.090000	351.000000	0.000000	112.000000	60.000000	7.000000	50.000000
0.500000	22.070000	33.190000	509.000000	0.000000	112.000000	60.000000	7.000000	10.000000
0.510000	22.070000	33.190000	641.000000	0.000000	112.000000	60.000000	0.000000	0.000000
0.520000	22.070000	33.070000	739.000000	0.000000	113.000000	61.000000	0.000000	-12.000000
0.530000	22.070000	32.840000	814.000000	0.000000	114.000000	62.000000	0.000000	-23.000000
0.540000	22.070000	32.430000	863.000000	0.000000	114.000000	62.000000	0.000000	-41.000000
0.550000	22.070000	31.910000	897.000000	0.000000	115.000000	63.000000	0.000000	-52.000000
0.560000	22.010000	31.390000	888.000000	0.000000	115.000000	63.000000	-6.000000	-52.000000
0.570000	22.010000	30.860000	818.000000	0.000000	115.000000	63.000000	0.000000	-53.000000
0.580000	22.010000	30.530000	647.000000	0.000000	115.000000	63.000000	0.000000	-33.000000
0.590000	22.120000	30.340000	180.000000	0.000000	116.000000	63.000000	11.000000	-19.000000
0.600000	22.120000	30.340000	0.000000	1.000000	115.000000	63.000000	0.000000	0.000000
0.610000	22.370000	30.490000	0.000000	0.000000	115.000000	63.000000	25.000000	15.000000
0.620000	22.470000	30.840000	0.000000	0.000000	115.000000	63.000000	10.000000	35.000000
0.630000	22.580000	31.270000	0.000000	0.000000	114.000000	62.000000	11.000000	43.000000
0.640000	22.700000	31.690000	0.000000	0.000000	114.000000	62.000000	12.000000	42.000000
0.650000	22.760000	32.130000	0.000000	0.000000	113.000000	61.000000	6.000000	44.000000
0.660000	22.760000	32.580000	0.000000	0.000000	113.000000	61.000000	0.000000	45.000000
0.670000	22.760000	32.970000	0.000000	0.000000	113.000000	61.000000	0.000000	39.000000
0.680000	22.760000	32.970000	226.000000	1.000000	112.000000	60.000000	0.000000	0.000000
0.690000	22.810000	33.580000	341.000000	0.000000	113.000000	61.000000	5.000000	61.000000
0.700000	22.810000	33.740000	468.000000	0.000000	113.000000	61.000000	0.000000	16.000000
0.710000	22.810000	33.820000	577.000000	0.000000	113.000000	61.000000	0.000000	8.000000
0.720000	22.810000	33.820000	646.000000	0.000000	114.000000	62.000000	0.000000	0.000000
0.730000	22.810000	33.730000	708.000000	0.000000	114.000000	62.000000	0.000000	-9.000000
0.740000	22.810000	33.580000	762.000000	0.000000	113.000000	63.000000	0.000000	-15.000000
0.750000	22.810000	33.360000	805.000000	0.000000	113.000000	63.000000	0.000000	-22.000000
0.760000	22.880000	33.020000	828.000000	0.000000	113.000000	63.000000	7.000000	-34.000000
0.770000	22.930000	32.600000	846.000000	0.000000	113.000000	63.000000	5.000000	-42.000000
0.780000	23.000000	32.260000	846.000000	0.000000	115.000000	63.000000	7.000000	-34.000000
0.790000	23.080000	32.030000	852.000000	0.000000	115.000000	63.000000	8.000000	-23.000000
0.800000	23.180000	31.870000	846.000000	0.000000	115.000000	63.000000	10.000000	-16.000000
0.810000	23.300000	31.750000	839.000000	0.000000	115.000000	63.000000	12.000000	-12.000000
0.820000	23.380000	31.640000	836.000000	0.000000	115.000000	63.000000	8.000000	-11.000000
0.830000	23.450000	31.540000	833.000000	0.000000	115.000000	63.000000	7.000000	-10.000000
0.840000	23.520000	31.430000	828.000000	0.000000	115.000000	63.000000	7.000000	-11.000000
0.850000	23.520000	31.310000	833.000000	0.000000	116.000000	63.000000	0.000000	-12.000000
0.860000	23.460000	31.170000	849.000000	0.000000	116.000000	63.000000	-6.000000	-14.000000
0.870000	23.310000	31.000000	875.000000	0.000000	116.000000	63.000000	-15.000000	-17.000000
0.880000	23.120000	30.810000	948.000000	0.000000	116.000000	63.000000	-19.000000	-19.000000
0.890000	22.890000	30.670000	995.000000	0.000000	116.000000	63.000000	-23.000000	-14.000000
0.900000	22.730000	30.570000	1023.000000	0.000000	116.000000	63.000000	-16.000000	-10.000000
0.910000	22.600000	30.510000	1023.000000	0.000000	116.000000	63.000000	-13.000000	-6.000000
0.920000	22.520000	30.510000	1015.000000	0.000000	116.000000	63.000000	-8.000000	0.000000
0.930000	22.520000	30.560000	908.000000	0.000000	116.000000	63.000000	0.000000	5.000000
0.940000	22.520000	30.630000	613.000000	0.000000	116.000000	63.000000	0.000000	7.000000
0.950000	22.520000	30.630000	0.000000	1.000000	115.000000	63.000000	0.000000	0.000000
0.960000	22.820000	30.980000	0.000000	0.000000	115.000000	63.000000	30.000000	35.000000
0.970000	23.120000	31.160000	0.000000	0.000000	115.000000	63.000000	30.000000	18.000000
0.980000	23.420000	31.320000	0.000000	0.000000	115.000000	63.000000	30.000000	16.000000
0.990000	23.760000	31.450000	0.000000	0.000000	115.000000	63.000000	34.000000	13.000000
1.000000	24.140000	31.630000	0.000000	0.000000	114.000000	62.000000	38.000000	18.000000
1.010000	24.520000	31.780000	0.000000	0.000000	114.000000	62.000000	38.000000	15.000000
1.020000	24.830000	31.890000	0.000000	0.000000	114.000000	62.000000	31.000000	11.000000
1.030000	24.970000	32.000000	0.000000	0.000000	114.000000	62.000000	14.000000	11.000000
1.040000	24.970000	32.080000	0.000000	0.000000	114.000000	62.000000	0.000000	8.000000
1.050000	24.890000	32.080000	0.000000	0.000000	114.000000	62.000000	-8.000000	0.000000
1.060000	24.720000	32.140000	0.000000	0.000000	114.000000	62.000000	-17.000000	6.000000
1.070000	24.520000	32.140000	0.000000	0.000000	114.000000	62.000000	-20.000000	0.000000
1.080000	24.290000	32.140000	0.000000	0.000000	114.000000	62.000000	-23.000000	0.000000
1.090000	24.060000	32.140000	0.000000	0.000000	114.000000	62.000000	-23.000000	0.000000
1.100000	23.850000	32.030000	0.000000	0.000000	114.000000	62.000000	-21.000000	-11.000000
1.110000	23.850000	32.030000	367.000000	1.000000	114.000000	62.000000	0.000000	0.000000
1.120000	23.540000	31.840000	453.000000	0.000000	113.000000	61.000000	-31.000000	-19.000000
1.130000	23.490000	31.790000	519.000000	0.000000	113.000000	61.000000	-5.000000	-5.000000
1.140000	23.490000	31.790000	567.000000	0.000000	113.000000	61.000000	0.000000	0.000000
1.150000	23.620000	31.790000	611.000000	0.000000	114.000000	62.000000	13.000000	0.000000
1.160000	23.760000	31.790000	633.000000	0.000000	114.000000	62.000000	14.000000	0.000000
1.170000	23.990000	31.840000	636.000000	0.000000	114.000000	62.000000	23.000000	5.000000
1.180000	24.290000	31.970000	649.000000	0.000000	115.000000	63.000000	30.000000	13.000000
1.190000	24.580000	32.200000	664.000000	0.000000	115.000000	63.000000	29.000000	23.000000
1.200000	24.740000	32.430000	697.000000	0.000000	115.000000	63.000000	16.000000	23.000000
1.210000	24.830000	32.670000	757.000000	0.000000	115.000000	63.000000	9.000000	24.000000
1.220000	24.830000	32.830000	822.000000	0.000000	113.000000	63.000000	0.000000	16.000000
1.230000	24.760000	32.960000	900.000000	0.000000	113.000000	63.000000	-7.000000	13.000000
1.240000	24.630000	33.010000	935.000000	0.000000	113.000000	63.000000	-13.000000	5.000000
1.250000	24.510000	33.010000	948.000000	0.000000	113.000000	63.000000	-12.000000	0.000000
1.260000	24.330000	32.820000	935.000000	0.000000	113.000000	63.000000	-18.000000	-19.000000
1.270000	24.100000	32.510000	940.000000	0.000000	113.000000	63.000000	-23.000000	-31.000000
1.280000	24.030000	32.030000	946.000000	0.000000	115.000000	63.000000	-7.000000	-48.000000
1.290000	24.090000	31.630000	950.000000	0.000000	115.000000	63.000000	6.000000	-40.000000
1.300000	24.240000	31.290000	905.000000	0.000000	115.000000	63.000000	15.000000	-34.000000
1.310000	24.430000	31.060000	749.000000	0.000000	115.000000	63.000000	19.000000	-23.000000
1.320000	24.660000	31.000000	338.000000	0.000000	115.000000	63.000000	23.000000	-6.000000
1.330000	24.660000	31.000000	0.000000	1.000000	115.000000	63.000000	0.000000	0.000000
1.340000	25.220000	31.310000	0.000000	0.000000	115.000000	63.000000	56.000000	31.000000
1.350000	25.370000	31.610000	0.000000	0.000000	115.000000	63.000000	15.000000	30.000000
1.360000	25.420000	31.950000	0.000000	0.000000	115.000000	63.000000	5.000000	34.000000
1.370000	25.420000	32.220000	0.000000	0.000000	115.000000	63.000000	0.000000	27.000000
1.380000	25.360000	32.500000	0.000000	0.000000	115.000000	63.000000	-6.000000	28.000000
1.390000	25.310000	32.760000	0.000000	0.000000	115.000000	63.000000	-5.000000	26.000000
1.400000	25.260000	32.890000	0.000000	0.000000	115.000000	63.000000	-5.000000	13.000000
1.410000	25.260000	32.950000	0.000000	0.000000	115.000000	63.000000	0.000000	6.000000
1.420000	25.260000	32.950000	0.000000	0.000000	113.000000	63.000000	0.000000	0.000000
1.430000	25.260000	32.950000	58.000000	1.000000	113.000000	63.000000	0.000000	0.000000
1.440000	25.450000	32.570000	304.000000	0.000000	113.000000	63.000000	19.000000	-38.000000
1.450000	25.570000	32.310000	499.000000	0.000000	113.000000	63.000000	12.000000	-26.000000
1.460000	25.680000	32.040000	685.000000	0.000000	113.000000	63.000000	11.000000	-27.000000
1.470000	25.820000	31.760000	785.000000	0.000000	113.000000	63.000000	14.000000	-28.000000
1.480000	25.880000	31.610000	858.000000	0.000000	114.000000	64.000000	6.000000	-15.000000
1.490000	25.880000	31.550000	899.000000	0.000000	114.000000	64.000000	0.000000	-6.000000
1.500000	25.880000	31.550000	964.000000	0.000000	116.000000	64.000000	0.000000	0.000000
1.510000	25.880000	31.550000	1023.000000	0.000000	116.000000	64.000000	0.000000	0.000000
1.520000	25.880000	31.660000	1023.000000	0.000000	116.000000	64.000000	0.000000	11.000000
1.530000	25.800000	31.810000	1023.000000	0.000000	116.000000	64.000000	-8.000000	15.000000
1.540000	25.800000	32.100000	1023.000000	0.000000	116.000000	64.000000	0.000000	29.000000
1.550000	25.740000	32.400000	1023.000000	0.000000	116.000000	64.000000	-6.000000	30.000000
1.560000	25.800000	32.700000	1023.000000	0.000000	116.000000	64.000000	6.000000	30.000000
1.570000	25.860000	32.870000	1023.000000	0.000000	116.000000	64.000000	6.000000	17.000000
1.580000	25.930000	32.990000	977.000000	0.000000	114.000000	64.000000	7.000000	12.000000
1.590000	26.010000	33.080000	819.000000	0.000000	114.000000	64.000000	8.000000	9.000000
1.600000	26.090000	33.160000	512.000000	0.000000	114.000000	64.000000	8.000000	8.000000
1.610000	26.090000	33.160000	0.000000	1.000000	114.000000	64.000000	0.000000	0.000000
1.620000	26.390000	33.160000	0.000000	0.000000	114.000000	64.000000	30.000000	0.000000
1.630000	26.520000	33.160000	0.000000	0.000000	114.000000	64.000000	13.000000	0.000000
1.640000	26.620000	33.160000	0.000000	0.000000	114.000000	64.000000	10.000000	0.000000
1.650000	26.690000	33.160000	0.000000	0.000000	114.000000	64.000000	7.000000	0.000000
1.660000	26.690000	33.160000	0.000000	0.000000	113.000000	63.000000	0.000000	0.000000
1.670000	26.690000	33.160000	0.000000	0.000000	113.000000	63.000000	0.000000	0.000000
1.680000	26.830000	33.560000	0.000000	0.000000	114.000000	62.000000	14.000000	40.000000
1.690000	26.830000	33.790000	0.000000	0.000000	114.000000	62.000000	0.000000	23.000000
1.700000	26.830000	34.040000	0.000000	0.000000	113.000000	61.000000	0.000000	25.000000
1.710000	26.830000	34.330000	0.000000	0.000000	111.000000	61.000000	0.000000	29.000000
1.720000	26.830000	34.640000	0.000000	0.000000	111.000000	61.000000	0.000000	31.000000
1.730000	26.910000	34.930000	0.000000	0.000000	110.000000	60.000000	8.000000	29.000000
1.740000	26.990000	35.140000	0.000000	0.000000	110.000000	60.000000	8.000000	21.000000
1.750000	26.990000	35.140000	228.000000	1.000000	110.000000	60.000000	0.000000	0.000000
1.760000	26.990000	35.140000	394.000000	0.000000	108.000000	61.000000	0.000000	0.000000
1.770000	26.990000	35.140000	591.000000	0.000000	108.000000	61.000000	0.000000	0.000000
1.780000	27.170000	34.610000	751.000000	0.000000	108.000000	61.000000	18.000000	-53.000000
1.790000	27.260000	34.050000	869.000000	0.000000	108.000000	61.000000	9.000000	-56.000000
1.800000	27.320000	33.490000	942.000000	0.000000	108.000000	61.000000	6.000000	-56.000000
1.810000	27.320000	32.930000	938.000000	0.000000	108.000000	61.000000	0.000000	-56.000000
1.820000	27.460000	32.490000	940.000000	0.000000	108.000000	61.000000	14.000000	-44.000000
1.830000	27.580000	32.140000	881.000000	0.000000	108.000000	61.000000	12.000000	-35.000000
1.840000	27.630000	31.990000	665.000000	0.000000	110.000000	60.000000	5.000000	-15.000000
1.850000	27.630000	31.990000	180.000000	0.000000	110.000000	60.000000	0.000000	0.000000
1.860000	27.630000	31.990000	0.000000	1.000000	110.000000	60.000000	0.000000	0.000000
1.870000	27.490000	32.330000	0.000000	0.000000	111.000000	61.000000	-14.000000	34.000000
1.880000	27.270000	32.590000	0.000000	0.000000	113.000000	61.000000	-22.000000	26.000000
1.890000	26.880000	32.870000	0.000000	0.000000	113.000000	61.000000	-39.000000	28.000000
1.900000	26.250000	33.060000	0.000000	0.000000	113.000000	61.000000	-63.000000	19.000000
1.910000	25.450000	33.230000	0.000000	0.000000	113.000000	61.000000	-80.000000	17.000000
1.920000	24.590000	33.170000	0.000000	0.000000	113.000000	61.000000	-86.000000	-6.000000
1.930000	23.750000	32.960000	0.000000	0.000000	114.000000	62.000000	-84.000000	-21.000000
1.940000	23.750000	32.960000	213.000000	1.000000	114.000000	62.000000	0.000000	0.000000
1.950000	22.920000	32.380000	520.000000	0.000000	114.000000	62.000000	-83.000000	-58.000000
1.960000	22.920000	32.380000	652.000000	0.000000	114.000000	62.000000	0.000000	0.000000
1.970000	23.360000	32.490000	794.000000	0.000000	115.000000	63.000000	44.000000	11.000000
1.980000	24.030000	32.730000	891.000000	0.000000	115.000000	63.000000	67.000000	24.000000
1.990000	25.270000	33.230000	958.000000	0.000000	115.000000	63.000000	124.000000	50.000000
2.000000	26.950000	33.900000	978.000000	0.000000	115.000000	63.000000	168.000000	67.000000
2.010000	28.930000	34.770000	1000.000000	0.000000	113.000000	63.000000	198.000000	87.000000
2.020000	31.010000	35.640000	983.000000	0.000000	112.000000	62.000000	208.000000	87.000000
2.030000	32.770000	36.420000	908.000000	0.000000	112.000000	62.000000	176.000000	78.000000
2.040000	34.310000	37.140000	760.000000	0.000000	113.000000	63.000000	154.000000	72.000000
2.050000	35.240000	37.450000	415.000000	0.000000	113.000000	63.000000	93.000000	31.000000
2.060000	35.240000	37.450000	0.000000	1.000000	115.000000	63.000000	0.000000	0.000000
2.070000	35.640000	37.350000	0.000000	0.000000	115.000000	63.000000	40.000000	-10.000000
2.080000	35.140000	37.000000	0.000000	0.000000	115.000000	63.000000	-50.000000	-35.000000
2.090000	34.460000	36.630000	0.000000	0.000000	115.000000	63.000000	-68.000000	-37.000000
2.100000	33.680000	36.200000	0.000000	0.000000	115.000000	63.000000	-78.000000	-43.000000
2.110000	32.800000	35.660000	0.000000	0.000000	115.000000	63.000000	-88.000000	-54.000000
2.120000	31.970000	35.060000	0.000000	0.000000	114.000000	62.000000	-83.000000	-60.000000
2.130000	31.370000	34.540000	0.000000	0.000000	114.000000	62.000000	-60.000000	-52.000000
2.140000	30.890000	34.090000	0.000000	0.000000	113.000000	61.000000	-48.000000	-45.000000
2.150000	30.430000	33.690000	0.000000	0.000000	113.000000	61.000000	-46.000000	-40.000000
2.160000	30.000000	33.420000	0.000000	0.000000	112.000000	60.000000	-43.000000	-27.000000
2.170000	29.610000	33.240000	0.000000	0.000000	112.000000	60.000000	-39.000000	-18.000000
2.180000	29.290000	33.110000	0.000000	0.000000	112.000000	60.000000	-32.000000	-13.000000
2.190000	29.070000	33.060000	0.000000	0.000000	112.000000	60.000000	-22.000000	-5.000000
2.200000	28.870000	33.060000	0.000000	0.000000	112.000000	60.000000	-20.000000	0.000000
2.210000	28.680000	33.060000	0.000000	0.000000	112.000000	60.000000	-19.000000	0.000000
2.220000	28.550000	33.060000	0.000000	0.000000	112.000000	60.000000	-13.000000	0.000000
2.230000	28.460000	33.060000	0.000000	0.000000	112.000000	60.000000	-9.000000	0.000000
