t	x	y	pressure	penup	azimuth	inclination	v_x	v_y
0.000000	58.680000	63.160000	143.000000	1.000000	157.000000	50.000000	0.000000	0.000000
0.010000	58.680000	63.160000	205.000000	0.000000	157.000000	50.000000	0.000000	0.000000
0.020000	58.680000	63.160000	262.000000	0.000000	157.000000	50.000000	0.000000	0.000000
0.030000	58.680000	63.160000	345.000000	0.000000	157.000000	51.000000	0.000000	0.000000
0.040000	58.680000	63.160000	389.000000	0.000000	157.000000	51.000000	0.000000	0.000000
0.050000	58.680000	63.160000	443.000000	0.000000	155.000000	50.000000	0.000000	0.000000
0.060000	59.040000	63.050000	473.000000	0.000000	155.000000	50.000000	36.000000	-11.000000
0.070000	59.380000	63.140000	501.000000	0.000000	154.000000	50.000000	34.000000	9.000000
0.080000	59.810000	63.230000	543.000000	0.000000	154.000000	50.000000	43.000000	9.000000
0.090000	60.350000	63.330000	553.000000	0.000000	153.000000	50.000000	54.000000	10.000000
0.100000	60.940000	63.560000	567.000000	0.000000	153.000000	50.000000	59.000000	23.000000
0.110000	61.690000	63.980000	575.000000	0.000000	153.000000	50.000000	75.000000	42.000000
0.120000	62.530000	64.530000	575.000000	0.000000	153.000000	50.000000	84.000000	55.000000
0.130000	63.310000	65.150000	575.000000	0.000000	152.000000	51.000000	78.000000	62.000000
0.140000	63.820000	65.840000	560.000000	0.000000	153.000000	51.000000	51.000000	69.000000
0.150000	64.140000	66.580000	570.000000	0.000000	153.000000	51.000000	32.000000	74.000000
0.160000	63.980000	67.210000	557.000000	0.000000	154.000000	52.000000	-16.000000	63.000000
0.170000	63.310000	67.670000	545.000000	0.000000	154.000000	52.000000	-67.000000	46.000000
0.180000	62.310000	68.010000	518.000000	0.000000	155.000000	52.000000	-100.000000	34.000000
0.190000	60.970000	68.180000	499.000000	0.000000	156.000000	53.000000	-134.000000	17.000000
0.200000	59.530000	68.100000	499.000000	0.000000	156.000000	53.000000	-144.000000	-8.000000
0.210000	58.020000	67.860000	507.000000	0.000000	157.000000	52.000000	-151.000000	-24.000000
0.220000	57.100000	67.420000	505.000000	0.000000	157.000000	52.000000	-92.000000	-44.000000
0.230000	56.880000	66.960000	507.000000	0.000000	157.000000	52.000000	-22.000000	-46.000000
0.240000	57.130000	66.320000	515.000000	0.000000	157.000000	52.000000	25.000000	-64.000000
0.250000	57.800000	65.580000	543.000000	0.000000	157.000000	52.000000	67.000000	-74.000000
0.260000	58.790000	64.800000	563.000000	0.000000	156.000000	53.000000	99.000000	-78.000000
0.270000	59.980000	64.110000	574.000000	0.000000	155.000000	52.000000	119.000000	-69.000000
0.280000	61.240000	63.470000	574.000000	0.000000	155.000000	52.000000	126.000000	-64.000000
0.290000	62.140000	62.880000	566.000000	0.000000	154.000000	52.000000	90.000000	-59.000000
0.300000	62.810000	62.310000	553.000000	0.000000	154.000000	52.000000	67.000000	-57.000000
0.310000	62.870000	61.760000	543.000000	0.000000	154.000000	52.000000	6.000000	-55.000000
0.320000	62.270000	61.180000	537.000000	0.000000	155.000000	51.000000	-60.000000	-58.000000
0.330000	61.220000	60.580000	533.000000	0.000000	155.000000	51.000000	-105.000000	-60.000000
0.340000	59.910000	60.090000	515.000000	0.000000	153.000000	51.000000	-131.000000	-49.000000
0.350000	58.120000	59.680000	499.000000	0.000000	153.000000	52.000000	-179.000000	-41.000000
0.360000	56.010000	59.280000	512.000000	0.000000	153.000000	52.000000	-211.000000	-40.000000
0.370000	54.370000	59.420000	499.000000	0.000000	153.000000	52.000000	-164.000000	14.000000
0.380000	53.380000	59.930000	471.000000	0.000000	150.000000	52.000000	-99.000000	51.000000
0.390000	52.830000	60.630000	425.000000	0.000000	150.000000	52.000000	-55.000000	70.000000
0.400000	52.770000	61.490000	399.000000	0.000000	150.000000	52.000000	-6.000000	86.000000
0.410000	53.380000	62.470000	396.000000	0.000000	149.000000	52.000000	61.000000	98.000000
0.420000	54.440000	63.580000	387.000000	0.000000	149.000000	52.000000	106.000000	111.000000
0.430000	56.080000	64.780000	405.000000	0.000000	150.000000	52.000000	164.000000	120.000000
0.440000	58.290000	66.040000	443.000000	0.000000	150.000000	52.000000	221.000000	126.000000
0.450000	60.880000	67.200000	453.000000	0.000000	152.000000	53.000000	259.000000	116.000000
0.460000	63.590000	68.020000	475.000000	0.000000	153.000000	53.000000	271.000000	82.000000
0.470000	66.020000	68.620000	494.000000	0.000000	155.000000	52.000000	243.000000	60.000000
0.480000	68.270000	69.010000	522.000000	0.000000	156.000000	53.000000	225.000000	39.000000
0.490000	69.940000	69.010000	515.000000	0.000000	158.000000	53.000000	167.000000	0.000000
0.500000	70.780000	68.680000	520.000000	0.000000	160.000000	52.000000	84.000000	-33.000000
0.510000	71.070000	68.130000	541.000000	0.000000	161.000000	52.000000	29.000000	-55.000000
0.520000	70.600000	67.540000	533.000000	0.000000	162.000000	53.000000	-47.000000	-59.000000
0.530000	69.260000	66.700000	524.000000	0.000000	162.000000	53.000000	-134.000000	-84.000000
0.540000	67.340000	65.720000	512.000000	0.000000	162.000000	53.000000	-192.000000	-98.000000
0.550000	64.600000	64.600000	527.000000	0.000000	162.000000	53.000000	-274.000000	-112.000000
0.560000	61.300000	63.440000	510.000000	0.000000	161.000000	52.000000	-330.000000	-116.000000
0.570000	57.620000	62.210000	502.000000	0.000000	160.000000	52.000000	-368.000000	-123.000000
0.580000	53.830000	61.090000	498.000000	0.000000	157.000000	52.000000	-379.000000	-112.000000
0.590000	50.700000	60.050000	468.000000	0.000000	156.000000	51.000000	-313.000000	-104.000000
0.600000	48.020000	59.410000	473.000000	0.000000	153.000000	51.000000	-268.000000	-64.000000
0.610000	46.500000	59.280000	478.000000	0.000000	151.000000	51.000000	-152.000000	-13.000000
0.620000	46.060000	59.500000	493.000000	0.000000	151.000000	51.000000	-44.000000	22.000000
0.630000	46.350000	59.940000	509.000000	0.000000	150.000000	51.000000	29.000000	44.000000
0.640000	47.340000	60.600000	533.000000	0.000000	150.000000	51.000000	99.000000	66.000000
0.650000	49.130000	61.410000	566.000000	0.000000	149.000000	51.000000	179.000000	81.000000
0.660000	51.450000	62.350000	594.000000	0.000000	150.000000	51.000000	232.000000	94.000000
0.670000	54.840000	63.420000	616.000000	0.000000	150.000000	51.000000	339.000000	107.000000
0.680000	58.660000	64.580000	616.000000	0.000000	151.000000	51.000000	382.000000	116.000000
0.690000	62.760000	65.500000	625.000000	0.000000	153.000000	52.000000	410.000000	92.000000
0.700000	66.610000	66.150000	638.000000	0.000000	154.000000	52.000000	385.000000	65.000000
0.710000	69.850000	66.620000	636.000000	0.000000	155.000000	52.000000	324.000000	47.000000
0.720000	72.680000	66.930000	609.000000	0.000000	156.000000	53.000000	283.000000	31.000000
0.730000	75.120000	67.200000	589.000000	0.000000	158.000000	53.000000	244.000000	27.000000
0.740000	76.870000	67.380000	540.000000	0.000000	159.000000	53.000000	175.000000	18.000000
0.750000	78.170000	67.500000	404.000000	0.000000	160.000000	54.000000	130.000000	12.000000
0.760000	78.880000	67.610000	165.000000	0.000000	161.000000	55.000000	71.000000	11.000000
0.770000	78.880000	67.610000	0.000000	1.000000	161.000000	55.000000	0.000000	0.000000
0.780000	78.690000	67.670000	0.000000	0.000000	163.000000	55.000000	-19.000000	6.000000
0.790000	78.070000	67.750000	0.000000	0.000000	164.000000	55.000000	-62.000000	8.000000
0.800000	77.140000	67.750000	0.000000	0.000000	164.000000	54.000000	-93.000000	0.000000
0.810000	75.990000	67.750000	0.000000	0.000000	166.000000	54.000000	-115.000000	0.000000
0.820000	74.470000	67.690000	0.000000	0.000000	166.000000	54.000000	-152.000000	-6.000000
0.830000	72.660000	67.550000	0.000000	0.000000	166.000000	53.000000	-181.000000	-14.000000
0.840000	70.660000	67.360000	0.000000	0.000000	166.000000	53.000000	-200.000000	-19.000000
0.850000	68.570000	67.120000	0.000000	0.000000	167.000000	52.000000	-209.000000	-24.000000
0.860000	66.420000	66.750000	0.000000	0.000000	167.000000	51.000000	-215.000000	-37.000000
0.870000	64.220000	66.280000	0.000000	0.000000	167.000000	50.000000	-220.000000	-47.000000
0.880000	61.880000	65.720000	0.000000	0.000000	166.000000	49.000000	-234.000000	-56.000000
0.890000	59.790000	65.140000	0.000000	0.000000	164.000000	48.000000	-209.000000	-58.000000
0.900000	57.870000	64.540000	0.000000	0.000000	163.000000	48.000000	-192.000000	-60.000000
0.910000	56.310000	63.960000	0.000000	0.000000	162.000000	47.000000	-156.000000	-58.000000
0.920000	55.340000	63.600000	0.000000	0.000000	161.000000	46.000000	-97.000000	-36.000000
0.930000	54.750000	63.370000	0.000000	0.000000	160.000000	47.000000	-59.000000	-23.000000
0.940000	54.670000	63.310000	0.000000	0.000000	158.000000	47.000000	-8.000000	-6.000000
0.950000	54.850000	63.370000	0.000000	0.000000	157.000000	48.000000	18.000000	6.000000
0.960000	55.190000	63.520000	0.000000	0.000000	155.000000	47.000000	34.000000	15.000000
0.970000	55.680000	63.780000	0.000000	0.000000	155.000000	48.000000	49.000000	26.000000
0.980000	56.170000	64.080000	0.000000	0.000000	155.000000	48.000000	49.000000	30.000000
0.990000	56.660000	64.410000	0.000000	0.000000	154.000000	49.000000	49.000000	33.000000
1.000000	56.900000	64.660000	0.000000	0.000000	154.000000	49.000000	24.000000	25.000000
1.010000	56.990000	64.870000	0.000000	0.000000	153.000000	50.000000	9.000000	21.000000
1.020000	56.890000	65.010000	0.000000	0.000000	154.000000	50.000000	-10.000000	14.000000
1.030000	56.700000	65.090000	0.000000	0.000000	154.000000	50.000000	-19.000000	8.000000
1.040000	56.440000	65.090000	0.000000	0.000000	154.000000	50.000000	-26.000000	0.000000
1.050000	56.160000	65.090000	0.000000	0.000000	154.000000	50.000000	-28.000000	0.000000
1.060000	55.940000	65.040000	0.000000	0.000000	154.000000	50.000000	-22.000000	-5.000000
1.070000	55.830000	65.040000	0.000000	0.000000	154.000000	50.000000	-11.000000	0.000000
1.080000	55.830000	65.040000	0.000000	0.000000	154.000000	50.000000	0.000000	0.000000
1.090000	55.830000	65.040000	0.000000	0.000000	153.000000	50.000000	0.000000	0.000000
1.100000	55.900000	65.110000	0.000000	0.000000	153.000000	50.000000	7.000000	7.000000
1.110000	55.990000	65.180000	0.000000	0.000000	153.000000	50.000000	9.000000	7.000000
1.120000	56.120000	65.240000	0.000000	0.000000	153.000000	50.000000	13.000000	6.000000
1.130000	56.260000	65.300000	0.000000	0.000000	152.000000	49.000000	14.000000	6.000000
1.140000	56.430000	65.370000	0.000000	0.000000	153.000000	50.000000	17.000000	7.000000
1.150000	56.600000	65.420000	0.000000	0.000000	152.000000	51.000000	17.000000	5.000000
1.160000	56.600000	65.420000	51.000000	1.000000	152.000000	51.000000	0.000000	0.000000
1.170000	56.600000	65.420000	182.000000	0.000000	152.000000	51.000000	0.000000	0.000000
1.180000	56.600000	65.420000	282.000000	0.000000	153.000000	51.000000	0.000000	0.000000
1.190000	56.600000	65.420000	379.000000	0.000000	153.000000	51.000000	0.000000	0.000000
1.200000	56.780000	65.680000	449.000000	0.000000	153.000000	51.000000	18.000000	26.000000
1.210000	56.780000	65.680000	490.000000	0.000000	153.000000	51.000000	0.000000	0.000000
1.220000	56.720000	65.680000	520.000000	0.000000	153.000000	51.000000	-6.000000	0.000000
1.230000	56.720000	65.680000	537.000000	0.000000	153.000000	51.000000	0.000000	0.000000
1.240000	56.600000	65.620000	542.000000	0.000000	153.000000	51.000000	-12.000000	-6.000000
1.250000	56.460000	65.540000	556.000000	0.000000	153.000000	51.000000	-14.000000	-8.000000
1.260000	56.260000	65.400000	570.000000	0.000000	153.000000	51.000000	-20.000000	-14.000000
1.270000	56.060000	65.230000	561.000000	0.000000	153.000000	51.000000	-20.000000	-17.000000
1.280000	55.830000	65.040000	570.000000	0.000000	153.000000	51.000000	-23.000000	-19.000000
1.290000	55.580000	64.800000	568.000000	0.000000	153.000000	51.000000	-25.000000	-24.000000
1.300000	55.440000	64.590000	544.000000	0.000000	153.000000	51.000000	-14.000000	-21.000000
1.310000	55.360000	64.410000	521.000000	0.000000	153.000000	51.000000	-8.000000	-18.000000
1.320000	55.360000	64.270000	514.000000	0.000000	152.000000	51.000000	0.000000	-14.000000
1.330000	55.450000	64.220000	514.000000	0.000000	152.000000	51.000000	9.000000	-5.000000
1.340000	55.580000	64.220000	520.000000	0.000000	152.000000	51.000000	13.000000	0.000000
1.350000	55.740000	64.350000	515.000000	0.000000	153.000000	50.000000	16.000000	13.000000
1.360000	55.920000	64.510000	518.000000	0.000000	153.000000	50.000000	18.000000	16.000000
1.370000	56.110000	64.710000	521.000000	0.000000	153.000000	50.000000	19.000000	20.000000
1.380000	56.300000	64.920000	526.000000	0.000000	152.000000	51.000000	19.000000	21.000000
1.390000	56.450000	65.140000	527.000000	0.000000	152.000000	51.000000	15.000000	22.000000
1.400000	56.590000	65.370000	535.000000	0.000000	152.000000	51.000000	14.000000	23.000000
1.410000	56.590000	65.370000	536.000000	0.000000	153.000000	51.000000	0.000000	0.000000
1.420000	56.590000	65.370000	554.000000	0.000000	153.000000	51.000000	0.000000	0.000000
1.430000	56.590000	65.370000	556.000000	0.000000	153.000000	51.000000	0.000000	0.000000
1.440000	56.590000	65.370000	556.000000	0.000000	153.000000	51.000000	0.000000	0.000000
1.450000	56.590000	65.370000	554.000000	0.000000	153.000000	51.000000	0.000000	0.000000
1.460000	56.590000	65.370000	556.000000	0.000000	153.000000	51.000000	0.000000	0.000000
1.470000	56.640000	65.060000	556.000000	0.000000	153.000000	51.000000	5.000000	-31.000000
1.480000	56.640000	64.770000	545.000000	0.000000	153.000000	51.000000	0.000000	-29.000000
1.490000	56.700000	64.530000	519.000000	0.000000	153.000000	51.000000	6.000000	-24.000000
1.500000	56.760000	64.320000	461.000000	0.000000	153.000000	51.000000	6.000000	-21.000000
1.510000	56.870000	64.140000	274.000000	0.000000	153.000000	51.000000	11.000000	-18.000000
1.520000	56.870000	64.140000	0.000000	1.000000	153.000000	51.000000	0.000000	0.000000
1.530000	57.020000	64.140000	0.000000	0.000000	153.000000	51.000000	15.000000	0.000000
1.540000	57.140000	64.330000	0.000000	0.000000	153.000000	51.000000	12.000000	19.000000
1.550000	57.230000	64.720000	0.000000	0.000000	155.000000	50.000000	9.000000	39.000000
1.560000	57.290000	65.260000	0.000000	0.000000	155.000000	50.000000	6.000000	54.000000
1.570000	57.340000	65.770000	0.000000	0.000000	155.000000	50.000000	5.000000	51.000000
1.580000	57.430000	66.340000	0.000000	0.000000	155.000000	50.000000	9.000000	57.000000
1.590000	57.530000	66.950000	0.000000	0.000000	155.000000	50.000000	10.000000	61.000000
1.600000	57.680000	67.530000	0.000000	0.000000	155.000000	50.000000	15.000000	58.000000
1.610000	57.850000	68.040000	0.000000	0.000000	157.000000	51.000000	17.000000	51.000000
1.620000	57.850000	68.040000	254.000000	1.000000	157.000000	51.000000	0.000000	0.000000
1.630000	57.970000	68.320000	333.000000	0.000000	157.000000	51.000000	12.000000	28.000000
1.640000	57.970000	68.460000	389.000000	0.000000	157.000000	51.000000	0.000000	14.000000
1.650000	57.970000	68.520000	453.000000	0.000000	157.000000	51.000000	0.000000	6.000000
1.660000	57.970000	68.460000	512.000000	0.000000	157.000000	51.000000	0.000000	-6.000000
1.670000	57.970000	68.380000	543.000000	0.000000	157.000000	50.000000	0.000000	-8.000000
1.680000	57.970000	68.270000	605.000000	0.000000	157.000000	50.000000	0.000000	-11.000000
1.690000	58.030000	67.990000	614.000000	0.000000	157.000000	50.000000	6.000000	-28.000000
1.700000	58.090000	67.600000	627.000000	0.000000	156.000000	50.000000	6.000000	-39.000000
1.710000	58.090000	67.080000	639.000000	0.000000	154.000000	50.000000	0.000000	-52.000000
1.720000	58.090000	66.540000	641.000000	0.000000	154.000000	50.000000	0.000000	-54.000000
1.730000	58.190000	65.980000	642.000000	0.000000	153.000000	50.000000	10.000000	-56.000000
1.740000	58.240000	65.400000	613.000000	0.000000	153.000000	50.000000	5.000000	-58.000000
1.750000	58.300000	64.900000	589.000000	0.000000	151.000000	50.000000	6.000000	-50.000000
1.760000	58.300000	64.460000	515.000000	0.000000	151.000000	50.000000	0.000000	-44.000000
1.770000	58.300000	64.170000	367.000000	0.000000	151.000000	50.000000	0.000000	-29.000000
1.780000	58.300000	64.100000	182.000000	0.000000	150.000000	50.000000	0.000000	-7.000000
1.790000	58.300000	64.100000	0.000000	1.000000	151.000000	50.000000	0.000000	0.000000
1.800000	58.300000	64.420000	0.000000	0.000000	152.000000	49.000000	0.000000	32.000000
1.810000	58.300000	64.880000	0.000000	0.000000	153.000000	50.000000	0.000000	46.000000
1.820000	58.300000	65.500000	0.000000	0.000000	153.000000	50.000000	0.000000	62.000000
1.830000	58.390000	66.180000	0.000000	0.000000	154.000000	50.000000	9.000000	68.000000
1.840000	58.480000	66.920000	0.000000	0.000000	155.000000	50.000000	9.000000	74.000000
1.850000	58.630000	67.710000	0.000000	0.000000	157.000000	51.000000	15.000000	79.000000
1.860000	58.820000	68.530000	0.000000	0.000000	158.000000	51.000000	19.000000	82.000000
1.870000	58.820000	68.530000	254.000000	1.000000	159.000000	51.000000	0.000000	0.000000
1.880000	59.070000	69.550000	312.000000	0.000000	159.000000	51.000000	25.000000	102.000000
1.890000	59.070000	69.680000	346.000000	0.000000	160.000000	50.000000	0.000000	13.000000
1.900000	59.070000	69.680000	396.000000	0.000000	159.000000	49.000000	0.000000	0.000000
1.910000	59.070000	69.530000	431.000000	0.000000	160.000000	48.000000	0.000000	-15.000000
1.920000	59.150000	69.230000	469.000000	0.000000	160.000000	47.000000	8.000000	-30.000000
1.930000	59.240000	68.890000	493.000000	0.000000	160.000000	46.000000	9.000000	-34.000000
1.940000	59.340000	68.450000	512.000000	0.000000	160.000000	46.000000	10.000000	-44.000000
1.950000	59.340000	67.950000	533.000000	0.000000	160.000000	46.000000	0.000000	-50.000000
1.960000	59.340000	67.390000	564.000000	0.000000	160.000000	47.000000	0.000000	-56.000000
1.970000	59.410000	66.830000	566.000000	0.000000	158.000000	48.000000	7.000000	-56.000000
1.980000	59.340000	66.280000	572.000000	0.000000	157.000000	49.000000	-7.000000	-55.000000
1.990000	59.190000	65.740000	577.000000	0.000000	156.000000	50.000000	-15.000000	-54.000000
2.000000	59.070000	65.320000	578.000000	0.000000	155.000000	50.000000	-12.000000	-42.000000
2.010000	58.960000	64.970000	572.000000	0.000000	155.000000	50.000000	-11.000000	-35.000000
2.020000	58.880000	64.660000	569.000000	0.000000	153.000000	51.000000	-8.000000	-31.000000
2.030000	58.790000	64.550000	560.000000	0.000000	153.000000	51.000000	-9.000000	-11.000000
2.040000	58.740000	64.500000	563.000000	0.000000	152.000000	51.000000	-5.000000	-5.000000
2.050000	58.740000	64.500000	563.000000	0.000000	152.000000	51.000000	0.000000	0.000000
2.060000	58.740000	64.560000	561.000000	0.000000	153.000000	50.000000	0.000000	6.000000
2.070000	58.740000	64.730000	561.000000	0.000000	153.000000	50.000000	0.000000	17.000000
2.080000	58.940000	64.970000	538.000000	0.000000	153.000000	50.000000	20.000000	24.000000
2.090000	59.200000	65.350000	530.000000	0.000000	153.000000	50.000000	26.000000	38.000000
2.100000	59.380000	65.680000	530.000000	0.000000	153.000000	50.000000	18.000000	33.000000
2.110000	59.570000	65.920000	530.000000	0.000000	152.000000	51.000000	19.000000	24.000000
2.120000	59.660000	66.020000	524.000000	0.000000	152.000000	51.000000	9.000000	10.000000
2.130000	59.660000	66.020000	515.000000	0.000000	152.000000	51.000000	0.000000	0.000000
2.140000	59.730000	65.930000	499.000000	0.000000	153.000000	51.000000	7.000000	-9.000000
2.150000	59.730000	65.780000	485.000000	0.000000	153.000000	51.000000	0.000000	-15.000000
2.160000	59.730000	65.540000	483.000000	0.000000	153.000000	51.000000	0.000000	-24.000000
2.170000	59.650000	65.280000	481.000000	0.000000	153.000000	51.000000	-8.000000	-26.000000
2.180000	59.580000	65.030000	472.000000	0.000000	153.000000	51.000000	-7.000000	-25.000000
2.190000	59.410000	64.820000	468.000000	0.000000	153.000000	51.000000	-17.000000	-21.000000
2.200000	59.170000	64.630000	425.000000	0.000000	153.000000	51.000000	-24.000000	-19.000000
2.210000	58.940000	64.530000	361.000000	0.000000	153.000000	51.000000	-23.000000	-10.000000
