t	x	y	pressure	penup	azimuth	inclination	v_x	v_y
0.000000	21.920000	52.240000	130.000000	1.000000	139.000000	55.000000	0.000000	0.000000
0.010000	21.650000	52.110000	187.000000	0.000000	139.000000	55.000000	-27.000000	-13.000000
0.020000	21.530000	52.110000	267.000000	0.000000	140.000000	55.000000	-12.000000	0.000000
0.030000	21.430000	52.010000	349.000000	0.000000	140.000000	55.000000	-10.000000	-10.000000
0.040000	21.380000	52.010000	388.000000	0.000000	140.000000	55.000000	-5.000000	0.000000
0.050000	21.380000	51.940000	440.000000	0.000000	141.000000	56.000000	0.000000	-7.000000
0.060000	21.480000	51.840000	493.000000	0.000000	141.000000	56.000000	10.000000	-10.000000
0.070000	21.620000	51.730000	509.000000	0.000000	141.000000	56.000000	14.000000	-11.000000
0.080000	21.820000	51.620000	519.000000	0.000000	141.000000	56.000000	20.000000	-11.000000
0.090000	22.210000	51.620000	536.000000	0.000000	141.000000	56.000000	39.000000	0.000000
0.100000	22.730000	51.620000	581.000000	0.000000	141.000000	56.000000	52.000000	0.000000
0.110000	23.550000	51.730000	620.000000	0.000000	141.000000	56.000000	82.000000	11.000000
0.120000	24.430000	52.000000	630.000000	0.000000	143.000000	56.000000	88.000000	27.000000
0.130000	25.500000	52.340000	636.000000	0.000000	143.000000	56.000000	107.000000	34.000000
0.140000	26.670000	52.910000	644.000000	0.000000	143.000000	56.000000	117.000000	57.000000
0.150000	27.730000	53.610000	646.000000	0.000000	143.000000	56.000000	106.000000	70.000000
0.160000	28.550000	54.410000	646.000000	0.000000	143.000000	56.000000	82.000000	80.000000
0.170000	29.200000	55.290000	643.000000	0.000000	143.000000	56.000000	65.000000	88.000000
0.180000	29.380000	56.170000	655.000000	0.000000	143.000000	56.000000	18.000000	88.000000
0.190000	29.110000	56.850000	655.000000	0.000000	143.000000	56.000000	-27.000000	68.000000
0.200000	28.550000	57.400000	659.000000	0.000000	143.000000	56.000000	-56.000000	55.000000
0.210000	27.630000	57.620000	658.000000	0.000000	143.000000	56.000000	-92.000000	22.000000
0.220000	26.490000	57.620000	658.000000	0.000000	143.000000	56.000000	-114.000000	0.000000
0.230000	25.210000	57.400000	664.000000	0.000000	144.000000	57.000000	-128.000000	-22.000000
0.240000	24.230000	56.980000	659.000000	0.000000	144.000000	57.000000	-98.000000	-42.000000
0.250000	23.870000	56.430000	653.000000	0.000000	144.000000	57.000000	-36.000000	-55.000000
0.260000	23.920000	55.800000	653.000000	0.000000	144.000000	57.000000	5.000000	-63.000000
0.270000	24.400000	54.980000	658.000000	0.000000	146.000000	57.000000	48.000000	-82.000000
0.280000	25.060000	54.150000	664.000000	0.000000	146.000000	57.000000	66.000000	-83.000000
0.290000	25.840000	53.310000	665.000000	0.000000	146.000000	57.000000	78.000000	-84.000000
0.300000	26.520000	52.550000	665.000000	0.000000	146.000000	57.000000	68.000000	-76.000000
0.310000	26.750000	51.840000	661.000000	0.000000	146.000000	57.000000	23.000000	-71.000000
0.320000	26.690000	51.180000	658.000000	0.000000	146.000000	57.000000	-6.000000	-66.000000
0.330000	26.070000	50.490000	636.000000	0.000000	146.000000	57.000000	-62.000000	-69.000000
0.340000	25.010000	49.770000	644.000000	0.000000	144.000000	57.000000	-106.000000	-72.000000
0.350000	23.660000	49.070000	644.000000	0.000000	144.000000	57.000000	-135.000000	-70.000000
0.360000	21.970000	48.510000	636.000000	0.000000	143.000000	57.000000	-169.000000	-56.000000
0.370000	20.220000	48.040000	605.000000	0.000000	143.000000	57.000000	-175.000000	-47.000000
0.380000	18.430000	47.990000	586.000000	0.000000	143.000000	57.000000	-179.000000	-5.000000
0.390000	17.380000	48.270000	577.000000	0.000000	140.000000	58.000000	-105.000000	28.000000
0.400000	16.950000	48.770000	541.000000	0.000000	140.000000	58.000000	-43.000000	50.000000
0.410000	16.950000	49.540000	516.000000	0.000000	140.000000	58.000000	0.000000	77.000000
0.420000	17.610000	50.530000	521.000000	0.000000	139.000000	57.000000	66.000000	99.000000
0.430000	19.030000	51.660000	541.000000	0.000000	139.000000	57.000000	142.000000	113.000000
0.440000	20.950000	52.920000	570.000000	0.000000	139.000000	57.000000	192.000000	126.000000
0.450000	23.580000	54.310000	588.000000	0.000000	139.000000	57.000000	263.000000	139.000000
0.460000	26.500000	55.780000	614.000000	0.000000	139.000000	57.000000	292.000000	147.000000
0.470000	29.610000	56.720000	613.000000	0.000000	140.000000	58.000000	311.000000	94.000000
0.480000	32.440000	57.250000	628.000000	0.000000	140.000000	58.000000	283.000000	53.000000
0.490000	34.490000	57.510000	636.000000	0.000000	143.000000	57.000000	205.000000	26.000000
0.500000	36.010000	57.340000	619.000000	0.000000	144.000000	58.000000	152.000000	-17.000000
0.510000	36.600000	57.110000	624.000000	0.000000	146.000000	58.000000	59.000000	-23.000000
0.520000	36.340000	56.580000	633.000000	0.000000	147.000000	58.000000	-26.000000	-53.000000
0.530000	35.500000	55.860000	645.000000	0.000000	147.000000	58.000000	-84.000000	-72.000000
0.540000	33.830000	54.950000	641.000000	0.000000	147.000000	58.000000	-167.000000	-91.000000
0.550000	31.470000	53.850000	659.000000	0.000000	147.000000	58.000000	-236.000000	-110.000000
0.560000	28.650000	52.620000	671.000000	0.000000	148.000000	57.000000	-282.000000	-123.000000
0.570000	25.420000	51.360000	678.000000	0.000000	147.000000	58.000000	-323.000000	-126.000000
0.580000	22.160000	50.130000	676.000000	0.000000	147.000000	58.000000	-326.000000	-123.000000
0.590000	18.870000	49.190000	670.000000	0.000000	146.000000	57.000000	-329.000000	-94.000000
0.600000	16.510000	48.440000	671.000000	0.000000	144.000000	58.000000	-236.000000	-75.000000
0.610000	14.870000	48.080000	671.000000	0.000000	143.000000	57.000000	-164.000000	-36.000000
0.620000	13.720000	48.080000	664.000000	0.000000	143.000000	57.000000	-115.000000	0.000000
0.630000	13.370000	48.350000	662.000000	0.000000	140.000000	58.000000	-35.000000	27.000000
0.640000	13.650000	48.770000	668.000000	0.000000	140.000000	58.000000	28.000000	42.000000
0.650000	14.350000	49.450000	664.000000	0.000000	138.000000	58.000000	70.000000	68.000000
0.660000	15.910000	50.300000	662.000000	0.000000	138.000000	58.000000	156.000000	85.000000
0.670000	18.370000	51.460000	664.000000	0.000000	138.000000	58.000000	246.000000	116.000000
0.680000	21.440000	52.820000	664.000000	0.000000	139.000000	58.000000	307.000000	136.000000
0.690000	24.860000	54.320000	653.000000	0.000000	140.000000	58.000000	342.000000	150.000000
0.700000	28.480000	55.710000	644.000000	0.000000	143.000000	57.000000	362.000000	139.000000
0.710000	32.220000	56.860000	658.000000	0.000000	143.000000	57.000000	374.000000	115.000000
0.720000	35.630000	57.860000	664.000000	0.000000	146.000000	57.000000	341.000000	100.000000
0.730000	38.140000	58.290000	652.000000	0.000000	147.000000	58.000000	251.000000	43.000000
0.740000	40.040000	58.420000	639.000000	0.000000	148.000000	57.000000	190.000000	13.000000
0.750000	41.040000	58.360000	560.000000	0.000000	151.000000	56.000000	100.000000	-6.000000
0.760000	41.430000	58.180000	399.000000	0.000000	151.000000	56.000000	39.000000	-18.000000
0.770000	41.430000	58.180000	0.000000	1.000000	152.000000	56.000000	0.000000	0.000000
0.780000	41.030000	57.770000	0.000000	0.000000	152.000000	56.000000	-40.000000	-41.000000
0.790000	40.430000	57.670000	0.000000	0.000000	152.000000	56.000000	-60.000000	-10.000000
0.800000	39.680000	57.670000	0.000000	0.000000	153.000000	55.000000	-75.000000	0.000000
0.810000	38.890000	57.620000	0.000000	0.000000	153.000000	55.000000	-79.000000	-5.000000
0.820000	38.060000	57.550000	0.000000	0.000000	153.000000	55.000000	-83.000000	-7.000000
0.830000	37.210000	57.400000	0.000000	0.000000	153.000000	55.000000	-85.000000	-15.000000
0.840000	36.620000	57.150000	0.000000	0.000000	153.000000	55.000000	-59.000000	-25.000000
0.850000	36.050000	56.830000	0.000000	0.000000	153.000000	54.000000	-57.000000	-32.000000
0.860000	35.500000	56.600000	0.000000	0.000000	154.000000	53.000000	-55.000000	-23.000000
0.870000	34.900000	56.440000	0.000000	0.000000	155.000000	52.000000	-60.000000	-16.000000
0.880000	34.050000	56.120000	0.000000	0.000000	156.000000	51.000000	-85.000000	-32.000000
0.890000	33.050000	55.800000	0.000000	0.000000	157.000000	51.000000	-100.000000	-32.000000
0.900000	31.750000	55.480000	0.000000	0.000000	157.000000	51.000000	-130.000000	-32.000000
0.910000	30.360000	55.240000	0.000000	0.000000	156.000000	50.000000	-139.000000	-24.000000
0.920000	28.920000	55.050000	0.000000	0.000000	153.000000	50.000000	-144.000000	-19.000000
0.930000	27.660000	54.870000	0.000000	0.000000	152.000000	49.000000	-126.000000	-18.000000
0.940000	26.390000	54.640000	0.000000	0.000000	151.000000	49.000000	-127.000000	-23.000000
0.950000	25.120000	54.330000	0.000000	0.000000	148.000000	50.000000	-127.000000	-31.000000
0.960000	24.050000	53.950000	0.000000	0.000000	148.000000	50.000000	-107.000000	-38.000000
0.970000	22.980000	53.490000	0.000000	0.000000	146.000000	50.000000	-107.000000	-46.000000
0.980000	21.950000	53.000000	0.000000	0.000000	147.000000	51.000000	-103.000000	-49.000000
0.990000	21.190000	52.450000	0.000000	0.000000	146.000000	52.000000	-76.000000	-55.000000
1.000000	20.610000	51.860000	0.000000	0.000000	145.000000	53.000000	-58.000000	-59.000000
1.010000	20.530000	52.310000	0.000000	0.000000	145.000000	54.000000	-8.000000	45.000000
1.020000	20.720000	52.560000	0.000000	0.000000	145.000000	54.000000	19.000000	25.000000
1.030000	21.090000	52.670000	0.000000	0.000000	144.000000	54.000000	37.000000	11.000000
1.040000	21.440000	52.950000	0.000000	0.000000	142.000000	54.000000	35.000000	28.000000
1.050000	21.780000	53.240000	0.000000	0.000000	142.000000	54.000000	34.000000	29.000000
1.060000	22.020000	53.550000	0.000000	0.000000	141.000000	53.000000	24.000000	31.000000
1.070000	22.180000	53.800000	0.000000	0.000000	141.000000	53.000000	16.000000	25.000000
1.080000	22.360000	54.050000	0.000000	0.000000	142.000000	54.000000	18.000000	25.000000
1.090000	22.550000	54.300000	0.000000	0.000000	142.000000	54.000000	19.000000	25.000000
1.100000	22.750000	54.580000	0.000000	0.000000	142.000000	54.000000	20.000000	28.000000
1.110000	23.010000	54.870000	0.000000	0.000000	144.000000	54.000000	26.000000	29.000000
1.120000	23.210000	55.080000	0.000000	0.000000	144.000000	54.000000	20.000000	21.000000
1.130000	23.360000	55.140000	0.000000	0.000000	144.000000	54.000000	15.000000	6.000000
1.140000	23.420000	55.140000	0.000000	0.000000	145.000000	55.000000	6.000000	0.000000
1.150000	23.420000	55.010000	0.000000	0.000000	145.000000	55.000000	0.000000	-13.000000
1.160000	23.420000	54.930000	0.000000	0.000000	145.000000	55.000000	0.000000	-8.000000
1.170000	23.420000	54.840000	0.000000	0.000000	145.000000	55.000000	0.000000	-9.000000
1.180000	23.470000	54.840000	0.000000	0.000000	144.000000	56.000000	5.000000	0.000000
1.190000	23.470000	54.840000	179.000000	1.000000	144.000000	56.000000	0.000000	0.000000
1.200000	23.470000	54.840000	239.000000	0.000000	144.000000	56.000000	0.000000	0.000000
1.210000	23.470000	54.840000	309.000000	0.000000	143.000000	56.000000	0.000000	0.000000
1.220000	23.470000	54.840000	363.000000	0.000000	144.000000	57.000000	0.000000	0.000000
1.230000	23.470000	54.840000	407.000000	0.000000	144.000000	57.000000	0.000000	0.000000
1.240000	23.470000	54.840000	420.000000	0.000000	144.000000	57.000000	0.000000	0.000000
1.250000	23.110000	54.830000	441.000000	0.000000	144.000000	57.000000	-36.000000	-1.000000
1.260000	22.880000	54.660000	465.000000	0.000000	144.000000	57.000000	-23.000000	-17.000000
1.270000	22.640000	54.500000	493.000000	0.000000	144.000000	57.000000	-24.000000	-16.000000
1.280000	22.480000	54.360000	507.000000	0.000000	144.000000	57.000000	-16.000000	-14.000000
1.290000	22.300000	54.240000	519.000000	0.000000	144.000000	57.000000	-18.000000	-12.000000
1.300000	22.140000	54.000000	515.000000	0.000000	144.000000	57.000000	-16.000000	-24.000000
1.310000	21.980000	53.780000	515.000000	0.000000	144.000000	57.000000	-16.000000	-22.000000
1.320000	21.880000	53.570000	514.000000	0.000000	144.000000	57.000000	-10.000000	-21.000000
1.330000	21.800000	53.350000	494.000000	0.000000	144.000000	57.000000	-8.000000	-22.000000
1.340000	21.800000	53.250000	494.000000	0.000000	144.000000	57.000000	0.000000	-10.000000
1.350000	21.900000	53.250000	501.000000	0.000000	144.000000	57.000000	10.000000	0.000000
1.360000	22.030000	53.250000	510.000000	0.000000	144.000000	57.000000	13.000000	0.000000
1.370000	22.180000	53.330000	510.000000	0.000000	143.000000	56.000000	15.000000	8.000000
1.380000	22.370000	53.550000	510.000000	0.000000	143.000000	56.000000	19.000000	22.000000
1.390000	22.620000	53.910000	522.000000	0.000000	143.000000	56.000000	25.000000	36.000000
1.400000	22.870000	54.250000	522.000000	0.000000	143.000000	56.000000	25.000000	34.000000
1.410000	23.000000	54.550000	521.000000	0.000000	144.000000	57.000000	13.000000	30.000000
1.420000	23.050000	54.840000	537.000000	0.000000	144.000000	57.000000	5.000000	29.000000
1.430000	23.050000	54.930000	559.000000	0.000000	144.000000	57.000000	0.000000	9.000000
1.440000	23.050000	54.880000	565.000000	0.000000	144.000000	57.000000	0.000000	-5.000000
1.450000	23.050000	54.880000	567.000000	0.000000	144.000000	57.000000	0.000000	0.000000
1.460000	23.050000	54.750000	568.000000	0.000000	144.000000	57.000000	0.000000	-13.000000
1.470000	23.050000	54.560000	570.000000	0.000000	144.000000	57.000000	0.000000	-19.000000
1.480000	22.960000	54.270000	561.000000	0.000000	144.000000	57.000000	-9.000000	-29.000000
1.490000	22.960000	53.910000	544.000000	0.000000	144.000000	57.000000	0.000000	-36.000000
1.500000	22.910000	53.630000	481.000000	0.000000	144.000000	57.000000	-5.000000	-28.000000
1.510000	22.910000	53.330000	339.000000	0.000000	144.000000	57.000000	0.000000	-30.000000
1.520000	22.910000	53.170000	39.000000	0.000000	144.000000	57.000000	0.000000	-16.000000
1.530000	22.910000	53.170000	0.000000	1.000000	144.000000	57.000000	0.000000	0.000000
1.540000	22.960000	53.180000	0.000000	0.000000	144.000000	57.000000	5.000000	1.000000
1.550000	23.030000	53.540000	0.000000	0.000000	144.000000	57.000000	7.000000	36.000000
1.560000	23.130000	54.100000	0.000000	0.000000	143.000000	56.000000	10.000000	56.000000
1.570000	23.230000	54.710000	0.000000	0.000000	143.000000	56.000000	10.000000	61.000000
1.580000	23.300000	55.320000	0.000000	0.000000	144.000000	56.000000	7.000000	61.000000
1.590000	23.350000	55.910000	0.000000	0.000000	144.000000	56.000000	5.000000	59.000000
1.600000	23.400000	56.480000	0.000000	0.000000	143.000000	55.000000	5.000000	57.000000
1.610000	23.400000	56.980000	0.000000	0.000000	143.000000	55.000000	0.000000	50.000000
1.620000	23.500000	57.240000	0.000000	0.000000	143.000000	55.000000	10.000000	26.000000
1.630000	23.500000	57.240000	297.000000	1.000000	144.000000	56.000000	0.000000	0.000000
1.640000	23.500000	57.240000	335.000000	0.000000	144.000000	56.000000	0.000000	0.000000
1.650000	23.630000	57.530000	367.000000	0.000000	144.000000	56.000000	13.000000	29.000000
1.660000	23.630000	57.460000	441.000000	0.000000	144.000000	56.000000	0.000000	-7.000000
1.670000	23.690000	57.350000	489.000000	0.000000	145.000000	56.000000	6.000000	-11.000000
1.680000	23.690000	57.200000	546.000000	0.000000	145.000000	56.000000	0.000000	-15.000000
1.690000	23.690000	56.830000	580.000000	0.000000	145.000000	56.000000	0.000000	-37.000000
1.700000	23.690000	56.330000	595.000000	0.000000	144.000000	57.000000	0.000000	-50.000000
1.710000	23.690000	55.870000	588.000000	0.000000	144.000000	57.000000	0.000000	-46.000000
1.720000	23.690000	55.340000	595.000000	0.000000	144.000000	57.000000	0.000000	-53.000000
1.730000	23.620000	54.780000	592.000000	0.000000	144.000000	57.000000	-7.000000	-56.000000
1.740000	23.620000	54.240000	578.000000	0.000000	144.000000	57.000000	0.000000	-54.000000
1.750000	23.620000	53.780000	516.000000	0.000000	144.000000	57.000000	0.000000	-46.000000
1.760000	23.620000	53.470000	379.000000	0.000000	144.000000	57.000000	0.000000	-31.000000
1.770000	23.620000	53.250000	151.000000	0.000000	144.000000	57.000000	0.000000	-22.000000
1.780000	23.620000	53.250000	0.000000	1.000000	144.000000	57.000000	0.000000	0.000000
1.790000	23.690000	53.390000	0.000000	0.000000	144.000000	57.000000	7.000000	14.000000
1.800000	23.690000	53.730000	0.000000	0.000000	144.000000	57.000000	0.000000	34.000000
1.810000	23.750000	54.320000	0.000000	0.000000	145.000000	56.000000	6.000000	59.000000
1.820000	23.800000	55.000000	0.000000	0.000000	144.000000	56.000000	5.000000	68.000000
1.830000	23.860000	55.750000	0.000000	0.000000	144.000000	56.000000	6.000000	75.000000
1.840000	23.960000	56.480000	0.000000	0.000000	144.000000	56.000000	10.000000	73.000000
1.850000	24.090000	57.220000	0.000000	0.000000	144.000000	56.000000	13.000000	74.000000
1.860000	24.090000	57.220000	200.000000	1.000000	144.000000	56.000000	0.000000	0.000000
1.870000	24.390000	58.020000	312.000000	0.000000	144.000000	56.000000	30.000000	80.000000
1.880000	24.390000	58.100000	363.000000	0.000000	144.000000	56.000000	0.000000	8.000000
1.890000	24.390000	58.100000	418.000000	0.000000	145.000000	56.000000	0.000000	0.000000
1.900000	24.440000	58.020000	461.000000	0.000000	145.000000	56.000000	5.000000	-8.000000
1.910000	24.440000	57.890000	505.000000	0.000000	147.000000	56.000000	0.000000	-13.000000
1.920000	24.500000	57.550000	544.000000	0.000000	148.000000	56.000000	6.000000	-34.000000
1.930000	24.500000	57.080000	550.000000	0.000000	148.000000	56.000000	0.000000	-47.000000
1.940000	24.500000	56.540000	560.000000	0.000000	147.000000	56.000000	0.000000	-54.000000
1.950000	24.500000	55.990000	572.000000	0.000000	147.000000	56.000000	0.000000	-55.000000
1.960000	24.500000	55.400000	591.000000	0.000000	147.000000	56.000000	0.000000	-59.000000
1.970000	24.500000	54.800000	594.000000	0.000000	146.000000	57.000000	0.000000	-60.000000
1.980000	24.500000	54.240000	599.000000	0.000000	146.000000	57.000000	0.000000	-56.000000
1.990000	24.430000	53.800000	597.000000	0.000000	146.000000	57.000000	-7.000000	-44.000000
2.000000	24.380000	53.400000	595.000000	0.000000	146.000000	57.000000	-5.000000	-40.000000
2.010000	24.330000	53.290000	595.000000	0.000000	146.000000	57.000000	-5.000000	-11.000000
2.020000	24.330000	53.290000	595.000000	0.000000	146.000000	57.000000	0.000000	0.000000
2.030000	24.280000	53.350000	588.000000	0.000000	146.000000	57.000000	-5.000000	6.000000
2.040000	24.280000	53.560000	595.000000	0.000000	145.000000	56.000000	0.000000	21.000000
2.050000	24.280000	53.840000	592.000000	0.000000	145.000000	56.000000	0.000000	28.000000
2.060000	24.280000	54.180000	591.000000	0.000000	145.000000	56.000000	0.000000	34.000000
2.070000	24.440000	54.500000	569.000000	0.000000	145.000000	56.000000	16.000000	32.000000
2.080000	24.660000	54.790000	565.000000	0.000000	146.000000	57.000000	22.000000	29.000000
2.090000	24.910000	55.070000	542.000000	0.000000	146.000000	57.000000	25.000000	28.000000
2.100000	25.160000	55.230000	526.000000	0.000000	146.000000	57.000000	25.000000	16.000000
2.110000	25.310000	55.230000	495.000000	0.000000	146.000000	57.000000	15.000000	0.000000
2.120000	25.310000	55.230000	481.000000	0.000000	146.000000	57.000000	0.000000	0.000000
2.130000	25.310000	55.230000	493.000000	0.000000	147.000000	58.000000	0.000000	0.000000
2.140000	25.180000	54.840000	495.000000	0.000000	147.000000	58.000000	-13.000000	-39.000000
2.150000	24.890000	54.510000	499.000000	0.000000	147.000000	58.000000	-29.000000	-33.000000
2.160000	24.480000	54.110000	496.000000	0.000000	147.000000	58.000000	-41.000000	-40.000000
2.170000	24.270000	53.850000	496.000000	0.000000	147.000000	58.000000	-21.000000	-26.000000
2.180000	24.100000	53.680000	460.000000	0.000000	147.000000	58.000000	-17.000000	-17.000000
2.190000	24.010000	53.590000	342.000000	0.000000	146.000000	57.000000	-9.000000	-9.000000
2.200000	24.010000	53.540000	105.000000	0.000000	146.000000	57.000000	0.000000	-5.000000
