t	x	y	pressure	penup	azimuth	inclination	v_x	v_y
0.000000	18.230000	35.280000	46.000000	1.000000	347.000000	69.000000	0.000000	0.000000
0.010000	18.280000	35.420000	60.000000	0.000000	347.000000	69.000000	5.000000	14.000000
0.020000	18.280000	35.370000	96.000000	0.000000	347.000000	69.000000	0.000000	-5.000000
0.030000	18.280000	35.370000	134.000000	0.000000	347.000000	69.000000	0.000000	0.000000
0.040000	18.280000	35.370000	198.000000	0.000000	347.000000	69.000000	0.000000	0.000000
0.050000	18.280000	35.370000	253.000000	0.000000	347.000000	69.000000	0.000000	0.000000
0.060000	18.280000	35.260000	292.000000	0.000000	347.000000	69.000000	0.000000	-11.000000
0.070000	18.210000	35.140000	359.000000	0.000000	345.000000	68.000000	-7.000000	-12.000000
0.080000	18.210000	34.950000	396.000000	0.000000	345.000000	68.000000	0.000000	-19.000000
0.090000	18.060000	34.650000	465.000000	0.000000	345.000000	67.000000	-15.000000	-30.000000
0.100000	17.920000	34.280000	489.000000	0.000000	345.000000	67.000000	-14.000000	-37.000000
0.110000	17.720000	33.920000	510.000000	0.000000	345.000000	67.000000	-20.000000	-36.000000
0.120000	17.510000	33.500000	546.000000	0.000000	348.000000	68.000000	-21.000000	-42.000000
0.130000	17.260000	33.030000	550.000000	0.000000	348.000000	68.000000	-25.000000	-47.000000
0.140000	16.970000	32.580000	560.000000	0.000000	348.000000	67.000000	-29.000000	-45.000000
0.150000	16.620000	32.140000	581.000000	0.000000	351.000000	67.000000	-35.000000	-44.000000
0.160000	16.370000	31.700000	595.000000	0.000000	351.000000	67.000000	-25.000000	-44.000000
0.170000	16.170000	31.360000	614.000000	0.000000	351.000000	66.000000	-20.000000	-34.000000
0.180000	16.010000	31.050000	622.000000	0.000000	351.000000	66.000000	-16.000000	-31.000000
0.190000	15.940000	30.790000	638.000000	0.000000	351.000000	66.000000	-7.000000	-26.000000
0.200000	15.940000	30.580000	642.000000	0.000000	351.000000	65.000000	0.000000	-21.000000
0.210000	16.010000	30.420000	637.000000	0.000000	351.000000	65.000000	7.000000	-16.000000
0.220000	16.180000	30.270000	645.000000	0.000000	349.000000	65.000000	17.000000	-15.000000
0.230000	16.400000	30.120000	645.000000	0.000000	350.000000	64.000000	22.000000	-15.000000
0.240000	16.830000	29.940000	644.000000	0.000000	352.000000	64.000000	43.000000	-18.000000
0.250000	17.380000	29.810000	641.000000	0.000000	351.000000	65.000000	55.000000	-13.000000
0.260000	18.010000	29.750000	639.000000	0.000000	351.000000	65.000000	63.000000	-6.000000
0.270000	18.640000	29.750000	636.000000	0.000000	351.000000	65.000000	63.000000	0.000000
0.280000	19.040000	29.820000	619.000000	0.000000	351.000000	66.000000	40.000000	7.000000
0.290000	19.290000	30.010000	608.000000	0.000000	351.000000	66.000000	25.000000	19.000000
0.300000	19.370000	30.210000	602.000000	0.000000	351.000000	66.000000	8.000000	20.000000
0.310000	19.320000	30.450000	595.000000	0.000000	349.000000	66.000000	-5.000000	24.000000
0.320000	19.170000	30.770000	602.000000	0.000000	349.000000	66.000000	-15.000000	32.000000
0.330000	18.640000	31.100000	609.000000	0.000000	349.000000	66.000000	-53.000000	33.000000
0.340000	17.510000	31.410000	616.000000	0.000000	347.000000	65.000000	-113.000000	31.000000
0.350000	15.990000	31.330000	611.000000	0.000000	347.000000	65.000000	-152.000000	-8.000000
0.360000	14.170000	31.020000	617.000000	0.000000	347.000000	65.000000	-182.000000	-31.000000
0.370000	12.310000	30.530000	636.000000	0.000000	349.000000	66.000000	-186.000000	-49.000000
0.380000	10.750000	29.810000	649.000000	0.000000	349.000000	66.000000	-156.000000	-72.000000
0.390000	9.390000	28.950000	696.000000	0.000000	349.000000	65.000000	-136.000000	-86.000000
0.400000	8.600000	28.270000	739.000000	0.000000	351.000000	65.000000	-79.000000	-68.000000
0.410000	8.380000	27.650000	753.000000	0.000000	354.000000	65.000000	-22.000000	-62.000000
0.420000	8.530000	27.230000	774.000000	0.000000	354.000000	65.000000	15.000000	-42.000000
0.430000	9.010000	26.920000	774.000000	0.000000	356.000000	65.000000	48.000000	-31.000000
0.440000	9.890000	26.710000	751.000000	0.000000	358.000000	65.000000	88.000000	-21.000000
0.450000	11.040000	26.710000	656.000000	0.000000	358.000000	65.000000	115.000000	0.000000
0.460000	12.080000	26.920000	210.000000	0.000000	358.000000	65.000000	104.000000	21.000000
0.470000	12.080000	26.920000	0.000000	1.000000	358.000000	64.000000	0.000000	0.000000
0.480000	13.780000	27.220000	0.000000	0.000000	358.000000	64.000000	170.000000	30.000000
0.490000	14.330000	27.220000	0.000000	0.000000	358.000000	64.000000	55.000000	0.000000
0.500000	14.740000	27.220000	0.000000	0.000000	358.000000	63.000000	41.000000	0.000000
0.510000	15.210000	27.560000	0.000000	0.000000	356.000000	62.000000	47.000000	34.000000
0.520000	15.730000	28.070000	0.000000	0.000000	355.000000	60.000000	52.000000	51.000000
0.530000	16.320000	28.860000	0.000000	0.000000	355.000000	59.000000	59.000000	79.000000
0.540000	16.880000	29.450000	0.000000	0.000000	355.000000	57.000000	56.000000	59.000000
0.550000	17.400000	30.450000	0.000000	0.000000	357.000000	56.000000	52.000000	100.000000
0.560000	17.880000	31.810000	0.000000	0.000000	359.000000	56.000000	48.000000	136.000000
0.570000	18.350000	32.310000	0.000000	0.000000	360.000000	55.000000	47.000000	50.000000
0.580000	18.760000	32.600000	0.000000	0.000000	363.000000	55.000000	41.000000	29.000000
0.590000	19.170000	32.760000	0.000000	0.000000	364.000000	55.000000	41.000000	16.000000
0.600000	19.580000	32.870000	0.000000	0.000000	367.000000	56.000000	41.000000	11.000000
0.610000	19.910000	32.930000	0.000000	0.000000	370.000000	58.000000	33.000000	6.000000
0.620000	20.190000	32.930000	0.000000	0.000000	370.000000	59.000000	28.000000	0.000000
0.630000	20.420000	32.930000	0.000000	0.000000	369.000000	61.000000	23.000000	0.000000
0.640000	20.570000	32.850000	0.000000	0.000000	366.000000	62.000000	15.000000	-8.000000
0.650000	20.760000	32.720000	0.000000	0.000000	364.000000	63.000000	19.000000	-13.000000
0.660000	20.880000	32.610000	0.000000	0.000000	360.000000	64.000000	12.000000	-11.000000
0.670000	20.950000	32.510000	0.000000	0.000000	358.000000	64.000000	7.000000	-10.000000
0.680000	20.950000	32.410000	0.000000	0.000000	356.000000	64.000000	0.000000	-10.000000
0.690000	21.020000	32.340000	0.000000	0.000000	354.000000	64.000000	7.000000	-7.000000
0.700000	21.070000	32.150000	0.000000	0.000000	354.000000	63.000000	5.000000	-19.000000
0.710000	21.070000	31.880000	0.000000	0.000000	352.000000	63.000000	0.000000	-27.000000
0.720000	20.990000	32.660000	0.000000	0.000000	352.000000	63.000000	-8.000000	78.000000
0.730000	20.890000	32.710000	0.000000	0.000000	353.000000	62.000000	-10.000000	5.000000
0.740000	20.890000	32.280000	0.000000	0.000000	351.000000	62.000000	0.000000	-43.000000
0.750000	21.030000	32.020000	0.000000	0.000000	351.000000	62.000000	14.000000	-26.000000
0.760000	21.180000	31.800000	0.000000	0.000000	351.000000	62.000000	15.000000	-22.000000
0.770000	21.280000	31.620000	0.000000	0.000000	351.000000	62.000000	10.000000	-18.000000
0.780000	21.280000	31.690000	0.000000	0.000000	349.000000	62.000000	0.000000	7.000000
0.790000	21.220000	31.780000	0.000000	0.000000	349.000000	62.000000	-6.000000	9.000000
0.800000	21.050000	31.860000	0.000000	0.000000	349.000000	62.000000	-17.000000	8.000000
0.810000	20.960000	31.860000	0.000000	0.000000	349.000000	62.000000	-9.000000	0.000000
0.820000	20.870000	31.750000	0.000000	0.000000	349.000000	62.000000	-9.000000	-11.000000
0.830000	20.800000	31.650000	0.000000	0.000000	349.000000	62.000000	-7.000000	-10.000000
0.840000	20.740000	31.570000	0.000000	0.000000	351.000000	62.000000	-6.000000	-8.000000
0.850000	20.650000	31.570000	0.000000	0.000000	351.000000	62.000000	-9.000000	0.000000
0.860000	20.650000	31.570000	0.000000	0.000000	351.000000	62.000000	0.000000	0.000000
0.870000	20.650000	31.570000	0.000000	0.000000	351.000000	62.000000	0.000000	0.000000
0.880000	20.710000	31.570000	0.000000	0.000000	351.000000	62.000000	6.000000	0.000000
0.890000	20.770000	31.630000	0.000000	0.000000	351.000000	62.000000	6.000000	6.000000
0.900000	20.830000	31.630000	0.000000	0.000000	351.000000	62.000000	6.000000	0.000000
0.910000	20.780000	31.630000	0.000000	0.000000	351.000000	62.000000	-5.000000	0.000000
0.920000	20.710000	31.630000	0.000000	0.000000	351.000000	62.000000	-7.000000	0.000000
0.930000	20.620000	31.630000	0.000000	0.000000	351.000000	62.000000	-9.000000	0.000000
0.940000	20.530000	31.580000	0.000000	0.000000	351.000000	62.000000	-9.000000	-5.000000
0.950000	20.430000	31.580000	0.000000	0.000000	351.000000	62.000000	-10.000000	0.000000
0.960000	20.340000	31.630000	0.000000	0.000000	351.000000	62.000000	-9.000000	5.000000
0.970000	20.340000	31.630000	0.000000	0.000000	351.000000	62.000000	0.000000	0.000000
0.980000	20.340000	31.630000	0.000000	0.000000	353.000000	62.000000	0.000000	0.000000
0.990000	20.340000	31.630000	0.000000	0.000000	353.000000	62.000000	0.000000	0.000000
1.000000	20.200000	32.050000	0.000000	0.000000	353.000000	62.000000	-14.000000	42.000000
1.010000	20.200000	32.430000	0.000000	0.000000	353.000000	62.000000	0.000000	38.000000
1.020000	20.200000	31.880000	0.000000	0.000000	352.000000	63.000000	0.000000	-55.000000
1.030000	20.140000	31.780000	0.000000	0.000000	352.000000	63.000000	-6.000000	-10.000000
1.040000	20.140000	31.970000	0.000000	0.000000	352.000000	63.000000	0.000000	19.000000
1.050000	20.140000	31.970000	0.000000	0.000000	352.000000	63.000000	0.000000	0.000000
1.060000	20.140000	31.970000	0.000000	0.000000	352.000000	63.000000	0.000000	0.000000
1.070000	20.140000	32.030000	0.000000	0.000000	352.000000	63.000000	0.000000	6.000000
1.080000	20.210000	32.030000	0.000000	0.000000	352.000000	63.000000	7.000000	0.000000
1.090000	20.210000	31.980000	0.000000	0.000000	352.000000	63.000000	0.000000	-5.000000
1.100000	20.210000	31.980000	0.000000	0.000000	352.000000	63.000000	0.000000	0.000000
1.110000	20.210000	31.980000	0.000000	0.000000	352.000000	63.000000	0.000000	0.000000
1.120000	20.210000	31.980000	0.000000	0.000000	352.000000	63.000000	0.000000	0.000000
1.130000	20.150000	31.860000	0.000000	0.000000	352.000000	63.000000	-6.000000	-12.000000
1.140000	20.150000	31.810000	0.000000	0.000000	352.000000	63.000000	0.000000	-5.000000
1.150000	20.080000	31.760000	0.000000	0.000000	352.000000	63.000000	-7.000000	-5.000000
1.160000	20.080000	31.710000	0.000000	0.000000	352.000000	63.000000	0.000000	-5.000000
1.170000	20.000000	31.710000	0.000000	0.000000	352.000000	63.000000	-8.000000	0.000000
1.180000	19.930000	31.710000	0.000000	0.000000	352.000000	63.000000	-7.000000	0.000000
1.190000	19.800000	31.710000	0.000000	0.000000	352.000000	63.000000	-13.000000	0.000000
1.200000	19.690000	31.710000	0.000000	0.000000	352.000000	63.000000	-11.000000	0.000000
1.210000	19.620000	31.810000	0.000000	0.000000	352.000000	63.000000	-7.000000	10.000000
1.220000	19.570000	31.900000	0.000000	0.000000	352.000000	64.000000	-5.000000	9.000000
1.230000	19.570000	31.900000	91.000000	1.000000	352.000000	64.000000	0.000000	0.000000
1.240000	19.570000	31.900000	137.000000	0.000000	352.000000	64.000000	0.000000	0.000000
1.250000	19.960000	32.110000	212.000000	0.000000	352.000000	64.000000	39.000000	21.000000
1.260000	20.290000	32.280000	249.000000	0.000000	352.000000	64.000000	33.000000	17.000000
1.270000	20.650000	32.410000	294.000000	0.000000	352.000000	64.000000	36.000000	13.000000
1.280000	21.030000	32.410000	369.000000	0.000000	352.000000	64.000000	38.000000	0.000000
1.290000	21.200000	32.350000	472.000000	0.000000	352.000000	64.000000	17.000000	-6.000000
1.300000	21.330000	32.190000	519.000000	0.000000	352.000000	64.000000	13.000000	-16.000000
1.310000	21.330000	31.900000	553.000000	0.000000	352.000000	64.000000	0.000000	-29.000000
1.320000	21.330000	31.530000	567.000000	0.000000	352.000000	64.000000	0.000000	-37.000000
1.330000	21.220000	31.180000	584.000000	0.000000	351.000000	65.000000	-11.000000	-35.000000
1.340000	20.960000	30.890000	566.000000	0.000000	349.000000	65.000000	-26.000000	-29.000000
1.350000	20.610000	30.660000	562.000000	0.000000	349.000000	65.000000	-35.000000	-23.000000
1.360000	20.350000	30.660000	522.000000	0.000000	351.000000	65.000000	-26.000000	0.000000
1.370000	20.140000	30.660000	483.000000	0.000000	351.000000	65.000000	-21.000000	0.000000
1.380000	19.950000	30.970000	423.000000	0.000000	351.000000	65.000000	-19.000000	31.000000
1.390000	19.950000	31.340000	312.000000	0.000000	351.000000	65.000000	0.000000	37.000000
1.400000	20.000000	31.780000	137.000000	0.000000	351.000000	65.000000	5.000000	44.000000
1.410000	20.180000	32.170000	1.000000	1.000000	351.000000	65.000000	0.000000	0.000000
1.420000	20.180000	32.170000	0.000000	0.000000	351.000000	65.000000	0.000000	0.000000
1.430000	20.400000	32.650000	0.000000	0.000000	352.000000	64.000000	22.000000	48.000000
1.440000	20.470000	32.650000	0.000000	0.000000	352.000000	64.000000	7.000000	0.000000
1.450000	20.520000	32.650000	0.000000	0.000000	352.000000	64.000000	5.000000	0.000000
1.460000	20.580000	32.650000	0.000000	0.000000	352.000000	64.000000	6.000000	0.000000
1.470000	20.630000	32.650000	0.000000	0.000000	352.000000	64.000000	5.000000	0.000000
1.480000	20.690000	32.590000	0.000000	0.000000	352.000000	64.000000	6.000000	-6.000000
1.490000	20.690000	32.590000	0.000000	0.000000	350.000000	63.000000	0.000000	0.000000
1.500000	20.770000	32.590000	0.000000	0.000000	350.000000	63.000000	8.000000	0.000000
1.510000	20.820000	32.590000	0.000000	0.000000	350.000000	63.000000	5.000000	0.000000
1.520000	20.870000	32.590000	0.000000	0.000000	350.000000	63.000000	5.000000	0.000000
1.530000	20.940000	32.590000	0.000000	0.000000	350.000000	63.000000	7.000000	0.000000
1.540000	20.990000	32.500000	0.000000	0.000000	350.000000	63.000000	5.000000	-9.000000
1.550000	21.050000	32.450000	0.000000	0.000000	350.000000	63.000000	6.000000	-5.000000
1.560000	21.110000	32.370000	0.000000	0.000000	350.000000	63.000000	6.000000	-8.000000
1.570000	21.190000	32.270000	0.000000	0.000000	350.000000	63.000000	8.000000	-10.000000
1.580000	21.260000	32.220000	0.000000	0.000000	350.000000	63.000000	7.000000	-5.000000
1.590000	21.340000	32.170000	0.000000	0.000000	350.000000	63.000000	8.000000	-5.000000
1.600000	21.440000	32.110000	0.000000	0.000000	350.000000	63.000000	10.000000	-6.000000
1.610000	21.520000	32.110000	0.000000	0.000000	350.000000	63.000000	8.000000	0.000000
1.620000	21.590000	32.040000	0.000000	0.000000	350.000000	63.000000	7.000000	-7.000000
1.630000	21.670000	32.040000	0.000000	0.000000	350.000000	63.000000	8.000000	0.000000
1.640000	21.750000	32.040000	0.000000	0.000000	350.000000	63.000000	8.000000	0.000000
1.650000	21.830000	32.040000	0.000000	0.000000	350.000000	63.000000	8.000000	0.000000
1.660000	21.880000	32.040000	0.000000	0.000000	350.000000	63.000000	5.000000	0.000000
1.670000	21.940000	32.040000	0.000000	0.000000	350.000000	63.000000	6.000000	0.000000
1.680000	22.020000	31.940000	0.000000	0.000000	350.000000	63.000000	8.000000	-10.000000
1.690000	22.110000	31.940000	0.000000	0.000000	350.000000	63.000000	9.000000	0.000000
1.700000	22.190000	31.890000	0.000000	0.000000	350.000000	63.000000	8.000000	-5.000000
1.710000	22.270000	31.890000	0.000000	0.000000	350.000000	63.000000	8.000000	0.000000
1.720000	22.340000	31.890000	0.000000	0.000000	350.000000	63.000000	7.000000	0.000000
1.730000	22.340000	31.950000	0.000000	0.000000	350.000000	63.000000	0.000000	6.000000
1.740000	22.410000	31.950000	0.000000	0.000000	350.000000	63.000000	7.000000	0.000000
1.750000	22.410000	31.950000	0.000000	0.000000	350.000000	63.000000	0.000000	0.000000
1.760000	22.480000	32.030000	0.000000	0.000000	350.000000	63.000000	7.000000	8.000000
1.770000	22.530000	32.080000	0.000000	0.000000	350.000000	63.000000	5.000000	5.000000
1.780000	22.530000	32.150000	0.000000	0.000000	350.000000	63.000000	0.000000	7.000000
1.790000	22.610000	32.220000	0.000000	0.000000	350.000000	63.000000	8.000000	7.000000
1.800000	22.680000	32.350000	0.000000	0.000000	350.000000	63.000000	7.000000	13.000000
1.810000	22.770000	32.480000	0.000000	0.000000	350.000000	63.000000	9.000000	13.000000
1.820000	22.770000	32.480000	1.000000	0.000000	350.000000	63.000000	0.000000	0.000000
1.830000	22.770000	32.480000	48.000000	1.000000	350.000000	63.000000	0.000000	0.000000
1.840000	22.880000	32.860000	108.000000	0.000000	350.000000	63.000000	11.000000	38.000000
1.850000	22.880000	32.950000	172.000000	0.000000	350.000000	63.000000	0.000000	9.000000
1.860000	22.770000	33.010000	256.000000	0.000000	350.000000	63.000000	-11.000000	6.000000
1.870000	22.680000	33.010000	333.000000	0.000000	350.000000	63.000000	-9.000000	0.000000
1.880000	22.550000	32.830000	422.000000	0.000000	350.000000	63.000000	-13.000000	-18.000000
1.890000	22.400000	32.600000	455.000000	0.000000	350.000000	64.000000	-15.000000	-23.000000
1.900000	22.220000	32.110000	475.000000	0.000000	350.000000	64.000000	-18.000000	-49.000000
1.910000	21.970000	31.500000	494.000000	0.000000	350.000000	64.000000	-25.000000	-61.000000
1.920000	21.710000	30.820000	514.000000	0.000000	350.000000	64.000000	-26.000000	-68.000000
1.930000	21.470000	30.300000	502.000000	0.000000	350.000000	64.000000	-24.000000	-52.000000
1.940000	21.120000	29.940000	465.000000	0.000000	350.000000	64.000000	-35.000000	-36.000000
1.950000	20.880000	29.690000	399.000000	0.000000	352.000000	64.000000	-24.000000	-25.000000
1.960000	20.710000	29.620000	311.000000	0.000000	351.000000	65.000000	-17.000000	-7.000000
1.970000	20.600000	29.740000	240.000000	0.000000	351.000000	65.000000	-11.000000	12.000000
1.980000	20.600000	30.000000	131.000000	0.000000	354.000000	65.000000	0.000000	26.000000
1.990000	20.740000	30.350000	1.000000	1.000000	354.000000	65.000000	0.000000	0.000000
2.000000	20.740000	30.350000	0.000000	0.000000	356.000000	65.000000	0.000000	0.000000
2.010000	21.170000	30.970000	0.000000	0.000000	356.000000	65.000000	43.000000	62.000000
2.020000	21.420000	31.160000	0.000000	0.000000	356.000000	65.000000	25.000000	19.000000
2.030000	21.590000	31.260000	0.000000	0.000000	356.000000	64.000000	17.000000	10.000000
2.040000	21.730000	31.330000	0.000000	0.000000	356.000000	64.000000	14.000000	7.000000
2.050000	21.730000	31.390000	0.000000	0.000000	356.000000	64.000000	0.000000	6.000000
2.060000	21.730000	31.390000	0.000000	0.000000	354.000000	64.000000	0.000000	0.000000
2.070000	21.730000	31.390000	51.000000	1.000000	354.000000	64.000000	0.000000	0.000000
2.080000	21.730000	31.390000	91.000000	0.000000	354.000000	64.000000	0.000000	0.000000
2.090000	21.730000	31.390000	170.000000	0.000000	354.000000	63.000000	0.000000	0.000000
2.100000	21.730000	31.390000	264.000000	0.000000	352.000000	64.000000	0.000000	0.000000
2.110000	22.040000	31.390000	329.000000	0.000000	352.000000	64.000000	31.000000	0.000000
2.120000	22.140000	31.390000	391.000000	0.000000	352.000000	64.000000	10.000000	0.000000
2.130000	22.330000	31.390000	443.000000	0.000000	352.000000	64.000000	19.000000	0.000000
2.140000	22.570000	31.390000	470.000000	0.000000	352.000000	64.000000	24.000000	0.000000
2.150000	22.650000	31.390000	489.000000	0.000000	352.000000	64.000000	8.000000	0.000000
2.160000	22.730000	31.390000	509.000000	0.000000	352.000000	64.000000	8.000000	0.000000
2.170000	22.820000	31.390000	510.000000	0.000000	352.000000	64.000000	9.000000	0.000000
2.180000	22.910000	31.390000	509.000000	0.000000	350.000000	64.000000	9.000000	0.000000
2.190000	23.000000	31.450000	517.000000	0.000000	350.000000	64.000000	9.000000	6.000000
2.200000	23.090000	31.450000	517.000000	0.000000	350.000000	64.000000	9.000000	0.000000
2.210000	23.180000	31.550000	512.000000	0.000000	348.000000	63.000000	9.000000	10.000000
2.220000	23.250000	31.550000	522.000000	0.000000	348.000000	63.000000	7.000000	0.000000
2.230000	23.320000	31.610000	520.000000	0.000000	348.000000	63.000000	7.000000	6.000000
2.240000	23.420000	31.610000	512.000000	0.000000	346.000000	63.000000	10.000000	0.000000
