t	x	y	pressure	penup	azimuth	inclination	v_x	v_y
0.000000	52.070000	19.300000	1.000000	1.000000	143.000000	52.000000	0.000000	0.000000
0.010000	52.070000	19.300000	24.000000	1.000000	144.000000	51.000000	0.000000	0.000000
0.020000	52.070000	19.300000	61.000000	0.000000	146.000000	52.000000	0.000000	0.000000
0.030000	52.070000	19.300000	99.000000	0.000000	146.000000	52.000000	0.000000	0.000000
0.040000	52.240000	19.550000	101.000000	0.000000	146.000000	52.000000	17.000000	25.000000
0.050000	52.240000	19.490000	125.000000	0.000000	147.000000	51.000000	0.000000	-6.000000
0.060000	52.240000	19.410000	172.000000	0.000000	147.000000	51.000000	0.000000	-8.000000
0.070000	52.240000	19.020000	196.000000	0.000000	147.000000	51.000000	0.000000	-39.000000
0.080000	52.240000	18.440000	232.000000	0.000000	147.000000	51.000000	0.000000	-58.000000
0.090000	52.240000	17.460000	254.000000	0.000000	146.000000	52.000000	0.000000	-98.000000
0.100000	52.290000	16.300000	284.000000	0.000000	146.000000	52.000000	5.000000	-116.000000
0.110000	52.450000	15.020000	304.000000	0.000000	146.000000	52.000000	16.000000	-128.000000
0.120000	52.590000	13.860000	316.000000	0.000000	146.000000	53.000000	14.000000	-116.000000
0.130000	52.700000	12.760000	310.000000	0.000000	145.000000	54.000000	11.000000	-110.000000
0.140000	52.820000	11.700000	309.000000	0.000000	144.000000	54.000000	12.000000	-106.000000
0.150000	52.950000	10.950000	307.000000	0.000000	145.000000	55.000000	13.000000	-75.000000
0.160000	53.070000	10.450000	305.000000	0.000000	144.000000	56.000000	12.000000	-50.000000
0.170000	53.170000	10.110000	304.000000	0.000000	143.000000	56.000000	10.000000	-34.000000
0.180000	53.280000	9.920000	302.000000	0.000000	143.000000	56.000000	11.000000	-19.000000
0.190000	53.280000	9.850000	289.000000	0.000000	144.000000	57.000000	0.000000	-7.000000
0.200000	53.280000	9.850000	279.000000	0.000000	144.000000	57.000000	0.000000	0.000000
0.210000	53.280000	9.940000	257.000000	0.000000	144.000000	57.000000	0.000000	9.000000
0.220000	53.160000	10.190000	242.000000	0.000000	144.000000	57.000000	-12.000000	25.000000
0.230000	52.980000	10.550000	228.000000	0.000000	144.000000	57.000000	-18.000000	36.000000
0.240000	52.760000	11.010000	216.000000	0.000000	144.000000	57.000000	-22.000000	46.000000
0.250000	52.330000	11.590000	212.000000	0.000000	143.000000	57.000000	-43.000000	58.000000
0.260000	51.760000	12.240000	205.000000	0.000000	143.000000	57.000000	-57.000000	65.000000
0.270000	50.980000	12.760000	212.000000	0.000000	143.000000	57.000000	-78.000000	52.000000
0.280000	50.080000	13.100000	213.000000	0.000000	142.000000	57.000000	-90.000000	34.000000
0.290000	49.110000	13.310000	220.000000	0.000000	140.000000	58.000000	-97.000000	21.000000
0.300000	48.130000	13.360000	220.000000	0.000000	139.000000	57.000000	-98.000000	5.000000
0.310000	47.060000	13.270000	206.000000	0.000000	139.000000	57.000000	-107.000000	-9.000000
0.320000	45.930000	13.090000	207.000000	0.000000	139.000000	57.000000	-113.000000	-18.000000
0.330000	44.970000	12.890000	237.000000	0.000000	138.000000	57.000000	-96.000000	-20.000000
0.340000	44.250000	12.680000	254.000000	0.000000	138.000000	57.000000	-72.000000	-21.000000
0.350000	43.680000	12.450000	252.000000	0.000000	138.000000	57.000000	-57.000000	-23.000000
0.360000	43.370000	12.200000	260.000000	0.000000	138.000000	57.000000	-31.000000	-25.000000
0.370000	43.320000	11.930000	265.000000	0.000000	140.000000	56.000000	-5.000000	-27.000000
0.380000	43.450000	11.620000	269.000000	0.000000	140.000000	56.000000	13.000000	-31.000000
0.390000	43.740000	11.210000	269.000000	0.000000	140.000000	56.000000	29.000000	-41.000000
0.400000	44.290000	10.860000	272.000000	0.000000	140.000000	56.000000	55.000000	-35.000000
0.410000	45.010000	10.540000	269.000000	0.000000	140.000000	56.000000	72.000000	-32.000000
0.420000	45.760000	10.260000	250.000000	0.000000	140.000000	56.000000	75.000000	-28.000000
0.430000	46.680000	10.100000	244.000000	0.000000	140.000000	56.000000	92.000000	-16.000000
0.440000	47.700000	10.010000	193.000000	0.000000	140.000000	56.000000	102.000000	-9.000000
0.450000	48.740000	10.010000	41.000000	0.000000	140.000000	56.000000	104.000000	0.000000
0.460000	48.740000	10.010000	0.000000	1.000000	140.000000	56.000000	0.000000	0.000000
0.470000	50.620000	10.290000	0.000000	0.000000	140.000000	56.000000	188.000000	28.000000
0.480000	51.260000	10.460000	0.000000	0.000000	140.000000	56.000000	64.000000	17.000000
0.490000	51.500000	10.610000	0.000000	0.000000	140.000000	56.000000	24.000000	15.000000
0.500000	51.750000	10.610000	0.000000	0.000000	141.000000	56.000000	25.000000	0.000000
0.510000	52.010000	10.610000	0.000000	0.000000	140.000000	55.000000	26.000000	0.000000
0.520000	52.800000	10.610000	0.000000	0.000000	141.000000	55.000000	79.000000	0.000000
0.530000	53.200000	10.610000	0.000000	0.000000	142.000000	54.000000	40.000000	0.000000
0.540000	53.350000	10.690000	0.000000	0.000000	143.000000	53.000000	15.000000	8.000000
0.550000	53.930000	10.750000	0.000000	0.000000	146.000000	52.000000	58.000000	6.000000
0.560000	54.500000	10.840000	0.000000	0.000000	148.000000	51.000000	57.000000	9.000000
0.570000	55.050000	10.960000	0.000000	0.000000	149.000000	51.000000	55.000000	12.000000
0.580000	55.730000	11.060000	0.000000	0.000000	151.000000	50.000000	68.000000	10.000000
0.590000	56.190000	11.180000	0.000000	0.000000	153.000000	50.000000	46.000000	12.000000
0.600000	56.510000	11.310000	0.000000	0.000000	155.000000	50.000000	32.000000	13.000000
0.610000	56.790000	11.400000	0.000000	0.000000	157.000000	50.000000	28.000000	9.000000
0.620000	57.080000	11.400000	0.000000	0.000000	160.000000	50.000000	29.000000	0.000000
0.630000	57.230000	11.400000	0.000000	0.000000	162.000000	51.000000	15.000000	0.000000
0.640000	57.290000	11.400000	0.000000	0.000000	164.000000	51.000000	6.000000	0.000000
0.650000	57.290000	11.400000	0.000000	0.000000	165.000000	50.000000	0.000000	0.000000
0.660000	57.120000	11.250000	0.000000	0.000000	167.000000	50.000000	-17.000000	-15.000000
0.670000	56.870000	11.090000	0.000000	0.000000	168.000000	50.000000	-25.000000	-16.000000
0.680000	56.450000	10.900000	0.000000	0.000000	167.000000	50.000000	-42.000000	-19.000000
0.690000	55.970000	10.690000	0.000000	0.000000	166.000000	51.000000	-48.000000	-21.000000
0.700000	55.440000	10.490000	0.000000	0.000000	165.000000	51.000000	-53.000000	-20.000000
0.710000	55.090000	10.360000	0.000000	0.000000	164.000000	51.000000	-35.000000	-13.000000
0.720000	54.790000	10.290000	0.000000	0.000000	160.000000	51.000000	-30.000000	-7.000000
0.730000	54.580000	10.240000	0.000000	0.000000	157.000000	52.000000	-21.000000	-5.000000
0.740000	54.410000	10.240000	0.000000	0.000000	155.000000	52.000000	-17.000000	0.000000
0.750000	54.270000	10.240000	0.000000	0.000000	153.000000	53.000000	-14.000000	0.000000
0.760000	54.150000	10.180000	0.000000	0.000000	151.000000	53.000000	-12.000000	-6.000000
0.770000	54.050000	10.180000	0.000000	0.000000	149.000000	53.000000	-10.000000	0.000000
0.780000	53.990000	10.130000	0.000000	0.000000	147.000000	53.000000	-6.000000	-5.000000
0.790000	53.940000	10.130000	0.000000	0.000000	147.000000	53.000000	-5.000000	0.000000
0.800000	53.940000	10.050000	0.000000	0.000000	146.000000	53.000000	0.000000	-8.000000
0.810000	53.860000	10.050000	0.000000	0.000000	145.000000	54.000000	-8.000000	0.000000
0.820000	53.860000	10.050000	0.000000	0.000000	145.000000	54.000000	0.000000	0.000000
0.830000	53.860000	10.050000	0.000000	0.000000	143.000000	53.000000	0.000000	0.000000
0.840000	53.860000	10.050000	0.000000	0.000000	143.000000	53.000000	0.000000	0.000000
0.850000	53.800000	10.050000	0.000000	0.000000	143.000000	53.000000	-6.000000	0.000000
0.860000	53.800000	10.050000	0.000000	0.000000	143.000000	53.000000	0.000000	0.000000
0.870000	53.800000	10.100000	0.000000	0.000000	143.000000	53.000000	0.000000	5.000000
0.880000	53.860000	10.160000	0.000000	0.000000	143.000000	53.000000	6.000000	6.000000
0.890000	53.920000	10.240000	0.000000	0.000000	143.000000	53.000000	6.000000	8.000000
0.900000	54.000000	10.290000	0.000000	0.000000	143.000000	53.000000	8.000000	5.000000
0.910000	54.090000	10.360000	0.000000	0.000000	143.000000	53.000000	9.000000	7.000000
0.920000	54.190000	10.440000	0.000000	0.000000	143.000000	53.000000	10.000000	8.000000
0.930000	54.280000	10.520000	0.000000	0.000000	143.000000	53.000000	9.000000	8.000000
0.940000	54.390000	10.600000	0.000000	0.000000	143.000000	53.000000	11.000000	8.000000
0.950000	54.470000	10.680000	0.000000	0.000000	143.000000	53.000000	8.000000	8.000000
0.960000	54.530000	10.800000	0.000000	0.000000	143.000000	53.000000	6.000000	12.000000
0.970000	54.590000	10.900000	0.000000	0.000000	143.000000	53.000000	6.000000	10.000000
0.980000	54.590000	10.990000	0.000000	0.000000	143.000000	53.000000	0.000000	9.000000
0.990000	54.640000	11.080000	0.000000	0.000000	143.000000	53.000000	5.000000	9.000000
1.000000	54.640000	11.150000	0.000000	0.000000	143.000000	53.000000	0.000000	7.000000
1.010000	54.730000	11.210000	0.000000	0.000000	145.000000	54.000000	9.000000	6.000000
1.020000	54.800000	11.260000	0.000000	0.000000	145.000000	54.000000	7.000000	5.000000
1.030000	54.880000	11.320000	0.000000	0.000000	145.000000	54.000000	8.000000	6.000000
1.040000	54.940000	11.370000	0.000000	0.000000	145.000000	54.000000	6.000000	5.000000
1.050000	55.020000	11.430000	0.000000	0.000000	144.000000	54.000000	8.000000	6.000000
1.060000	55.100000	11.430000	0.000000	0.000000	144.000000	54.000000	8.000000	0.000000
1.070000	55.190000	11.510000	0.000000	0.000000	144.000000	54.000000	9.000000	8.000000
1.080000	55.270000	11.510000	0.000000	0.000000	143.000000	55.000000	8.000000	0.000000
1.090000	55.340000	11.610000	0.000000	0.000000	143.000000	55.000000	7.000000	10.000000
1.100000	55.390000	11.660000	0.000000	0.000000	143.000000	55.000000	5.000000	5.000000
1.110000	55.390000	11.710000	0.000000	0.000000	141.000000	56.000000	0.000000	5.000000
1.120000	55.330000	11.760000	0.000000	0.000000	141.000000	56.000000	-6.000000	5.000000
1.130000	55.330000	11.760000	44.000000	1.000000	140.000000	56.000000	0.000000	0.000000
1.140000	55.330000	11.760000	51.000000	0.000000	140.000000	56.000000	0.000000	0.000000
1.150000	55.020000	11.900000	60.000000	0.000000	140.000000	56.000000	-31.000000	14.000000
1.160000	54.860000	11.900000	91.000000	0.000000	139.000000	57.000000	-16.000000	0.000000
1.170000	54.730000	11.820000	112.000000	0.000000	139.000000	57.000000	-13.000000	-8.000000
1.180000	54.580000	11.730000	134.000000	0.000000	139.000000	57.000000	-15.000000	-9.000000
1.190000	54.430000	11.530000	139.000000	0.000000	139.000000	57.000000	-15.000000	-20.000000
1.200000	54.290000	11.240000	155.000000	0.000000	139.000000	57.000000	-14.000000	-29.000000
1.210000	54.230000	11.000000	170.000000	0.000000	139.000000	57.000000	-6.000000	-24.000000
1.220000	54.230000	10.760000	172.000000	0.000000	139.000000	57.000000	0.000000	-24.000000
1.230000	54.280000	10.580000	165.000000	0.000000	139.000000	57.000000	5.000000	-18.000000
1.240000	54.420000	10.450000	168.000000	0.000000	140.000000	56.000000	14.000000	-13.000000
1.250000	54.650000	10.340000	156.000000	0.000000	140.000000	56.000000	23.000000	-11.000000
1.260000	54.950000	10.340000	149.000000	0.000000	140.000000	56.000000	30.000000	0.000000
1.270000	55.280000	10.480000	149.000000	0.000000	140.000000	56.000000	33.000000	14.000000
1.280000	55.620000	10.660000	120.000000	0.000000	140.000000	56.000000	34.000000	18.000000
1.290000	55.920000	10.920000	108.000000	0.000000	140.000000	56.000000	30.000000	26.000000
1.300000	56.110000	11.230000	93.000000	0.000000	140.000000	58.000000	19.000000	31.000000
1.310000	56.220000	11.640000	68.000000	0.000000	140.000000	58.000000	11.000000	41.000000
1.320000	56.150000	12.030000	67.000000	0.000000	140.000000	58.000000	-7.000000	39.000000
1.330000	55.920000	12.360000	58.000000	0.000000	140.000000	58.000000	-23.000000	33.000000
1.340000	55.570000	12.620000	53.000000	0.000000	140.000000	58.000000	-35.000000	26.000000
1.350000	55.160000	12.700000	47.000000	0.000000	140.000000	58.000000	-41.000000	8.000000
1.360000	54.790000	12.700000	51.000000	0.000000	140.000000	58.000000	-37.000000	0.000000
1.370000	54.480000	12.500000	56.000000	0.000000	140.000000	58.000000	-31.000000	-20.000000
1.380000	54.290000	12.260000	58.000000	0.000000	140.000000	58.000000	-19.000000	-24.000000
1.390000	54.290000	11.970000	63.000000	0.000000	140.000000	58.000000	0.000000	-29.000000
1.400000	54.340000	11.610000	58.000000	0.000000	140.000000	58.000000	5.000000	-36.000000
1.410000	54.540000	11.350000	67.000000	0.000000	140.000000	58.000000	20.000000	-26.000000
1.420000	54.780000	11.150000	56.000000	0.000000	140.000000	58.000000	24.000000	-20.000000
1.430000	55.160000	11.080000	30.000000	0.000000	139.000000	57.000000	38.000000	-7.000000
1.440000	55.620000	11.080000	1.000000	1.000000	139.000000	57.000000	0.000000	0.000000
1.450000	55.620000	11.080000	0.000000	0.000000	139.000000	57.000000	0.000000	0.000000
1.460000	56.440000	11.320000	0.000000	0.000000	140.000000	58.000000	82.000000	24.000000
1.470000	56.830000	11.560000	0.000000	0.000000	140.000000	58.000000	39.000000	24.000000
1.480000	57.120000	11.860000	0.000000	0.000000	140.000000	58.000000	29.000000	30.000000
1.490000	57.280000	12.130000	0.000000	0.000000	140.000000	58.000000	16.000000	27.000000
1.500000	57.340000	12.360000	0.000000	0.000000	142.000000	58.000000	6.000000	23.000000
1.510000	57.340000	12.520000	0.000000	0.000000	142.000000	58.000000	0.000000	16.000000
1.520000	57.340000	12.640000	0.000000	0.000000	142.000000	58.000000	0.000000	12.000000
1.530000	57.340000	12.640000	0.000000	0.000000	142.000000	58.000000	0.000000	0.000000
1.540000	57.240000	12.640000	0.000000	0.000000	142.000000	58.000000	-10.000000	0.000000
1.550000	57.130000	12.640000	0.000000	0.000000	142.000000	58.000000	-11.000000	0.000000
1.560000	57.010000	12.560000	0.000000	0.000000	142.000000	58.000000	-12.000000	-8.000000
1.570000	57.010000	12.490000	0.000000	0.000000	142.000000	58.000000	0.000000	-7.000000
1.580000	57.010000	12.490000	3.000000	0.000000	142.000000	58.000000	0.000000	0.000000
1.590000	57.010000	12.490000	13.000000	0.000000	142.000000	58.000000	0.000000	0.000000
1.600000	57.190000	12.100000	15.000000	1.000000	142.000000	58.000000	0.000000	0.000000
1.610000	57.370000	11.920000	18.000000	0.000000	142.000000	58.000000	18.000000	-18.000000
1.620000	57.610000	11.760000	20.000000	0.000000	142.000000	58.000000	24.000000	-16.000000
1.630000	57.830000	11.610000	22.000000	0.000000	142.000000	58.000000	22.000000	-15.000000
1.640000	57.970000	11.470000	20.000000	0.000000	142.000000	58.000000	14.000000	-14.000000
1.650000	58.060000	11.320000	22.000000	0.000000	142.000000	58.000000	9.000000	-15.000000
1.660000	58.060000	11.170000	24.000000	0.000000	142.000000	58.000000	0.000000	-15.000000
1.670000	57.910000	11.060000	25.000000	0.000000	140.000000	58.000000	-15.000000	-11.000000
1.680000	57.670000	10.930000	32.000000	0.000000	140.000000	58.000000	-24.000000	-13.000000
1.690000	57.380000	10.820000	54.000000	0.000000	140.000000	58.000000	-29.000000	-11.000000
1.700000	57.110000	10.730000	50.000000	0.000000	140.000000	58.000000	-27.000000	-9.000000
1.710000	56.860000	10.660000	78.000000	0.000000	142.000000	57.000000	-25.000000	-7.000000
1.720000	56.710000	10.660000	90.000000	0.000000	140.000000	58.000000	-15.000000	0.000000
1.730000	56.620000	10.660000	101.000000	0.000000	142.000000	58.000000	-9.000000	0.000000
1.740000	56.620000	10.660000	103.000000	0.000000	142.000000	58.000000	0.000000	0.000000
1.750000	56.770000	10.660000	107.000000	0.000000	142.000000	58.000000	15.000000	0.000000
1.760000	56.980000	10.730000	110.000000	0.000000	142.000000	58.000000	21.000000	7.000000
1.770000	57.330000	10.810000	108.000000	0.000000	142.000000	58.000000	35.000000	8.000000
1.780000	57.760000	10.900000	108.000000	0.000000	142.000000	58.000000	43.000000	9.000000
1.790000	58.070000	11.010000	107.000000	0.000000	142.000000	58.000000	31.000000	11.000000
1.800000	58.390000	11.010000	110.000000	0.000000	142.000000	58.000000	32.000000	0.000000
1.810000	58.570000	11.070000	108.000000	0.000000	140.000000	58.000000	18.000000	6.000000
1.820000	58.660000	11.070000	107.000000	0.000000	140.000000	58.000000	9.000000	0.000000
1.830000	58.730000	11.070000	107.000000	0.000000	140.000000	58.000000	7.000000	0.000000
1.840000	58.730000	11.070000	108.000000	0.000000	139.000000	57.000000	0.000000	0.000000
1.850000	58.730000	11.070000	110.000000	0.000000	139.000000	57.000000	0.000000	0.000000
1.860000	58.810000	11.070000	115.000000	0.000000	139.000000	57.000000	8.000000	0.000000
1.870000	58.810000	11.200000	112.000000	0.000000	138.000000	57.000000	0.000000	13.000000
1.880000	58.900000	11.370000	115.000000	0.000000	138.000000	57.000000	9.000000	17.000000
1.890000	58.980000	11.590000	113.000000	0.000000	138.000000	57.000000	8.000000	22.000000
1.900000	58.980000	11.850000	110.000000	0.000000	138.000000	57.000000	0.000000	26.000000
1.910000	58.980000	12.070000	107.000000	0.000000	138.000000	57.000000	0.000000	22.000000
1.920000	59.040000	12.290000	107.000000	0.000000	138.000000	57.000000	6.000000	22.000000
1.930000	59.040000	12.480000	98.000000	0.000000	136.000000	56.000000	0.000000	19.000000
1.940000	58.920000	12.650000	105.000000	0.000000	136.000000	56.000000	-12.000000	17.000000
1.950000	58.830000	12.750000	110.000000	0.000000	138.000000	57.000000	-9.000000	10.000000
1.960000	58.720000	12.750000	108.000000	0.000000	138.000000	57.000000	-11.000000	0.000000
1.970000	58.600000	12.640000	112.000000	0.000000	138.000000	57.000000	-12.000000	-11.000000
1.980000	58.470000	12.480000	130.000000	0.000000	138.000000	57.000000	-13.000000	-16.000000
1.990000	58.340000	12.120000	141.000000	0.000000	138.000000	57.000000	-13.000000	-36.000000
2.000000	58.220000	11.640000	163.000000	0.000000	138.000000	57.000000	-12.000000	-48.000000
2.010000	58.110000	11.170000	177.000000	0.000000	138.000000	57.000000	-11.000000	-47.000000
2.020000	58.170000	10.810000	182.000000	0.000000	136.000000	56.000000	6.000000	-36.000000
2.030000	58.340000	10.520000	177.000000	0.000000	136.000000	56.000000	17.000000	-29.000000
2.040000	58.620000	10.350000	172.000000	0.000000	136.000000	56.000000	28.000000	-17.000000
2.050000	59.100000	10.350000	155.000000	0.000000	136.000000	56.000000	48.000000	0.000000
2.060000	59.710000	10.350000	106.000000	0.000000	136.000000	56.000000	61.000000	0.000000
2.070000	59.710000	10.350000	0.000000	1.000000	136.000000	56.000000	0.000000	0.000000
2.080000	60.770000	10.630000	0.000000	0.000000	138.000000	57.000000	106.000000	28.000000
2.090000	61.140000	10.810000	0.000000	0.000000	138.000000	57.000000	37.000000	18.000000
2.100000	61.250000	10.950000	0.000000	0.000000	138.000000	57.000000	11.000000	14.000000
2.110000	61.250000	11.080000	0.000000	0.000000	139.000000	57.000000	0.000000	13.000000
2.120000	61.250000	11.220000	0.000000	0.000000	140.000000	56.000000	0.000000	14.000000
2.130000	61.430000	11.360000	0.000000	0.000000	140.000000	56.000000	18.000000	14.000000
2.140000	61.650000	11.590000	0.000000	0.000000	141.000000	56.000000	22.000000	23.000000
2.150000	61.950000	11.860000	0.000000	0.000000	143.000000	55.000000	30.000000	27.000000
2.160000	62.370000	12.000000	0.000000	0.000000	142.000000	54.000000	42.000000	14.000000
2.170000	62.860000	12.180000	0.000000	0.000000	143.000000	53.000000	49.000000	18.000000
2.180000	63.370000	12.390000	0.000000	0.000000	145.000000	53.000000	51.000000	21.000000
2.190000	63.890000	12.550000	0.000000	0.000000	144.000000	51.000000	52.000000	16.000000
2.200000	64.420000	12.720000	0.000000	0.000000	145.000000	51.000000	53.000000	17.000000
2.210000	64.900000	12.890000	0.000000	0.000000	148.000000	50.000000	48.000000	17.000000
2.220000	65.230000	12.950000	0.000000	0.000000	148.000000	50.000000	33.000000	6.000000
2.230000	65.450000	12.950000	0.000000	0.000000	151.000000	49.000000	22.000000	0.000000
