t	x	y	pressure	penup	azimuth	inclination	v_x	v_y
0.000000	15.480000	55.560000	98.000000	1.000000	139.000000	56.000000	0.000000	0.000000
0.010000	15.480000	55.560000	170.000000	0.000000	139.000000	56.000000	0.000000	0.000000
0.020000	15.480000	55.560000	207.000000	0.000000	136.000000	56.000000	0.000000	0.000000
0.030000	15.480000	55.560000	256.000000	0.000000	136.000000	56.000000	0.000000	0.000000
0.040000	15.480000	55.560000	292.000000	0.000000	136.000000	56.000000	0.000000	0.000000
0.050000	15.300000	55.000000	329.000000	0.000000	135.000000	55.000000	-18.000000	-56.000000
0.060000	15.190000	54.260000	359.000000	0.000000	135.000000	55.000000	-11.000000	-74.000000
0.070000	15.030000	53.090000	379.000000	0.000000	135.000000	55.000000	-16.000000	-117.000000
0.080000	14.840000	51.630000	396.000000	0.000000	135.000000	55.000000	-19.000000	-146.000000
0.090000	14.620000	50.170000	412.000000	0.000000	135.000000	55.000000	-22.000000	-146.000000
0.100000	14.390000	48.600000	418.000000	0.000000	135.000000	55.000000	-23.000000	-157.000000
0.110000	14.110000	46.960000	440.000000	0.000000	134.000000	55.000000	-28.000000	-164.000000
0.120000	13.800000	45.610000	473.000000	0.000000	132.000000	55.000000	-31.000000	-135.000000
0.130000	13.440000	44.560000	501.000000	0.000000	132.000000	55.000000	-36.000000	-105.000000
0.140000	13.050000	43.710000	537.000000	0.000000	130.000000	55.000000	-39.000000	-85.000000
0.150000	12.640000	43.030000	548.000000	0.000000	129.000000	56.000000	-41.000000	-68.000000
0.160000	12.180000	42.540000	569.000000	0.000000	127.000000	55.000000	-46.000000	-49.000000
0.170000	11.730000	42.180000	584.000000	0.000000	126.000000	56.000000	-45.000000	-36.000000
0.180000	11.200000	42.040000	585.000000	0.000000	125.000000	55.000000	-53.000000	-14.000000
0.190000	10.620000	42.150000	628.000000	0.000000	125.000000	55.000000	-58.000000	11.000000
0.200000	10.290000	42.420000	639.000000	0.000000	125.000000	55.000000	-33.000000	27.000000
0.210000	10.220000	42.750000	645.000000	0.000000	125.000000	54.000000	-7.000000	33.000000
0.220000	10.330000	43.200000	640.000000	0.000000	125.000000	54.000000	11.000000	45.000000
0.230000	10.620000	43.730000	653.000000	0.000000	124.000000	54.000000	29.000000	53.000000
0.240000	11.190000	44.540000	685.000000	0.000000	124.000000	54.000000	57.000000	81.000000
0.250000	11.950000	45.590000	693.000000	0.000000	123.000000	53.000000	76.000000	105.000000
0.260000	12.850000	46.790000	691.000000	0.000000	122.000000	54.000000	90.000000	120.000000
0.270000	13.790000	48.130000	691.000000	0.000000	122.000000	54.000000	94.000000	134.000000
0.280000	14.790000	49.760000	702.000000	0.000000	122.000000	54.000000	100.000000	163.000000
0.290000	15.820000	51.590000	691.000000	0.000000	124.000000	54.000000	103.000000	183.000000
0.300000	16.780000	53.440000	694.000000	0.000000	124.000000	54.000000	96.000000	185.000000
0.310000	17.690000	55.090000	699.000000	0.000000	125.000000	54.000000	91.000000	165.000000
0.320000	18.350000	56.600000	700.000000	0.000000	126.000000	54.000000	66.000000	151.000000
0.330000	18.650000	57.040000	700.000000	0.000000	128.000000	54.000000	30.000000	44.000000
0.340000	18.710000	57.160000	697.000000	0.000000	130.000000	54.000000	6.000000	12.000000
0.350000	18.710000	57.070000	697.000000	0.000000	130.000000	54.000000	0.000000	-9.000000
0.360000	18.710000	56.930000	700.000000	0.000000	133.000000	54.000000	0.000000	-14.000000
0.370000	18.760000	56.590000	700.000000	0.000000	133.000000	54.000000	5.000000	-34.000000
0.380000	18.810000	56.130000	710.000000	0.000000	134.000000	55.000000	5.000000	-46.000000
0.390000	18.810000	55.590000	716.000000	0.000000	134.000000	55.000000	0.000000	-54.000000
0.400000	18.810000	55.100000	716.000000	0.000000	134.000000	55.000000	0.000000	-49.000000
0.410000	18.740000	54.390000	716.000000	0.000000	135.000000	54.000000	-7.000000	-71.000000
0.420000	18.520000	53.510000	719.000000	0.000000	135.000000	54.000000	-22.000000	-88.000000
0.430000	18.180000	52.350000	722.000000	0.000000	135.000000	54.000000	-34.000000	-116.000000
0.440000	17.710000	50.950000	724.000000	0.000000	135.000000	54.000000	-47.000000	-140.000000
0.450000	17.120000	49.400000	722.000000	0.000000	135.000000	54.000000	-59.000000	-155.000000
0.460000	16.460000	47.710000	727.000000	0.000000	134.000000	55.000000	-66.000000	-169.000000
0.470000	15.890000	46.170000	722.000000	0.000000	134.000000	55.000000	-57.000000	-154.000000
0.480000	15.330000	44.950000	725.000000	0.000000	134.000000	56.000000	-56.000000	-122.000000
0.490000	14.890000	43.900000	731.000000	0.000000	134.000000	56.000000	-44.000000	-105.000000
0.500000	14.530000	43.260000	730.000000	0.000000	132.000000	57.000000	-36.000000	-64.000000
0.510000	14.260000	43.010000	750.000000	0.000000	131.000000	57.000000	-27.000000	-25.000000
0.520000	14.000000	43.010000	758.000000	0.000000	130.000000	58.000000	-26.000000	0.000000
0.530000	13.670000	43.290000	731.000000	0.000000	128.000000	58.000000	-33.000000	28.000000
0.540000	13.290000	43.980000	728.000000	0.000000	128.000000	58.000000	-38.000000	69.000000
0.550000	12.960000	44.940000	713.000000	0.000000	128.000000	58.000000	-33.000000	96.000000
0.560000	12.850000	46.040000	693.000000	0.000000	127.000000	57.000000	-11.000000	110.000000
0.570000	12.850000	47.140000	664.000000	0.000000	126.000000	57.000000	0.000000	110.000000
0.580000	13.210000	48.250000	643.000000	0.000000	126.000000	57.000000	36.000000	111.000000
0.590000	13.620000	48.980000	625.000000	0.000000	125.000000	56.000000	41.000000	73.000000
0.600000	14.100000	49.420000	617.000000	0.000000	126.000000	56.000000	48.000000	44.000000
0.610000	14.520000	49.680000	606.000000	0.000000	125.000000	55.000000	42.000000	26.000000
0.620000	14.980000	49.940000	609.000000	0.000000	127.000000	55.000000	46.000000	26.000000
0.630000	15.500000	50.050000	609.000000	0.000000	127.000000	55.000000	52.000000	11.000000
0.640000	15.870000	50.050000	611.000000	0.000000	129.000000	55.000000	37.000000	0.000000
0.650000	16.150000	50.050000	605.000000	0.000000	131.000000	55.000000	28.000000	0.000000
0.660000	16.150000	50.050000	611.000000	0.000000	131.000000	55.000000	0.000000	0.000000
0.670000	16.150000	50.050000	614.000000	0.000000	132.000000	55.000000	0.000000	0.000000
0.680000	16.070000	50.050000	611.000000	0.000000	134.000000	55.000000	-8.000000	0.000000
0.690000	15.820000	50.050000	609.000000	0.000000	134.000000	55.000000	-25.000000	0.000000
0.700000	15.460000	49.940000	616.000000	0.000000	134.000000	55.000000	-36.000000	-11.000000
0.710000	15.070000	49.870000	617.000000	0.000000	134.000000	55.000000	-39.000000	-7.000000
0.720000	14.690000	49.820000	611.000000	0.000000	134.000000	55.000000	-38.000000	-5.000000
0.730000	14.360000	49.700000	617.000000	0.000000	134.000000	55.000000	-33.000000	-12.000000
0.740000	14.120000	49.600000	620.000000	0.000000	134.000000	55.000000	-24.000000	-10.000000
0.750000	14.030000	49.520000	619.000000	0.000000	134.000000	55.000000	-9.000000	-8.000000
0.760000	14.030000	49.460000	624.000000	0.000000	134.000000	55.000000	0.000000	-6.000000
0.770000	14.250000	49.360000	634.000000	0.000000	134.000000	55.000000	22.000000	-10.000000
0.780000	14.490000	49.220000	639.000000	0.000000	134.000000	55.000000	24.000000	-14.000000
0.790000	15.040000	49.130000	638.000000	0.000000	134.000000	55.000000	55.000000	-9.000000
0.800000	15.790000	49.130000	636.000000	0.000000	134.000000	55.000000	75.000000	0.000000
0.810000	16.720000	49.300000	617.000000	0.000000	134.000000	55.000000	93.000000	17.000000
0.820000	17.650000	49.710000	633.000000	0.000000	133.000000	54.000000	93.000000	41.000000
0.830000	18.590000	50.250000	620.000000	0.000000	133.000000	54.000000	94.000000	54.000000
0.840000	19.700000	51.040000	620.000000	0.000000	133.000000	54.000000	111.000000	79.000000
0.850000	20.920000	52.070000	633.000000	0.000000	133.000000	54.000000	122.000000	103.000000
0.860000	21.990000	53.250000	628.000000	0.000000	133.000000	54.000000	107.000000	118.000000
0.870000	22.760000	54.690000	630.000000	0.000000	133.000000	54.000000	77.000000	144.000000
0.880000	23.320000	56.090000	636.000000	0.000000	134.000000	55.000000	56.000000	140.000000
0.890000	23.640000	57.400000	637.000000	0.000000	134.000000	55.000000	32.000000	131.000000
0.900000	23.760000	58.130000	647.000000	0.000000	136.000000	55.000000	12.000000	73.000000
0.910000	23.760000	58.480000	636.000000	0.000000	137.000000	54.000000	0.000000	35.000000
0.920000	23.760000	58.410000	639.000000	0.000000	139.000000	55.000000	0.000000	-7.000000
0.930000	23.590000	58.060000	642.000000	0.000000	140.000000	54.000000	-17.000000	-35.000000
0.940000	23.400000	57.520000	647.000000	0.000000	141.000000	55.000000	-19.000000	-54.000000
0.950000	22.830000	56.430000	643.000000	0.000000	141.000000	55.000000	-57.000000	-109.000000
0.960000	22.100000	54.900000	643.000000	0.000000	142.000000	54.000000	-73.000000	-153.000000
0.970000	21.260000	53.080000	650.000000	0.000000	141.000000	55.000000	-84.000000	-182.000000
0.980000	20.340000	51.050000	661.000000	0.000000	141.000000	55.000000	-92.000000	-203.000000
0.990000	19.460000	48.950000	664.000000	0.000000	139.000000	55.000000	-88.000000	-210.000000
1.000000	18.640000	46.810000	671.000000	0.000000	138.000000	55.000000	-82.000000	-214.000000
1.010000	18.210000	45.430000	670.000000	0.000000	136.000000	56.000000	-43.000000	-138.000000
1.020000	18.050000	44.750000	665.000000	0.000000	134.000000	56.000000	-16.000000	-68.000000
1.030000	18.100000	44.540000	662.000000	0.000000	132.000000	57.000000	5.000000	-21.000000
1.040000	18.170000	44.540000	667.000000	0.000000	131.000000	57.000000	7.000000	0.000000
1.050000	18.310000	44.780000	684.000000	0.000000	130.000000	58.000000	14.000000	24.000000
1.060000	18.800000	45.250000	693.000000	0.000000	127.000000	57.000000	49.000000	47.000000
1.070000	19.510000	46.400000	687.000000	0.000000	126.000000	58.000000	71.000000	115.000000
1.080000	20.490000	47.990000	678.000000	0.000000	126.000000	58.000000	98.000000	159.000000
1.090000	21.370000	49.870000	671.000000	0.000000	126.000000	58.000000	88.000000	188.000000
1.100000	22.180000	50.970000	662.000000	0.000000	127.000000	57.000000	81.000000	110.000000
1.110000	22.470000	51.370000	616.000000	0.000000	128.000000	57.000000	29.000000	40.000000
1.120000	22.550000	51.300000	595.000000	0.000000	128.000000	57.000000	8.000000	-7.000000
1.130000	22.500000	50.960000	594.000000	0.000000	131.000000	57.000000	-5.000000	-34.000000
1.140000	22.270000	50.060000	613.000000	0.000000	132.000000	57.000000	-23.000000	-90.000000
1.150000	21.850000	48.780000	638.000000	0.000000	132.000000	57.000000	-42.000000	-128.000000
1.160000	21.300000	47.340000	665.000000	0.000000	132.000000	57.000000	-55.000000	-144.000000
1.170000	20.990000	46.310000	669.000000	0.000000	132.000000	57.000000	-31.000000	-103.000000
1.180000	20.730000	45.550000	676.000000	0.000000	131.000000	57.000000	-26.000000	-76.000000
1.190000	20.670000	45.120000	688.000000	0.000000	131.000000	57.000000	-6.000000	-43.000000
1.200000	20.730000	44.960000	693.000000	0.000000	130.000000	58.000000	6.000000	-16.000000
1.210000	20.840000	44.960000	696.000000	0.000000	128.000000	58.000000	11.000000	0.000000
1.220000	20.980000	45.150000	691.000000	0.000000	127.000000	59.000000	14.000000	19.000000
1.230000	21.380000	45.730000	673.000000	0.000000	126.000000	60.000000	40.000000	58.000000
1.240000	21.940000	46.580000	664.000000	0.000000	126.000000	60.000000	56.000000	85.000000
1.250000	22.500000	47.270000	652.000000	0.000000	126.000000	60.000000	56.000000	69.000000
1.260000	22.950000	47.910000	636.000000	0.000000	126.000000	60.000000	45.000000	64.000000
1.270000	23.330000	48.280000	613.000000	0.000000	128.000000	59.000000	38.000000	37.000000
1.280000	23.460000	48.490000	605.000000	0.000000	128.000000	59.000000	13.000000	21.000000
1.290000	23.460000	48.490000	605.000000	0.000000	129.000000	59.000000	0.000000	0.000000
1.300000	23.460000	48.260000	614.000000	0.000000	129.000000	59.000000	0.000000	-23.000000
1.310000	23.390000	47.930000	610.000000	0.000000	131.000000	58.000000	-7.000000	-33.000000
1.320000	23.280000	47.610000	619.000000	0.000000	131.000000	58.000000	-11.000000	-32.000000
1.330000	23.150000	47.280000	641.000000	0.000000	131.000000	58.000000	-13.000000	-33.000000
1.340000	23.060000	47.070000	645.000000	0.000000	131.000000	58.000000	-9.000000	-21.000000
1.350000	23.010000	46.950000	647.000000	0.000000	131.000000	58.000000	-5.000000	-12.000000
1.360000	23.010000	46.760000	644.000000	0.000000	132.000000	59.000000	0.000000	-19.000000
1.370000	23.070000	46.620000	634.000000	0.000000	131.000000	60.000000	6.000000	-14.000000
1.380000	23.140000	46.620000	613.000000	0.000000	131.000000	60.000000	7.000000	0.000000
1.390000	23.230000	46.620000	616.000000	0.000000	131.000000	60.000000	9.000000	0.000000
1.400000	23.400000	46.780000	609.000000	0.000000	131.000000	60.000000	17.000000	16.000000
1.410000	23.640000	47.110000	602.000000	0.000000	131.000000	60.000000	24.000000	33.000000
1.420000	23.870000	47.530000	602.000000	0.000000	131.000000	60.000000	23.000000	42.000000
1.430000	24.070000	48.040000	606.000000	0.000000	131.000000	60.000000	20.000000	51.000000
1.440000	24.160000	48.250000	616.000000	0.000000	131.000000	60.000000	9.000000	21.000000
1.450000	24.160000	48.250000	614.000000	0.000000	129.000000	59.000000	0.000000	0.000000
1.460000	24.160000	48.250000	611.000000	0.000000	129.000000	59.000000	0.000000	0.000000
1.470000	24.160000	48.170000	603.000000	0.000000	129.000000	59.000000	0.000000	-8.000000
1.480000	24.160000	47.940000	594.000000	0.000000	131.000000	58.000000	0.000000	-23.000000
1.490000	24.070000	47.610000	591.000000	0.000000	131.000000	58.000000	-9.000000	-33.000000
1.500000	23.940000	47.210000	594.000000	0.000000	132.000000	59.000000	-13.000000	-40.000000
1.510000	23.840000	46.860000	603.000000	0.000000	132.000000	59.000000	-10.000000	-35.000000
1.520000	23.760000	46.680000	611.000000	0.000000	132.000000	59.000000	-8.000000	-18.000000
1.530000	23.760000	46.680000	613.000000	0.000000	131.000000	60.000000	0.000000	0.000000
1.540000	23.760000	46.680000	622.000000	0.000000	131.000000	60.000000	0.000000	0.000000
1.550000	23.760000	46.680000	620.000000	0.000000	131.000000	60.000000	0.000000	0.000000
1.560000	23.760000	46.680000	606.000000	0.000000	131.000000	60.000000	0.000000	0.000000
1.570000	23.760000	46.680000	561.000000	0.000000	129.000000	60.000000	0.000000	0.000000
1.580000	23.760000	46.680000	387.000000	0.000000	129.000000	60.000000	0.000000	0.000000
1.590000	24.050000	46.800000	20.000000	0.000000	129.000000	60.000000	29.000000	12.000000
1.600000	24.050000	46.800000	0.000000	1.000000	129.000000	60.000000	0.000000	0.000000
1.610000	24.140000	46.800000	0.000000	0.000000	129.000000	60.000000	9.000000	0.000000
1.620000	24.140000	47.020000	0.000000	0.000000	129.000000	60.000000	0.000000	22.000000
1.630000	24.390000	47.330000	0.000000	0.000000	129.000000	60.000000	25.000000	31.000000
1.640000	24.800000	47.890000	0.000000	0.000000	129.000000	60.000000	41.000000	56.000000
1.650000	25.340000	48.430000	0.000000	0.000000	129.000000	60.000000	54.000000	54.000000
1.660000	26.040000	48.970000	0.000000	0.000000	131.000000	60.000000	70.000000	54.000000
1.670000	26.780000	49.240000	0.000000	0.000000	131.000000	60.000000	74.000000	27.000000
1.680000	27.270000	49.340000	0.000000	0.000000	131.000000	60.000000	49.000000	10.000000
1.690000	27.570000	49.340000	0.000000	0.000000	131.000000	60.000000	30.000000	0.000000
1.700000	27.820000	49.220000	0.000000	0.000000	129.000000	59.000000	25.000000	-12.000000
1.710000	28.000000	49.080000	0.000000	0.000000	129.000000	59.000000	18.000000	-14.000000
1.720000	28.130000	48.900000	0.000000	0.000000	129.000000	59.000000	13.000000	-18.000000
1.730000	28.040000	48.760000	0.000000	0.000000	129.000000	59.000000	-9.000000	-14.000000
1.740000	28.040000	48.760000	302.000000	1.000000	131.000000	58.000000	0.000000	0.000000
1.750000	27.710000	48.710000	304.000000	0.000000	131.000000	58.000000	-33.000000	-5.000000
1.760000	27.710000	48.710000	377.000000	0.000000	131.000000	58.000000	0.000000	0.000000
1.770000	27.620000	48.710000	465.000000	0.000000	132.000000	58.000000	-9.000000	0.000000
1.780000	27.570000	48.660000	551.000000	0.000000	132.000000	58.000000	-5.000000	-5.000000
1.790000	27.490000	48.600000	606.000000	0.000000	132.000000	58.000000	-8.000000	-6.000000
1.800000	27.490000	48.600000	634.000000	0.000000	132.000000	58.000000	0.000000	0.000000
1.810000	27.580000	48.680000	646.000000	0.000000	132.000000	58.000000	9.000000	8.000000
1.820000	27.930000	48.970000	652.000000	0.000000	132.000000	57.000000	35.000000	29.000000
1.830000	28.470000	49.600000	637.000000	0.000000	132.000000	57.000000	54.000000	63.000000
1.840000	29.250000	50.460000	646.000000	0.000000	132.000000	57.000000	78.000000	86.000000
1.850000	30.230000	51.540000	643.000000	0.000000	134.000000	57.000000	98.000000	108.000000
1.860000	31.330000	52.950000	644.000000	0.000000	135.000000	57.000000	110.000000	141.000000
1.870000	32.460000	54.590000	647.000000	0.000000	135.000000	57.000000	113.000000	164.000000
1.880000	33.140000	55.920000	637.000000	0.000000	136.000000	57.000000	68.000000	133.000000
1.890000	33.520000	56.420000	639.000000	0.000000	138.000000	57.000000	38.000000	50.000000
1.900000	33.460000	56.360000	617.000000	0.000000	139.000000	57.000000	-6.000000	-6.000000
1.910000	33.400000	56.170000	613.000000	0.000000	139.000000	57.000000	-6.000000	-19.000000
1.920000	33.080000	55.530000	639.000000	0.000000	140.000000	58.000000	-32.000000	-64.000000
1.930000	32.580000	54.600000	664.000000	0.000000	140.000000	58.000000	-50.000000	-93.000000
1.940000	31.910000	53.190000	702.000000	0.000000	140.000000	58.000000	-67.000000	-141.000000
1.950000	31.070000	51.720000	717.000000	0.000000	140.000000	58.000000	-84.000000	-147.000000
1.960000	30.110000	50.320000	749.000000	0.000000	140.000000	58.000000	-96.000000	-140.000000
1.970000	29.310000	48.980000	763.000000	0.000000	140.000000	58.000000	-80.000000	-134.000000
1.980000	28.820000	47.870000	765.000000	0.000000	140.000000	58.000000	-49.000000	-111.000000
1.990000	28.530000	47.310000	754.000000	0.000000	138.000000	58.000000	-29.000000	-56.000000
2.000000	28.530000	47.110000	727.000000	0.000000	138.000000	58.000000	0.000000	-20.000000
2.010000	28.600000	47.020000	730.000000	0.000000	136.000000	58.000000	7.000000	-9.000000
2.020000	28.770000	47.220000	700.000000	0.000000	134.000000	58.000000	17.000000	20.000000
2.030000	29.240000	47.610000	690.000000	0.000000	134.000000	58.000000	47.000000	39.000000
2.040000	29.900000	48.240000	675.000000	0.000000	132.000000	59.000000	66.000000	63.000000
2.050000	30.440000	48.700000	673.000000	0.000000	132.000000	59.000000	54.000000	46.000000
2.060000	30.810000	49.040000	684.000000	0.000000	132.000000	59.000000	37.000000	34.000000
2.070000	31.070000	49.180000	688.000000	0.000000	132.000000	59.000000	26.000000	14.000000
2.080000	31.330000	49.360000	688.000000	0.000000	134.000000	58.000000	26.000000	18.000000
2.090000	31.640000	49.580000	690.000000	0.000000	134.000000	58.000000	31.000000	22.000000
2.100000	31.880000	49.760000	687.000000	0.000000	136.000000	58.000000	24.000000	18.000000
2.110000	32.070000	49.900000	681.000000	0.000000	136.000000	58.000000	19.000000	14.000000
2.120000	32.200000	49.900000	682.000000	0.000000	136.000000	58.000000	13.000000	0.000000
2.130000	32.250000	49.900000	682.000000	0.000000	139.000000	58.000000	5.000000	0.000000
2.140000	32.250000	49.830000	682.000000	0.000000	139.000000	58.000000	0.000000	-7.000000
2.150000	32.250000	49.700000	685.000000	0.000000	139.000000	58.000000	0.000000	-13.000000
2.160000	32.160000	49.490000	687.000000	0.000000	141.000000	59.000000	-9.000000	-21.000000
2.170000	32.100000	49.280000	687.000000	0.000000	141.000000	59.000000	-6.000000	-21.000000
2.180000	32.100000	49.140000	687.000000	0.000000	141.000000	59.000000	0.000000	-14.000000
2.190000	32.150000	49.050000	687.000000	0.000000	141.000000	59.000000	5.000000	-9.000000
