t	x	y	pressure	penup	azimuth	inclination	v_x	v_y
0.000000	88.940000	15.790000	24.000000	1.000000	159.000000	44.000000	0.000000	0.000000
0.010000	89.330000	16.060000	217.000000	0.000000	159.000000	45.000000	39.000000	27.000000
0.020000	89.330000	15.930000	262.000000	0.000000	158.000000	46.000000	0.000000	-13.000000
0.030000	89.240000	15.600000	346.000000	0.000000	156.000000	46.000000	-9.000000	-33.000000
0.040000	89.110000	14.750000	414.000000	0.000000	155.000000	47.000000	-13.000000	-85.000000
0.050000	88.820000	13.550000	491.000000	0.000000	154.000000	49.000000	-29.000000	-120.000000
0.060000	88.430000	12.000000	543.000000	0.000000	152.000000	49.000000	-39.000000	-155.000000
0.070000	88.040000	10.600000	567.000000	0.000000	150.000000	51.000000	-39.000000	-140.000000
0.080000	87.580000	9.290000	599.000000	0.000000	150.000000	52.000000	-46.000000	-131.000000
0.090000	87.070000	8.030000	613.000000	0.000000	149.000000	53.000000	-51.000000	-126.000000
0.100000	86.660000	7.080000	656.000000	0.000000	151.000000	53.000000	-41.000000	-95.000000
0.110000	86.440000	6.340000	670.000000	0.000000	151.000000	54.000000	-22.000000	-74.000000
0.120000	86.350000	5.990000	731.000000	0.000000	151.000000	54.000000	-9.000000	-35.000000
0.130000	86.350000	5.940000	760.000000	0.000000	152.000000	56.000000	0.000000	-5.000000
0.140000	86.350000	6.080000	771.000000	0.000000	152.000000	56.000000	0.000000	14.000000
0.150000	86.480000	6.590000	757.000000	0.000000	152.000000	56.000000	13.000000	51.000000
0.160000	86.690000	7.790000	748.000000	0.000000	152.000000	56.000000	21.000000	120.000000
0.170000	87.190000	9.440000	730.000000	0.000000	152.000000	56.000000	50.000000	165.000000
0.180000	87.970000	11.670000	731.000000	0.000000	150.000000	55.000000	78.000000	223.000000
0.190000	88.940000	13.730000	725.000000	0.000000	150.000000	55.000000	97.000000	206.000000
0.200000	89.790000	15.690000	730.000000	0.000000	149.000000	55.000000	85.000000	196.000000
0.210000	90.250000	16.360000	702.000000	0.000000	147.000000	55.000000	46.000000	67.000000
0.220000	90.440000	16.520000	650.000000	0.000000	147.000000	53.000000	19.000000	16.000000
0.230000	90.510000	16.350000	622.000000	0.000000	147.000000	52.000000	7.000000	-17.000000
0.240000	90.510000	15.870000	628.000000	0.000000	147.000000	52.000000	0.000000	-48.000000
0.250000	90.360000	14.980000	633.000000	0.000000	147.000000	51.000000	-15.000000	-89.000000
0.260000	90.090000	13.830000	645.000000	0.000000	147.000000	51.000000	-27.000000	-115.000000
0.270000	89.780000	12.440000	650.000000	0.000000	147.000000	51.000000	-31.000000	-139.000000
0.280000	89.430000	11.030000	666.000000	0.000000	146.000000	52.000000	-35.000000	-141.000000
0.290000	89.040000	9.600000	678.000000	0.000000	146.000000	52.000000	-39.000000	-143.000000
0.300000	88.620000	8.390000	694.000000	0.000000	147.000000	52.000000	-42.000000	-121.000000
0.310000	88.190000	7.400000	702.000000	0.000000	147.000000	53.000000	-43.000000	-99.000000
0.320000	87.840000	6.560000	714.000000	0.000000	148.000000	54.000000	-35.000000	-84.000000
0.330000	87.530000	6.020000	725.000000	0.000000	150.000000	54.000000	-31.000000	-54.000000
0.340000	87.380000	5.960000	725.000000	0.000000	151.000000	54.000000	-15.000000	-6.000000
0.350000	87.310000	6.210000	722.000000	0.000000	153.000000	55.000000	-7.000000	25.000000
0.360000	87.090000	6.780000	714.000000	0.000000	154.000000	55.000000	-22.000000	57.000000
0.370000	86.880000	7.540000	710.000000	0.000000	154.000000	55.000000	-21.000000	76.000000
0.380000	86.880000	8.420000	708.000000	0.000000	153.000000	56.000000	0.000000	88.000000
0.390000	87.110000	9.110000	690.000000	0.000000	152.000000	56.000000	23.000000	69.000000
0.400000	87.340000	9.590000	690.000000	0.000000	152.000000	56.000000	23.000000	48.000000
0.410000	87.600000	9.940000	678.000000	0.000000	150.000000	55.000000	26.000000	35.000000
0.420000	88.010000	10.330000	652.000000	0.000000	149.000000	56.000000	41.000000	39.000000
0.430000	88.510000	10.820000	638.000000	0.000000	148.000000	56.000000	50.000000	49.000000
0.440000	89.230000	11.390000	610.000000	0.000000	148.000000	56.000000	72.000000	57.000000
0.450000	89.940000	12.400000	613.000000	0.000000	148.000000	56.000000	71.000000	101.000000
0.460000	90.630000	13.460000	616.000000	0.000000	146.000000	55.000000	69.000000	106.000000
0.470000	91.180000	14.550000	610.000000	0.000000	146.000000	55.000000	55.000000	109.000000
0.480000	91.660000	15.610000	610.000000	0.000000	146.000000	55.000000	48.000000	106.000000
0.490000	91.970000	16.310000	613.000000	0.000000	146.000000	54.000000	31.000000	70.000000
0.500000	92.100000	16.780000	611.000000	0.000000	147.000000	53.000000	13.000000	47.000000
0.510000	92.100000	16.780000	610.000000	0.000000	148.000000	53.000000	0.000000	0.000000
0.520000	92.100000	16.780000	617.000000	0.000000	150.000000	51.000000	0.000000	0.000000
0.530000	92.100000	16.360000	639.000000	0.000000	150.000000	50.000000	0.000000	-42.000000
0.540000	91.940000	15.780000	670.000000	0.000000	151.000000	50.000000	-16.000000	-58.000000
0.550000	91.720000	14.780000	691.000000	0.000000	152.000000	49.000000	-22.000000	-100.000000
0.560000	91.320000	13.350000	705.000000	0.000000	151.000000	50.000000	-40.000000	-143.000000
0.570000	90.810000	11.630000	721.000000	0.000000	151.000000	50.000000	-51.000000	-172.000000
0.580000	90.270000	10.220000	721.000000	0.000000	150.000000	51.000000	-54.000000	-141.000000
0.590000	89.780000	9.080000	754.000000	0.000000	149.000000	52.000000	-49.000000	-114.000000
0.600000	89.400000	8.130000	759.000000	0.000000	148.000000	53.000000	-38.000000	-95.000000
0.610000	89.200000	7.550000	777.000000	0.000000	147.000000	53.000000	-20.000000	-58.000000
0.620000	89.100000	7.230000	794.000000	0.000000	147.000000	53.000000	-10.000000	-32.000000
0.630000	89.100000	7.090000	787.000000	0.000000	148.000000	54.000000	0.000000	-14.000000
0.640000	89.100000	7.090000	783.000000	0.000000	150.000000	54.000000	0.000000	0.000000
0.650000	89.160000	7.400000	784.000000	0.000000	150.000000	54.000000	6.000000	31.000000
0.660000	89.520000	7.840000	760.000000	0.000000	150.000000	54.000000	36.000000	44.000000
0.670000	90.100000	8.700000	749.000000	0.000000	150.000000	54.000000	58.000000	86.000000
0.680000	90.690000	9.560000	742.000000	0.000000	149.000000	55.000000	59.000000	86.000000
0.690000	91.170000	10.160000	733.000000	0.000000	149.000000	55.000000	48.000000	60.000000
0.700000	91.570000	10.600000	728.000000	0.000000	149.000000	55.000000	40.000000	44.000000
0.710000	91.680000	10.650000	716.000000	0.000000	147.000000	55.000000	11.000000	5.000000
0.720000	91.680000	10.530000	710.000000	0.000000	146.000000	54.000000	0.000000	-12.000000
0.730000	91.680000	10.310000	717.000000	0.000000	146.000000	54.000000	0.000000	-22.000000
0.740000	91.550000	9.810000	727.000000	0.000000	146.000000	54.000000	-13.000000	-50.000000
0.750000	91.340000	9.190000	720.000000	0.000000	146.000000	54.000000	-21.000000	-62.000000
0.760000	91.100000	8.500000	731.000000	0.000000	147.000000	55.000000	-24.000000	-69.000000
0.770000	90.990000	7.990000	740.000000	0.000000	147.000000	55.000000	-11.000000	-51.000000
0.780000	90.930000	7.640000	749.000000	0.000000	147.000000	55.000000	-6.000000	-35.000000
0.790000	90.930000	7.400000	750.000000	0.000000	150.000000	54.000000	0.000000	-24.000000
0.800000	90.930000	7.400000	770.000000	0.000000	151.000000	54.000000	0.000000	0.000000
0.810000	90.930000	7.480000	768.000000	0.000000	153.000000	55.000000	0.000000	8.000000
0.820000	91.020000	7.650000	760.000000	0.000000	153.000000	54.000000	9.000000	17.000000
0.830000	91.310000	8.260000	762.000000	0.000000	153.000000	54.000000	29.000000	61.000000
0.840000	91.750000	8.930000	751.000000	0.000000	153.000000	54.000000	44.000000	67.000000
0.850000	92.330000	9.650000	757.000000	0.000000	153.000000	55.000000	58.000000	72.000000
0.860000	92.720000	10.020000	755.000000	0.000000	153.000000	55.000000	39.000000	37.000000
0.870000	92.990000	10.160000	752.000000	0.000000	151.000000	54.000000	27.000000	14.000000
0.880000	93.090000	10.160000	752.000000	0.000000	149.000000	55.000000	10.000000	0.000000
0.890000	93.090000	10.050000	751.000000	0.000000	149.000000	55.000000	0.000000	-11.000000
0.900000	93.090000	9.890000	776.000000	0.000000	149.000000	55.000000	0.000000	-16.000000
0.910000	93.090000	9.640000	796.000000	0.000000	149.000000	55.000000	0.000000	-25.000000
0.920000	92.980000	9.330000	799.000000	0.000000	149.000000	55.000000	-11.000000	-31.000000
0.930000	92.860000	9.010000	817.000000	0.000000	150.000000	55.000000	-12.000000	-32.000000
0.940000	92.860000	8.790000	817.000000	0.000000	150.000000	55.000000	0.000000	-22.000000
0.950000	92.860000	8.650000	817.000000	0.000000	150.000000	55.000000	0.000000	-14.000000
0.960000	92.860000	8.500000	806.000000	0.000000	151.000000	54.000000	0.000000	-15.000000
0.970000	92.860000	8.400000	794.000000	0.000000	151.000000	54.000000	0.000000	-10.000000
0.980000	92.950000	8.340000	796.000000	0.000000	151.000000	54.000000	9.000000	-6.000000
0.990000	93.040000	8.340000	794.000000	0.000000	152.000000	54.000000	9.000000	0.000000
1.000000	93.170000	8.450000	780.000000	0.000000	152.000000	54.000000	13.000000	11.000000
1.010000	93.360000	8.640000	784.000000	0.000000	152.000000	54.000000	19.000000	19.000000
1.020000	93.550000	9.090000	780.000000	0.000000	152.000000	54.000000	19.000000	45.000000
1.030000	93.910000	9.500000	785.000000	0.000000	152.000000	54.000000	36.000000	41.000000
1.040000	94.190000	9.890000	787.000000	0.000000	153.000000	55.000000	28.000000	39.000000
1.050000	94.420000	10.020000	780.000000	0.000000	153.000000	55.000000	23.000000	13.000000
1.060000	94.420000	10.020000	767.000000	0.000000	153.000000	55.000000	0.000000	0.000000
1.070000	94.470000	9.970000	762.000000	0.000000	154.000000	55.000000	5.000000	-5.000000
1.080000	94.470000	9.820000	767.000000	0.000000	154.000000	55.000000	0.000000	-15.000000
1.090000	94.470000	9.540000	771.000000	0.000000	155.000000	55.000000	0.000000	-28.000000
1.100000	94.410000	9.180000	782.000000	0.000000	155.000000	55.000000	-6.000000	-36.000000
1.110000	94.320000	8.890000	785.000000	0.000000	155.000000	55.000000	-9.000000	-29.000000
1.120000	94.210000	8.650000	796.000000	0.000000	155.000000	55.000000	-11.000000	-24.000000
1.130000	94.140000	8.440000	797.000000	0.000000	155.000000	55.000000	-7.000000	-21.000000
1.140000	94.140000	8.330000	785.000000	0.000000	155.000000	55.000000	0.000000	-11.000000
1.150000	94.140000	8.330000	787.000000	0.000000	155.000000	55.000000	0.000000	0.000000
1.160000	94.140000	8.330000	785.000000	0.000000	156.000000	55.000000	0.000000	0.000000
1.170000	94.200000	8.390000	783.000000	0.000000	156.000000	55.000000	6.000000	6.000000
1.180000	94.290000	8.580000	796.000000	0.000000	156.000000	55.000000	9.000000	19.000000
1.190000	94.550000	8.870000	785.000000	0.000000	156.000000	55.000000	26.000000	29.000000
1.200000	94.920000	9.220000	782.000000	0.000000	156.000000	55.000000	37.000000	35.000000
1.210000	95.210000	9.510000	777.000000	0.000000	156.000000	55.000000	29.000000	29.000000
1.220000	95.350000	9.620000	771.000000	0.000000	156.000000	55.000000	14.000000	11.000000
1.230000	95.350000	9.620000	754.000000	0.000000	157.000000	56.000000	0.000000	0.000000
1.240000	95.350000	9.620000	743.000000	0.000000	157.000000	56.000000	0.000000	0.000000
1.250000	95.400000	9.620000	725.000000	0.000000	157.000000	56.000000	5.000000	0.000000
1.260000	95.400000	9.620000	722.000000	0.000000	158.000000	56.000000	0.000000	0.000000
1.270000	95.400000	9.530000	730.000000	0.000000	158.000000	56.000000	0.000000	-9.000000
1.280000	95.400000	9.360000	740.000000	0.000000	158.000000	56.000000	0.000000	-17.000000
1.290000	95.300000	9.110000	758.000000	0.000000	158.000000	56.000000	-10.000000	-25.000000
1.300000	95.190000	8.790000	753.000000	0.000000	158.000000	56.000000	-11.000000	-32.000000
1.310000	95.040000	8.510000	756.000000	0.000000	159.000000	55.000000	-15.000000	-28.000000
1.320000	95.040000	8.260000	749.000000	0.000000	159.000000	55.000000	0.000000	-25.000000
1.330000	95.140000	8.200000	722.000000	0.000000	159.000000	55.000000	10.000000	-6.000000
1.340000	95.290000	8.200000	725.000000	0.000000	159.000000	55.000000	15.000000	0.000000
1.350000	95.460000	8.350000	708.000000	0.000000	158.000000	55.000000	17.000000	15.000000
1.360000	95.840000	8.650000	697.000000	0.000000	158.000000	54.000000	38.000000	30.000000
1.370000	96.230000	8.950000	697.000000	0.000000	158.000000	54.000000	39.000000	30.000000
1.380000	96.470000	9.240000	696.000000	0.000000	158.000000	54.000000	24.000000	29.000000
1.390000	96.620000	9.320000	693.000000	0.000000	160.000000	54.000000	15.000000	8.000000
1.400000	96.620000	9.380000	687.000000	0.000000	159.000000	55.000000	0.000000	6.000000
1.410000	96.670000	9.380000	652.000000	0.000000	159.000000	55.000000	5.000000	0.000000
1.420000	96.670000	9.380000	526.000000	0.000000	160.000000	55.000000	0.000000	0.000000
1.430000	96.670000	9.380000	61.000000	0.000000	160.000000	55.000000	0.000000	0.000000
1.440000	96.670000	9.380000	0.000000	1.000000	160.000000	55.000000	0.000000	0.000000
1.450000	96.740000	9.520000	0.000000	0.000000	160.000000	55.000000	7.000000	14.000000
1.460000	97.140000	9.680000	0.000000	0.000000	160.000000	55.000000	40.000000	16.000000
1.470000	97.750000	9.680000	0.000000	0.000000	160.000000	55.000000	61.000000	0.000000
1.480000	98.440000	9.680000	0.000000	0.000000	161.000000	55.000000	69.000000	0.000000
1.490000	99.060000	9.680000	0.000000	0.000000	163.000000	55.000000	62.000000	0.000000
1.500000	99.220000	9.440000	0.000000	0.000000	163.000000	55.000000	16.000000	-24.000000
1.510000	99.090000	9.120000	0.000000	0.000000	163.000000	54.000000	-13.000000	-32.000000
1.520000	98.850000	8.720000	0.000000	0.000000	164.000000	54.000000	-24.000000	-40.000000
1.530000	98.850000	8.720000	399.000000	1.000000	164.000000	54.000000	0.000000	0.000000
1.540000	98.400000	8.530000	439.000000	0.000000	164.000000	54.000000	-45.000000	-19.000000
1.550000	98.400000	8.530000	468.000000	0.000000	164.000000	54.000000	0.000000	0.000000
1.560000	98.400000	8.810000	453.000000	0.000000	164.000000	54.000000	0.000000	28.000000
1.570000	98.690000	9.170000	445.000000	0.000000	164.000000	54.000000	29.000000	36.000000
1.580000	99.190000	9.820000	448.000000	0.000000	164.000000	55.000000	50.000000	65.000000
1.590000	100.040000	10.920000	440.000000	0.000000	164.000000	55.000000	85.000000	110.000000
1.600000	100.900000	12.310000	512.000000	0.000000	163.000000	55.000000	86.000000	139.000000
1.610000	102.160000	14.280000	602.000000	0.000000	161.000000	55.000000	126.000000	197.000000
1.620000	103.670000	16.020000	670.000000	0.000000	161.000000	55.000000	151.000000	174.000000
1.630000	104.920000	17.600000	702.000000	0.000000	161.000000	55.000000	125.000000	158.000000
1.640000	105.480000	18.070000	699.000000	0.000000	160.000000	54.000000	56.000000	47.000000
1.650000	105.580000	18.120000	694.000000	0.000000	159.000000	55.000000	10.000000	5.000000
1.660000	105.530000	17.890000	710.000000	0.000000	161.000000	55.000000	-5.000000	-23.000000
1.670000	105.150000	16.910000	717.000000	0.000000	161.000000	55.000000	-38.000000	-98.000000
1.680000	104.550000	15.700000	740.000000	0.000000	163.000000	55.000000	-60.000000	-121.000000
1.690000	103.790000	14.330000	765.000000	0.000000	163.000000	54.000000	-76.000000	-137.000000
1.700000	103.040000	12.840000	796.000000	0.000000	163.000000	54.000000	-75.000000	-149.000000
1.710000	102.350000	11.350000	846.000000	0.000000	163.000000	54.000000	-69.000000	-149.000000
1.720000	101.870000	10.340000	866.000000	0.000000	163.000000	54.000000	-48.000000	-101.000000
1.730000	101.520000	9.660000	879.000000	0.000000	164.000000	53.000000	-35.000000	-68.000000
1.740000	101.280000	9.040000	881.000000	0.000000	162.000000	54.000000	-24.000000	-62.000000
1.750000	101.220000	8.810000	864.000000	0.000000	160.000000	53.000000	-6.000000	-23.000000
1.760000	101.270000	8.810000	855.000000	0.000000	158.000000	54.000000	5.000000	0.000000
1.770000	101.380000	8.860000	869.000000	0.000000	158.000000	54.000000	11.000000	5.000000
1.780000	101.690000	9.110000	845.000000	0.000000	158.000000	54.000000	31.000000	25.000000
1.790000	102.140000	9.510000	849.000000	0.000000	157.000000	54.000000	45.000000	40.000000
1.800000	102.620000	9.920000	852.000000	0.000000	157.000000	54.000000	48.000000	41.000000
1.810000	102.960000	10.160000	854.000000	0.000000	158.000000	54.000000	34.000000	24.000000
1.820000	103.200000	10.300000	852.000000	0.000000	158.000000	54.000000	24.000000	14.000000
1.830000	103.410000	10.420000	846.000000	0.000000	158.000000	54.000000	21.000000	12.000000
1.840000	103.490000	10.510000	840.000000	0.000000	160.000000	54.000000	8.000000	9.000000
1.850000	103.490000	10.510000	824.000000	0.000000	160.000000	54.000000	0.000000	0.000000
1.860000	103.490000	10.510000	817.000000	0.000000	161.000000	55.000000	0.000000	0.000000
1.870000	103.490000	10.440000	818.000000	0.000000	161.000000	55.000000	0.000000	-7.000000
1.880000	103.490000	10.320000	827.000000	0.000000	161.000000	55.000000	0.000000	-12.000000
1.890000	103.490000	10.120000	827.000000	0.000000	161.000000	55.000000	0.000000	-20.000000
1.900000	103.490000	9.950000	818.000000	0.000000	161.000000	55.000000	0.000000	-17.000000
1.910000	103.490000	9.860000	824.000000	0.000000	161.000000	55.000000	0.000000	-9.000000
1.920000	103.540000	9.810000	822.000000	0.000000	161.000000	55.000000	5.000000	-5.000000
1.930000	103.540000	9.810000	839.000000	0.000000	161.000000	55.000000	0.000000	0.000000
1.940000	103.650000	9.750000	855.000000	0.000000	161.000000	55.000000	11.000000	-6.000000
1.950000	103.710000	9.750000	857.000000	0.000000	163.000000	55.000000	6.000000	0.000000
1.960000	103.710000	9.700000	860.000000	0.000000	163.000000	54.000000	0.000000	-5.000000
1.970000	103.800000	9.700000	854.000000	0.000000	163.000000	54.000000	9.000000	0.000000
1.980000	103.890000	9.700000	843.000000	0.000000	163.000000	54.000000	9.000000	0.000000
1.990000	104.230000	9.850000	827.000000	0.000000	163.000000	54.000000	34.000000	15.000000
2.000000	104.710000	10.060000	762.000000	0.000000	164.000000	54.000000	48.000000	21.000000
2.010000	105.240000	10.350000	755.000000	0.000000	164.000000	54.000000	53.000000	29.000000
2.020000	105.790000	10.610000	725.000000	0.000000	164.000000	54.000000	55.000000	26.000000
2.030000	106.130000	10.840000	727.000000	0.000000	166.000000	54.000000	34.000000	23.000000
2.040000	106.330000	10.910000	736.000000	0.000000	166.000000	54.000000	20.000000	7.000000
2.050000	106.330000	10.910000	755.000000	0.000000	167.000000	54.000000	0.000000	0.000000
2.060000	106.330000	10.770000	780.000000	0.000000	167.000000	54.000000	0.000000	-14.000000
2.070000	106.240000	10.670000	796.000000	0.000000	167.000000	54.000000	-9.000000	-10.000000
2.080000	106.190000	10.560000	805.000000	0.000000	169.000000	54.000000	-5.000000	-11.000000
2.090000	106.190000	10.440000	800.000000	0.000000	169.000000	53.000000	0.000000	-12.000000
2.100000	106.190000	10.360000	788.000000	0.000000	169.000000	53.000000	0.000000	-8.000000
2.110000	106.190000	10.310000	797.000000	0.000000	169.000000	53.000000	0.000000	-5.000000
2.120000	106.290000	10.190000	791.000000	0.000000	170.000000	54.000000	10.000000	-12.000000
2.130000	106.360000	10.040000	790.000000	0.000000	170.000000	54.000000	7.000000	-15.000000
2.140000	106.410000	9.810000	796.000000	0.000000	170.000000	54.000000	5.000000	-23.000000
2.150000	106.350000	9.590000	787.000000	0.000000	170.000000	54.000000	-6.000000	-22.000000
2.160000	106.220000	9.380000	787.000000	0.000000	170.000000	54.000000	-13.000000	-21.000000
2.170000	106.030000	9.180000	793.000000	0.000000	170.000000	54.000000	-19.000000	-20.000000
2.180000	106.030000	9.130000	788.000000	0.000000	170.000000	54.000000	0.000000	-5.000000
2.190000	106.030000	9.130000	796.000000	0.000000	171.000000	53.000000	0.000000	0.000000
2.200000	106.150000	9.260000	782.000000	0.000000	172.000000	53.000000	12.000000	13.000000
2.210000	106.460000	9.450000	762.000000	0.000000	172.000000	53.000000	31.000000	19.000000
