t	x	y	pressure	penup	azimuth	inclination	v_x	v_y
0.000000	7.760000	5.870000	3.000000	1.000000	176.000000	46.000000	0.000000	0.000000
0.010000	7.760000	5.870000	30.000000	1.000000	176.000000	46.000000	0.000000	0.000000
0.020000	7.760000	5.870000	48.000000	0.000000	176.000000	46.000000	0.000000	0.000000
0.030000	7.760000	5.870000	67.000000	0.000000	176.000000	46.000000	0.000000	0.000000
0.040000	7.760000	5.870000	65.000000	0.000000	176.000000	46.000000	0.000000	0.000000
0.050000	7.760000	5.870000	91.000000	0.000000	176.000000	46.000000	0.000000	0.000000
0.060000	7.760000	5.870000	109.000000	0.000000	176.000000	47.000000	0.000000	0.000000
0.070000	7.760000	5.870000	108.000000	0.000000	176.000000	47.000000	0.000000	0.000000
0.080000	7.760000	5.870000	134.000000	0.000000	176.000000	47.000000	0.000000	0.000000
0.090000	7.760000	5.870000	137.000000	0.000000	176.000000	47.000000	0.000000	0.000000
0.100000	7.760000	5.870000	170.000000	0.000000	176.000000	47.000000	0.000000	0.000000
0.110000	7.760000	5.870000	185.000000	0.000000	176.000000	47.000000	0.000000	0.000000
0.120000	7.760000	5.870000	202.000000	0.000000	175.000000	47.000000	0.000000	0.000000
0.130000	7.760000	5.870000	217.000000	0.000000	175.000000	47.000000	0.000000	0.000000
0.140000	7.910000	6.180000	225.000000	0.000000	175.000000	47.000000	15.000000	31.000000
0.150000	8.050000	6.450000	244.000000	0.000000	175.000000	47.000000	14.000000	27.000000
0.160000	8.230000	6.720000	254.000000	0.000000	174.000000	47.000000	18.000000	27.000000
0.170000	8.530000	7.140000	254.000000	0.000000	172.000000	47.000000	30.000000	42.000000
0.180000	8.980000	7.680000	259.000000	0.000000	172.000000	46.000000	45.000000	54.000000
0.190000	9.520000	8.410000	259.000000	0.000000	169.000000	46.000000	54.000000	73.000000
0.200000	10.180000	9.260000	260.000000	0.000000	168.000000	46.000000	66.000000	85.000000
0.210000	10.850000	10.190000	257.000000	0.000000	166.000000	47.000000	67.000000	93.000000
0.220000	11.340000	11.210000	259.000000	0.000000	164.000000	48.000000	49.000000	102.000000
0.230000	11.720000	12.450000	254.000000	0.000000	161.000000	48.000000	38.000000	124.000000
0.240000	11.980000	13.850000	242.000000	0.000000	158.000000	49.000000	26.000000	140.000000
0.250000	12.170000	15.130000	245.000000	0.000000	156.000000	50.000000	19.000000	128.000000
0.260000	12.300000	16.220000	249.000000	0.000000	154.000000	50.000000	13.000000	109.000000
0.270000	12.430000	17.190000	252.000000	0.000000	153.000000	50.000000	13.000000	97.000000
0.280000	12.520000	17.900000	255.000000	0.000000	151.000000	50.000000	9.000000	71.000000
0.290000	12.580000	18.310000	255.000000	0.000000	149.000000	51.000000	6.000000	41.000000
0.300000	12.580000	18.510000	265.000000	0.000000	148.000000	51.000000	0.000000	20.000000
0.310000	12.580000	18.560000	270.000000	0.000000	147.000000	51.000000	0.000000	5.000000
0.320000	12.500000	18.560000	272.000000	0.000000	146.000000	52.000000	-8.000000	0.000000
0.330000	12.500000	18.560000	269.000000	0.000000	143.000000	52.000000	0.000000	0.000000
0.340000	12.400000	18.420000	275.000000	0.000000	142.000000	53.000000	-10.000000	-14.000000
0.350000	12.330000	18.000000	275.000000	0.000000	142.000000	53.000000	-7.000000	-42.000000
0.360000	12.330000	17.370000	274.000000	0.000000	142.000000	53.000000	0.000000	-63.000000
0.370000	12.280000	16.130000	272.000000	0.000000	143.000000	52.000000	-5.000000	-124.000000
0.380000	12.230000	14.640000	257.000000	0.000000	146.000000	52.000000	-5.000000	-149.000000
0.390000	12.140000	12.990000	247.000000	0.000000	147.000000	51.000000	-9.000000	-165.000000
0.400000	12.140000	11.090000	246.000000	0.000000	147.000000	51.000000	0.000000	-190.000000
0.410000	12.140000	9.700000	233.000000	0.000000	149.000000	51.000000	0.000000	-139.000000
0.420000	12.140000	8.660000	228.000000	0.000000	151.000000	50.000000	0.000000	-104.000000
0.430000	12.140000	7.810000	233.000000	0.000000	152.000000	51.000000	0.000000	-85.000000
0.440000	12.210000	7.140000	232.000000	0.000000	155.000000	50.000000	7.000000	-67.000000
0.450000	12.280000	6.590000	235.000000	0.000000	157.000000	51.000000	7.000000	-55.000000
0.460000	12.330000	6.200000	235.000000	0.000000	159.000000	50.000000	5.000000	-39.000000
0.470000	12.330000	5.810000	235.000000	0.000000	161.000000	50.000000	0.000000	-39.000000
0.480000	12.400000	5.610000	232.000000	0.000000	162.000000	51.000000	7.000000	-20.000000
0.490000	12.400000	5.540000	228.000000	0.000000	163.000000	52.000000	0.000000	-7.000000
0.500000	12.340000	5.540000	218.000000	0.000000	164.000000	52.000000	-6.000000	0.000000
0.510000	12.280000	5.620000	170.000000	0.000000	164.000000	52.000000	-6.000000	8.000000
0.520000	12.110000	5.730000	155.000000	0.000000	164.000000	52.000000	-17.000000	11.000000
0.530000	11.870000	5.850000	143.000000	0.000000	164.000000	52.000000	-24.000000	12.000000
0.540000	11.600000	5.990000	139.000000	0.000000	164.000000	52.000000	-27.000000	14.000000
0.550000	11.220000	6.140000	137.000000	0.000000	164.000000	52.000000	-38.000000	15.000000
0.560000	10.770000	6.230000	139.000000	0.000000	166.000000	52.000000	-45.000000	9.000000
0.570000	10.390000	6.360000	139.000000	0.000000	166.000000	51.000000	-38.000000	13.000000
0.580000	10.050000	6.500000	143.000000	0.000000	166.000000	51.000000	-34.000000	14.000000
0.590000	9.800000	6.570000	160.000000	0.000000	166.000000	51.000000	-25.000000	7.000000
0.600000	9.640000	6.620000	173.000000	0.000000	167.000000	50.000000	-16.000000	5.000000
0.610000	9.560000	6.620000	175.000000	0.000000	167.000000	50.000000	-8.000000	0.000000
0.620000	9.560000	6.700000	181.000000	0.000000	167.000000	50.000000	0.000000	8.000000
0.630000	9.620000	6.750000	181.000000	0.000000	168.000000	49.000000	6.000000	5.000000
0.640000	9.740000	6.840000	181.000000	0.000000	168.000000	49.000000	12.000000	9.000000
0.650000	9.740000	6.840000	183.000000	0.000000	168.000000	49.000000	0.000000	0.000000
0.660000	10.080000	7.080000	190.000000	0.000000	168.000000	49.000000	34.000000	24.000000
0.670000	10.340000	7.240000	203.000000	0.000000	167.000000	49.000000	26.000000	16.000000
0.680000	10.680000	7.420000	210.000000	0.000000	167.000000	49.000000	34.000000	18.000000
0.690000	10.980000	7.560000	215.000000	0.000000	166.000000	49.000000	30.000000	14.000000
0.700000	11.230000	7.720000	213.000000	0.000000	166.000000	49.000000	25.000000	16.000000
0.710000	11.510000	7.880000	213.000000	0.000000	165.000000	49.000000	28.000000	16.000000
0.720000	11.710000	8.030000	215.000000	0.000000	163.000000	49.000000	20.000000	15.000000
0.730000	11.860000	8.190000	222.000000	0.000000	163.000000	50.000000	15.000000	16.000000
0.740000	12.010000	8.330000	213.000000	0.000000	162.000000	50.000000	15.000000	14.000000
0.750000	12.160000	8.450000	212.000000	0.000000	162.000000	50.000000	15.000000	12.000000
0.760000	12.240000	8.550000	217.000000	0.000000	161.000000	50.000000	8.000000	10.000000
0.770000	12.240000	8.610000	212.000000	0.000000	160.000000	50.000000	0.000000	6.000000
0.780000	12.310000	8.610000	203.000000	0.000000	160.000000	50.000000	7.000000	0.000000
0.790000	12.310000	8.610000	202.000000	0.000000	160.000000	50.000000	0.000000	0.000000
0.800000	12.310000	8.610000	205.000000	0.000000	160.000000	50.000000	0.000000	0.000000
0.810000	12.310000	8.520000	212.000000	0.000000	160.000000	50.000000	0.000000	-9.000000
0.820000	12.310000	8.400000	212.000000	0.000000	160.000000	50.000000	0.000000	-12.000000
0.830000	12.310000	8.280000	210.000000	0.000000	160.000000	50.000000	0.000000	-12.000000
0.840000	12.370000	8.180000	213.000000	0.000000	160.000000	50.000000	6.000000	-10.000000
0.850000	12.420000	8.180000	215.000000	0.000000	160.000000	50.000000	5.000000	0.000000
0.860000	12.420000	8.120000	207.000000	0.000000	160.000000	50.000000	0.000000	-6.000000
0.870000	12.530000	8.120000	223.000000	0.000000	160.000000	50.000000	11.000000	0.000000
0.880000	12.650000	8.270000	233.000000	0.000000	160.000000	50.000000	12.000000	15.000000
0.890000	12.830000	8.460000	237.000000	0.000000	159.000000	51.000000	18.000000	19.000000
0.900000	13.050000	8.830000	237.000000	0.000000	159.000000	51.000000	22.000000	37.000000
0.910000	13.320000	9.350000	226.000000	0.000000	159.000000	51.000000	27.000000	52.000000
0.920000	13.660000	9.960000	206.000000	0.000000	158.000000	52.000000	34.000000	61.000000
0.930000	14.040000	10.760000	218.000000	0.000000	160.000000	52.000000	38.000000	80.000000
0.940000	14.450000	11.890000	195.000000	0.000000	159.000000	53.000000	41.000000	113.000000
0.950000	14.870000	13.250000	200.000000	0.000000	159.000000	53.000000	42.000000	136.000000
0.960000	15.170000	14.650000	196.000000	0.000000	159.000000	53.000000	30.000000	140.000000
0.970000	15.390000	16.020000	213.000000	0.000000	158.000000	54.000000	22.000000	137.000000
0.980000	15.520000	17.310000	220.000000	0.000000	157.000000	54.000000	13.000000	129.000000
0.990000	15.520000	18.060000	218.000000	0.000000	157.000000	54.000000	0.000000	75.000000
1.000000	15.520000	18.470000	228.000000	0.000000	156.000000	55.000000	0.000000	41.000000
1.010000	15.460000	18.470000	235.000000	0.000000	155.000000	54.000000	-6.000000	0.000000
1.020000	15.310000	18.200000	241.000000	0.000000	154.000000	55.000000	-15.000000	-27.000000
1.030000	15.100000	17.720000	249.000000	0.000000	154.000000	55.000000	-21.000000	-48.000000
1.040000	14.820000	16.520000	257.000000	0.000000	153.000000	55.000000	-28.000000	-120.000000
1.050000	14.570000	15.020000	257.000000	0.000000	153.000000	55.000000	-25.000000	-150.000000
1.060000	14.370000	13.310000	250.000000	0.000000	153.000000	55.000000	-20.000000	-171.000000
1.070000	14.220000	11.710000	247.000000	0.000000	153.000000	55.000000	-15.000000	-160.000000
1.080000	14.150000	10.500000	254.000000	0.000000	153.000000	54.000000	-7.000000	-121.000000
1.090000	14.150000	9.540000	249.000000	0.000000	155.000000	54.000000	0.000000	-96.000000
1.100000	14.210000	8.880000	244.000000	0.000000	157.000000	54.000000	6.000000	-66.000000
1.110000	14.280000	8.410000	240.000000	0.000000	158.000000	54.000000	7.000000	-47.000000
1.120000	14.350000	8.080000	235.000000	0.000000	160.000000	54.000000	7.000000	-33.000000
1.130000	14.460000	7.930000	226.000000	0.000000	160.000000	54.000000	11.000000	-15.000000
1.140000	14.580000	7.930000	225.000000	0.000000	161.000000	55.000000	12.000000	0.000000
1.150000	14.710000	8.030000	225.000000	0.000000	163.000000	54.000000	13.000000	10.000000
1.160000	14.960000	8.320000	220.000000	0.000000	164.000000	54.000000	25.000000	29.000000
1.170000	15.240000	8.850000	193.000000	0.000000	164.000000	54.000000	28.000000	53.000000
1.180000	15.580000	9.540000	183.000000	0.000000	164.000000	54.000000	34.000000	69.000000
1.190000	15.950000	10.260000	178.000000	0.000000	164.000000	55.000000	37.000000	72.000000
1.200000	16.220000	11.050000	180.000000	0.000000	163.000000	55.000000	27.000000	79.000000
1.210000	16.410000	11.900000	183.000000	0.000000	160.000000	54.000000	19.000000	85.000000
1.220000	16.650000	12.590000	186.000000	0.000000	155.000000	54.000000	24.000000	69.000000
1.230000	16.760000	12.840000	196.000000	0.000000	151.000000	53.000000	11.000000	25.000000
1.240000	16.760000	12.840000	215.000000	0.000000	147.000000	53.000000	0.000000	0.000000
1.250000	16.760000	12.540000	233.000000	0.000000	145.000000	53.000000	0.000000	-30.000000
1.260000	16.610000	11.920000	253.000000	0.000000	141.000000	51.000000	-15.000000	-62.000000
1.270000	16.390000	11.070000	244.000000	0.000000	140.000000	51.000000	-22.000000	-85.000000
1.280000	16.240000	10.340000	252.000000	0.000000	140.000000	51.000000	-15.000000	-73.000000
1.290000	16.120000	9.730000	257.000000	0.000000	141.000000	51.000000	-12.000000	-61.000000
1.300000	16.040000	9.210000	260.000000	0.000000	143.000000	52.000000	-8.000000	-52.000000
1.310000	16.040000	8.810000	254.000000	0.000000	147.000000	53.000000	0.000000	-40.000000
1.320000	16.100000	8.620000	249.000000	0.000000	148.000000	54.000000	6.000000	-19.000000
1.330000	16.280000	8.570000	250.000000	0.000000	151.000000	54.000000	18.000000	-5.000000
1.340000	16.680000	8.690000	256.000000	0.000000	152.000000	54.000000	40.000000	12.000000
1.350000	17.050000	9.010000	253.000000	0.000000	152.000000	54.000000	37.000000	32.000000
1.360000	17.400000	9.460000	249.000000	0.000000	151.000000	53.000000	35.000000	45.000000
1.370000	17.760000	9.910000	246.000000	0.000000	148.000000	53.000000	36.000000	45.000000
1.380000	18.010000	10.330000	244.000000	0.000000	145.000000	53.000000	25.000000	42.000000
1.390000	18.180000	10.680000	244.000000	0.000000	142.000000	52.000000	17.000000	35.000000
1.400000	18.260000	10.960000	244.000000	0.000000	140.000000	51.000000	8.000000	28.000000
1.410000	18.260000	11.080000	254.000000	0.000000	137.000000	51.000000	0.000000	12.000000
1.420000	18.260000	11.080000	244.000000	0.000000	137.000000	51.000000	0.000000	0.000000
1.430000	18.260000	11.030000	252.000000	0.000000	137.000000	51.000000	0.000000	-5.000000
1.440000	18.130000	10.740000	259.000000	0.000000	137.000000	51.000000	-13.000000	-29.000000
1.450000	17.970000	10.300000	264.000000	0.000000	137.000000	51.000000	-16.000000	-44.000000
1.460000	17.820000	9.850000	270.000000	0.000000	137.000000	51.000000	-15.000000	-45.000000
1.470000	17.710000	9.440000	274.000000	0.000000	137.000000	51.000000	-11.000000	-41.000000
1.480000	17.710000	9.170000	277.000000	0.000000	137.000000	51.000000	0.000000	-27.000000
1.490000	17.790000	8.970000	269.000000	0.000000	137.000000	51.000000	8.000000	-20.000000
1.500000	17.960000	8.970000	265.000000	0.000000	137.000000	51.000000	17.000000	0.000000
1.510000	18.310000	9.190000	254.000000	0.000000	138.000000	50.000000	35.000000	22.000000
1.520000	18.760000	9.530000	245.000000	0.000000	138.000000	50.000000	45.000000	34.000000
1.530000	19.250000	10.050000	249.000000	0.000000	138.000000	50.000000	49.000000	52.000000
1.540000	19.720000	10.540000	256.000000	0.000000	138.000000	51.000000	47.000000	49.000000
1.550000	20.050000	10.960000	242.000000	0.000000	138.000000	51.000000	33.000000	42.000000
1.560000	20.290000	11.270000	257.000000	0.000000	138.000000	51.000000	24.000000	31.000000
1.570000	20.370000	11.370000	279.000000	0.000000	137.000000	52.000000	8.000000	10.000000
1.580000	20.370000	11.370000	277.000000	0.000000	139.000000	52.000000	0.000000	0.000000
1.590000	20.260000	11.210000	292.000000	0.000000	137.000000	53.000000	-11.000000	-16.000000
1.600000	20.080000	11.020000	306.000000	0.000000	137.000000	53.000000	-18.000000	-19.000000
1.610000	19.920000	10.740000	304.000000	0.000000	137.000000	53.000000	-16.000000	-28.000000
1.620000	19.810000	10.410000	267.000000	0.000000	137.000000	53.000000	-11.000000	-33.000000
1.630000	19.900000	10.260000	176.000000	0.000000	137.000000	53.000000	9.000000	-15.000000
1.640000	19.900000	10.260000	0.000000	1.000000	137.000000	53.000000	0.000000	0.000000
1.650000	20.560000	10.340000	0.000000	0.000000	137.000000	53.000000	66.000000	8.000000
1.660000	21.100000	10.800000	0.000000	0.000000	137.000000	53.000000	54.000000	46.000000
1.670000	21.730000	11.460000	0.000000	0.000000	137.000000	53.000000	63.000000	66.000000
1.680000	22.280000	12.250000	0.000000	0.000000	136.000000	52.000000	55.000000	79.000000
1.690000	22.820000	12.990000	0.000000	0.000000	136.000000	52.000000	54.000000	74.000000
1.700000	23.350000	13.680000	0.000000	0.000000	137.000000	52.000000	53.000000	69.000000
1.710000	24.170000	14.270000	0.000000	0.000000	137.000000	51.000000	82.000000	59.000000
1.720000	24.670000	14.770000	0.000000	0.000000	137.000000	51.000000	50.000000	50.000000
1.730000	24.960000	15.220000	0.000000	0.000000	138.000000	50.000000	29.000000	45.000000
1.740000	25.420000	15.490000	0.000000	0.000000	141.000000	50.000000	46.000000	27.000000
1.750000	25.850000	15.710000	0.000000	0.000000	141.000000	50.000000	43.000000	22.000000
1.760000	26.260000	15.890000	0.000000	0.000000	142.000000	49.000000	41.000000	18.000000
1.770000	26.480000	16.020000	0.000000	0.000000	141.000000	49.000000	22.000000	13.000000
1.780000	26.610000	16.120000	0.000000	0.000000	139.000000	48.000000	13.000000	10.000000
1.790000	26.670000	16.030000	0.000000	0.000000	138.000000	48.000000	6.000000	-9.000000
1.800000	26.530000	15.830000	0.000000	0.000000	136.000000	47.000000	-14.000000	-20.000000
1.810000	26.300000	15.560000	0.000000	0.000000	135.000000	46.000000	-23.000000	-27.000000
1.820000	26.000000	15.180000	0.000000	0.000000	135.000000	45.000000	-30.000000	-38.000000
1.830000	25.680000	14.720000	0.000000	0.000000	135.000000	45.000000	-32.000000	-46.000000
1.840000	25.320000	14.300000	0.000000	0.000000	135.000000	45.000000	-36.000000	-42.000000
1.850000	24.940000	13.840000	0.000000	0.000000	135.000000	46.000000	-38.000000	-46.000000
1.860000	24.600000	13.420000	0.000000	0.000000	136.000000	47.000000	-34.000000	-42.000000
1.870000	24.390000	13.060000	0.000000	0.000000	138.000000	48.000000	-21.000000	-36.000000
1.880000	24.260000	12.880000	0.000000	0.000000	138.000000	49.000000	-13.000000	-18.000000
1.890000	24.260000	12.760000	0.000000	0.000000	138.000000	50.000000	0.000000	-12.000000
1.900000	24.190000	12.690000	0.000000	0.000000	140.000000	51.000000	-7.000000	-7.000000
1.910000	24.080000	12.560000	0.000000	0.000000	138.000000	51.000000	-11.000000	-13.000000
1.920000	24.080000	12.430000	0.000000	0.000000	136.000000	51.000000	0.000000	-13.000000
1.930000	24.020000	12.300000	0.000000	0.000000	135.000000	52.000000	-6.000000	-13.000000
1.940000	24.020000	12.140000	0.000000	0.000000	134.000000	52.000000	0.000000	-16.000000
1.950000	24.020000	11.990000	0.000000	0.000000	133.000000	52.000000	0.000000	-15.000000
1.960000	24.020000	11.800000	0.000000	0.000000	131.000000	52.000000	0.000000	-19.000000
1.970000	24.020000	11.590000	0.000000	0.000000	131.000000	52.000000	0.000000	-21.000000
1.980000	24.020000	11.380000	0.000000	0.000000	131.000000	52.000000	0.000000	-21.000000
1.990000	24.020000	11.180000	0.000000	0.000000	131.000000	52.000000	0.000000	-20.000000
2.000000	24.020000	10.940000	0.000000	0.000000	131.000000	52.000000	0.000000	-24.000000
2.010000	23.910000	10.650000	0.000000	0.000000	131.000000	52.000000	-11.000000	-29.000000
2.020000	23.840000	10.340000	0.000000	0.000000	131.000000	52.000000	-7.000000	-31.000000
2.030000	23.760000	10.040000	0.000000	0.000000	133.000000	53.000000	-8.000000	-30.000000
2.040000	23.690000	9.790000	0.000000	0.000000	133.000000	53.000000	-7.000000	-25.000000
2.050000	23.690000	9.790000	56.000000	1.000000	133.000000	53.000000	0.000000	0.000000
2.060000	23.570000	9.480000	80.000000	0.000000	133.000000	53.000000	-12.000000	-31.000000
2.070000	23.570000	9.430000	117.000000	0.000000	133.000000	53.000000	0.000000	-5.000000
2.080000	23.570000	9.430000	155.000000	0.000000	134.000000	54.000000	0.000000	0.000000
2.090000	23.570000	9.500000	170.000000	0.000000	134.000000	54.000000	0.000000	7.000000
2.100000	23.670000	9.760000	203.000000	0.000000	134.000000	54.000000	10.000000	26.000000
2.110000	23.940000	10.250000	222.000000	0.000000	133.000000	54.000000	27.000000	49.000000
2.120000	24.310000	10.900000	232.000000	0.000000	133.000000	54.000000	37.000000	65.000000
2.130000	24.790000	11.930000	237.000000	0.000000	131.000000	55.000000	48.000000	103.000000
2.140000	25.300000	13.150000	233.000000	0.000000	131.000000	55.000000	51.000000	122.000000
2.150000	25.820000	14.510000	239.000000	0.000000	130.000000	55.000000	52.000000	136.000000
2.160000	26.320000	15.890000	237.000000	0.000000	130.000000	55.000000	50.000000	138.000000
2.170000	26.690000	17.340000	254.000000	0.000000	130.000000	55.000000	37.000000	145.000000
2.180000	26.970000	18.830000	254.000000	0.000000	129.000000	55.000000	28.000000	149.000000
2.190000	27.180000	20.000000	265.000000	0.000000	129.000000	55.000000	21.000000	117.000000
2.200000	27.230000	20.700000	280.000000	0.000000	128.000000	54.000000	5.000000	70.000000
2.210000	27.230000	21.090000	282.000000	0.000000	127.000000	53.000000	0.000000	39.000000
2.220000	27.230000	21.090000	289.000000	0.000000	127.000000	53.000000	0.000000	0.000000
