t	x	y	pressure	penup	azimuth	inclination	v_x	v_y
0.000000	50.880000	16.810000	15.000000	1.000000	135.000000	52.000000	0.000000	0.000000
0.010000	50.830000	17.190000	63.000000	0.000000	134.000000	51.000000	-5.000000	38.000000
0.020000	50.750000	17.360000	132.000000	0.000000	133.000000	52.000000	-8.000000	17.000000
0.030000	50.800000	17.530000	170.000000	0.000000	133.000000	52.000000	5.000000	17.000000
0.040000	50.800000	17.640000	240.000000	0.000000	131.000000	52.000000	0.000000	11.000000
0.050000	50.860000	17.640000	304.000000	0.000000	131.000000	52.000000	6.000000	0.000000
0.060000	50.860000	17.350000	376.000000	0.000000	131.000000	52.000000	0.000000	-29.000000
0.070000	50.750000	16.810000	418.000000	0.000000	131.000000	52.000000	-11.000000	-54.000000
0.080000	50.410000	15.670000	483.000000	0.000000	131.000000	52.000000	-34.000000	-114.000000
0.090000	49.920000	14.080000	524.000000	0.000000	130.000000	53.000000	-49.000000	-159.000000
0.100000	49.260000	12.180000	586.000000	0.000000	130.000000	53.000000	-66.000000	-190.000000
0.110000	48.350000	10.060000	641.000000	0.000000	130.000000	54.000000	-91.000000	-212.000000
0.120000	47.270000	8.270000	691.000000	0.000000	130.000000	54.000000	-108.000000	-179.000000
0.130000	46.150000	6.690000	707.000000	0.000000	129.000000	55.000000	-112.000000	-158.000000
0.140000	45.600000	5.820000	727.000000	0.000000	129.000000	56.000000	-55.000000	-87.000000
0.150000	45.440000	5.560000	763.000000	0.000000	128.000000	57.000000	-16.000000	-26.000000
0.160000	45.500000	5.710000	762.000000	0.000000	128.000000	57.000000	6.000000	15.000000
0.170000	45.780000	6.290000	776.000000	0.000000	130.000000	58.000000	28.000000	58.000000
0.180000	46.200000	7.560000	785.000000	0.000000	130.000000	58.000000	42.000000	127.000000
0.190000	47.070000	9.290000	794.000000	0.000000	128.000000	58.000000	87.000000	173.000000
0.200000	48.130000	11.150000	783.000000	0.000000	128.000000	58.000000	106.000000	186.000000
0.210000	49.310000	13.150000	796.000000	0.000000	127.000000	59.000000	118.000000	200.000000
0.220000	50.200000	15.250000	780.000000	0.000000	126.000000	58.000000	89.000000	210.000000
0.230000	50.870000	16.960000	767.000000	0.000000	126.000000	57.000000	67.000000	171.000000
0.240000	51.400000	17.780000	748.000000	0.000000	125.000000	56.000000	53.000000	82.000000
0.250000	51.490000	18.020000	694.000000	0.000000	127.000000	55.000000	9.000000	24.000000
0.260000	51.400000	17.900000	681.000000	0.000000	129.000000	55.000000	-9.000000	-12.000000
0.270000	51.190000	17.120000	675.000000	0.000000	128.000000	54.000000	-21.000000	-78.000000
0.280000	50.830000	15.900000	676.000000	0.000000	129.000000	53.000000	-36.000000	-122.000000
0.290000	50.440000	14.350000	682.000000	0.000000	129.000000	53.000000	-39.000000	-155.000000
0.300000	50.020000	12.600000	691.000000	0.000000	129.000000	53.000000	-42.000000	-175.000000
0.310000	49.580000	10.730000	685.000000	0.000000	129.000000	53.000000	-44.000000	-187.000000
0.320000	49.030000	9.120000	691.000000	0.000000	128.000000	54.000000	-55.000000	-161.000000
0.330000	48.410000	7.740000	694.000000	0.000000	126.000000	54.000000	-62.000000	-138.000000
0.340000	47.740000	6.510000	727.000000	0.000000	127.000000	55.000000	-67.000000	-123.000000
0.350000	47.090000	5.550000	725.000000	0.000000	126.000000	56.000000	-65.000000	-96.000000
0.360000	46.450000	5.080000	736.000000	0.000000	126.000000	57.000000	-64.000000	-47.000000
0.370000	46.070000	4.950000	749.000000	0.000000	126.000000	57.000000	-38.000000	-13.000000
0.380000	45.890000	5.070000	740.000000	0.000000	127.000000	57.000000	-18.000000	12.000000
0.390000	45.840000	5.830000	727.000000	0.000000	127.000000	57.000000	-5.000000	76.000000
0.400000	46.230000	7.030000	727.000000	0.000000	128.000000	58.000000	39.000000	120.000000
0.410000	47.070000	8.320000	716.000000	0.000000	127.000000	59.000000	84.000000	129.000000
0.420000	48.220000	9.550000	714.000000	0.000000	127.000000	59.000000	115.000000	123.000000
0.430000	49.280000	10.740000	700.000000	0.000000	127.000000	59.000000	106.000000	119.000000
0.440000	50.210000	11.680000	694.000000	0.000000	124.000000	58.000000	93.000000	94.000000
0.450000	51.050000	12.350000	676.000000	0.000000	124.000000	58.000000	84.000000	67.000000
0.460000	51.590000	12.840000	663.000000	0.000000	121.000000	58.000000	54.000000	49.000000
0.470000	51.950000	13.190000	664.000000	0.000000	121.000000	58.000000	36.000000	35.000000
0.480000	52.200000	13.540000	659.000000	0.000000	119.000000	58.000000	25.000000	35.000000
0.490000	52.450000	14.150000	644.000000	0.000000	117.000000	58.000000	25.000000	61.000000
0.500000	52.720000	14.950000	650.000000	0.000000	117.000000	58.000000	27.000000	80.000000
0.510000	53.040000	15.840000	652.000000	0.000000	119.000000	58.000000	32.000000	89.000000
0.520000	53.370000	16.670000	653.000000	0.000000	120.000000	57.000000	33.000000	83.000000
0.530000	53.640000	17.060000	653.000000	0.000000	122.000000	57.000000	27.000000	39.000000
0.540000	53.700000	17.190000	652.000000	0.000000	126.000000	57.000000	6.000000	13.000000
0.550000	53.700000	17.060000	659.000000	0.000000	127.000000	56.000000	0.000000	-13.000000
0.560000	53.490000	16.430000	667.000000	0.000000	130.000000	55.000000	-21.000000	-63.000000
0.570000	53.120000	15.470000	684.000000	0.000000	130.000000	55.000000	-37.000000	-96.000000
0.580000	52.630000	14.210000	702.000000	0.000000	130.000000	55.000000	-49.000000	-126.000000
0.590000	51.920000	12.710000	721.000000	0.000000	130.000000	55.000000	-71.000000	-150.000000
0.600000	51.210000	11.040000	736.000000	0.000000	129.000000	56.000000	-71.000000	-167.000000
0.610000	50.670000	9.820000	737.000000	0.000000	127.000000	56.000000	-54.000000	-122.000000
0.620000	50.240000	8.850000	740.000000	0.000000	126.000000	57.000000	-43.000000	-97.000000
0.630000	50.070000	8.060000	731.000000	0.000000	124.000000	57.000000	-17.000000	-79.000000
0.640000	50.070000	7.750000	720.000000	0.000000	124.000000	57.000000	0.000000	-31.000000
0.650000	50.270000	7.750000	722.000000	0.000000	124.000000	57.000000	20.000000	0.000000
0.660000	50.660000	7.880000	699.000000	0.000000	124.000000	57.000000	39.000000	13.000000
0.670000	51.080000	8.490000	697.000000	0.000000	124.000000	57.000000	42.000000	61.000000
0.680000	51.620000	9.270000	696.000000	0.000000	124.000000	57.000000	54.000000	78.000000
0.690000	52.220000	10.160000	687.000000	0.000000	124.000000	57.000000	60.000000	89.000000
0.700000	52.770000	10.920000	687.000000	0.000000	124.000000	57.000000	55.000000	76.000000
0.710000	53.150000	11.640000	673.000000	0.000000	123.000000	58.000000	38.000000	72.000000
0.720000	53.410000	12.010000	667.000000	0.000000	121.000000	58.000000	26.000000	37.000000
0.730000	53.460000	12.160000	667.000000	0.000000	121.000000	59.000000	5.000000	15.000000
0.740000	53.460000	12.050000	664.000000	0.000000	119.000000	60.000000	0.000000	-11.000000
0.750000	53.370000	11.540000	684.000000	0.000000	119.000000	60.000000	-9.000000	-51.000000
0.760000	53.140000	10.760000	694.000000	0.000000	119.000000	60.000000	-23.000000	-78.000000
0.770000	52.810000	9.870000	708.000000	0.000000	119.000000	60.000000	-33.000000	-89.000000
0.780000	52.420000	9.020000	720.000000	0.000000	119.000000	60.000000	-39.000000	-85.000000
0.790000	52.230000	8.440000	722.000000	0.000000	121.000000	59.000000	-19.000000	-58.000000
0.800000	52.230000	8.020000	728.000000	0.000000	121.000000	59.000000	0.000000	-42.000000
0.810000	52.320000	7.820000	727.000000	0.000000	123.000000	59.000000	9.000000	-20.000000
0.820000	52.460000	7.760000	739.000000	0.000000	124.000000	58.000000	14.000000	-6.000000
0.830000	52.630000	7.760000	740.000000	0.000000	126.000000	58.000000	17.000000	0.000000
0.840000	52.990000	8.110000	736.000000	0.000000	127.000000	59.000000	36.000000	35.000000
0.850000	53.450000	8.640000	731.000000	0.000000	128.000000	58.000000	46.000000	53.000000
0.860000	53.880000	9.310000	721.000000	0.000000	127.000000	59.000000	43.000000	67.000000
0.870000	54.170000	9.690000	719.000000	0.000000	127.000000	59.000000	29.000000	38.000000
0.880000	54.360000	9.850000	705.000000	0.000000	127.000000	59.000000	19.000000	16.000000
0.890000	54.430000	9.850000	700.000000	0.000000	125.000000	59.000000	7.000000	0.000000
0.900000	54.430000	9.780000	691.000000	0.000000	124.000000	60.000000	0.000000	-7.000000
0.910000	54.430000	9.680000	696.000000	0.000000	124.000000	60.000000	0.000000	-10.000000
0.920000	54.430000	9.520000	702.000000	0.000000	122.000000	60.000000	0.000000	-16.000000
0.930000	54.430000	9.350000	699.000000	0.000000	122.000000	60.000000	0.000000	-17.000000
0.940000	54.430000	9.180000	705.000000	0.000000	122.000000	60.000000	0.000000	-17.000000
0.950000	54.430000	9.080000	700.000000	0.000000	122.000000	60.000000	0.000000	-10.000000
0.960000	54.430000	8.950000	705.000000	0.000000	124.000000	60.000000	0.000000	-13.000000
0.970000	54.530000	8.800000	705.000000	0.000000	124.000000	60.000000	10.000000	-15.000000
0.980000	54.650000	8.750000	697.000000	0.000000	124.000000	60.000000	12.000000	-5.000000
0.990000	54.770000	8.750000	690.000000	0.000000	125.000000	59.000000	12.000000	0.000000
1.000000	54.910000	8.840000	699.000000	0.000000	125.000000	59.000000	14.000000	9.000000
1.010000	55.210000	9.150000	693.000000	0.000000	125.000000	59.000000	30.000000	31.000000
1.020000	55.610000	9.600000	684.000000	0.000000	125.000000	59.000000	40.000000	45.000000
1.030000	56.030000	10.100000	673.000000	0.000000	125.000000	60.000000	42.000000	50.000000
1.040000	56.400000	10.550000	665.000000	0.000000	125.000000	60.000000	37.000000	45.000000
1.050000	56.580000	10.710000	642.000000	0.000000	125.000000	60.000000	18.000000	16.000000
1.060000	56.640000	10.710000	638.000000	0.000000	123.000000	61.000000	6.000000	0.000000
1.070000	56.640000	10.500000	636.000000	0.000000	122.000000	61.000000	0.000000	-21.000000
1.080000	56.560000	10.280000	643.000000	0.000000	122.000000	61.000000	-8.000000	-22.000000
1.090000	56.460000	10.000000	670.000000	0.000000	122.000000	61.000000	-10.000000	-28.000000
1.100000	56.400000	9.720000	673.000000	0.000000	122.000000	61.000000	-6.000000	-28.000000
1.110000	56.340000	9.440000	685.000000	0.000000	122.000000	61.000000	-6.000000	-28.000000
1.120000	56.270000	9.210000	700.000000	0.000000	122.000000	61.000000	-7.000000	-23.000000
1.130000	56.270000	9.020000	702.000000	0.000000	122.000000	61.000000	0.000000	-19.000000
1.140000	56.270000	8.920000	702.000000	0.000000	123.000000	61.000000	0.000000	-10.000000
1.150000	56.270000	8.860000	687.000000	0.000000	123.000000	61.000000	0.000000	-6.000000
1.160000	56.380000	8.860000	666.000000	0.000000	125.000000	60.000000	11.000000	0.000000
1.170000	56.490000	8.860000	667.000000	0.000000	126.000000	61.000000	11.000000	0.000000
1.180000	56.780000	9.120000	659.000000	0.000000	126.000000	61.000000	29.000000	26.000000
1.190000	57.190000	9.490000	640.000000	0.000000	126.000000	61.000000	41.000000	37.000000
1.200000	57.600000	9.890000	636.000000	0.000000	126.000000	61.000000	41.000000	40.000000
1.210000	57.990000	10.230000	647.000000	0.000000	126.000000	61.000000	39.000000	34.000000
1.220000	58.370000	10.390000	645.000000	0.000000	123.000000	61.000000	38.000000	16.000000
1.230000	58.540000	10.440000	638.000000	0.000000	123.000000	61.000000	17.000000	5.000000
1.240000	58.610000	10.390000	645.000000	0.000000	120.000000	60.000000	7.000000	-5.000000
1.250000	58.610000	10.310000	640.000000	0.000000	120.000000	60.000000	0.000000	-8.000000
1.260000	58.610000	10.190000	652.000000	0.000000	118.000000	60.000000	0.000000	-12.000000
1.270000	58.540000	10.010000	661.000000	0.000000	118.000000	60.000000	-7.000000	-18.000000
1.280000	58.420000	9.820000	668.000000	0.000000	118.000000	60.000000	-12.000000	-19.000000
1.290000	58.360000	9.630000	668.000000	0.000000	118.000000	59.000000	-6.000000	-19.000000
1.300000	58.360000	9.500000	670.000000	0.000000	118.000000	59.000000	0.000000	-13.000000
1.310000	58.360000	9.400000	668.000000	0.000000	118.000000	59.000000	0.000000	-10.000000
1.320000	58.410000	9.300000	664.000000	0.000000	118.000000	59.000000	5.000000	-10.000000
1.330000	58.480000	9.240000	662.000000	0.000000	118.000000	59.000000	7.000000	-6.000000
1.340000	58.570000	9.240000	637.000000	0.000000	120.000000	58.000000	9.000000	0.000000
1.350000	58.690000	9.240000	611.000000	0.000000	120.000000	58.000000	12.000000	0.000000
1.360000	58.860000	9.380000	510.000000	0.000000	120.000000	58.000000	17.000000	14.000000
1.370000	59.080000	9.570000	305.000000	0.000000	120.000000	58.000000	22.000000	19.000000
1.380000	59.080000	9.570000	0.000000	1.000000	120.000000	58.000000	0.000000	0.000000
1.390000	59.590000	10.030000	0.000000	0.000000	120.000000	58.000000	51.000000	46.000000
1.400000	59.760000	10.140000	0.000000	0.000000	119.000000	60.000000	17.000000	11.000000
1.410000	59.870000	10.270000	0.000000	0.000000	119.000000	60.000000	11.000000	13.000000
1.420000	60.120000	10.430000	0.000000	0.000000	119.000000	60.000000	25.000000	16.000000
1.430000	60.430000	10.660000	0.000000	0.000000	119.000000	60.000000	31.000000	23.000000
1.440000	60.870000	10.890000	0.000000	0.000000	120.000000	60.000000	44.000000	23.000000
1.450000	61.450000	11.100000	0.000000	0.000000	120.000000	60.000000	58.000000	21.000000
1.460000	62.120000	11.340000	0.000000	0.000000	120.000000	60.000000	67.000000	24.000000
1.470000	62.760000	11.610000	0.000000	0.000000	120.000000	60.000000	64.000000	27.000000
1.480000	63.200000	11.610000	0.000000	0.000000	120.000000	60.000000	44.000000	0.000000
1.490000	63.200000	11.610000	578.000000	1.000000	120.000000	60.000000	0.000000	0.000000
1.500000	63.320000	11.280000	676.000000	0.000000	120.000000	60.000000	12.000000	-33.000000
1.510000	63.270000	11.280000	762.000000	0.000000	120.000000	60.000000	-5.000000	0.000000
1.520000	63.270000	11.370000	827.000000	0.000000	120.000000	62.000000	0.000000	9.000000
1.530000	63.420000	11.510000	854.000000	0.000000	120.000000	62.000000	15.000000	14.000000
1.540000	63.920000	12.240000	851.000000	0.000000	120.000000	62.000000	50.000000	73.000000
1.550000	64.680000	13.430000	825.000000	0.000000	121.000000	63.000000	76.000000	119.000000
1.560000	65.830000	14.930000	808.000000	0.000000	121.000000	63.000000	115.000000	150.000000
1.570000	67.020000	16.810000	783.000000	0.000000	123.000000	62.000000	119.000000	188.000000
1.580000	68.000000	18.160000	790.000000	0.000000	127.000000	62.000000	98.000000	135.000000
1.590000	68.810000	19.150000	757.000000	0.000000	129.000000	61.000000	81.000000	99.000000
1.600000	68.920000	19.330000	760.000000	0.000000	132.000000	60.000000	11.000000	18.000000
1.610000	68.800000	19.230000	768.000000	0.000000	135.000000	59.000000	-12.000000	-10.000000
1.620000	68.530000	18.950000	776.000000	0.000000	138.000000	58.000000	-27.000000	-28.000000
1.630000	68.120000	18.270000	788.000000	0.000000	139.000000	57.000000	-41.000000	-68.000000
1.640000	67.740000	17.540000	787.000000	0.000000	140.000000	56.000000	-38.000000	-73.000000
1.650000	67.380000	16.540000	806.000000	0.000000	140.000000	56.000000	-36.000000	-100.000000
1.660000	66.960000	15.370000	830.000000	0.000000	142.000000	57.000000	-42.000000	-117.000000
1.670000	66.450000	14.050000	858.000000	0.000000	140.000000	58.000000	-51.000000	-132.000000
1.680000	65.880000	12.710000	887.000000	0.000000	139.000000	58.000000	-57.000000	-134.000000
1.690000	65.370000	11.340000	906.000000	0.000000	138.000000	59.000000	-51.000000	-137.000000
1.700000	64.910000	10.470000	900.000000	0.000000	135.000000	60.000000	-46.000000	-87.000000
1.710000	64.740000	9.940000	900.000000	0.000000	134.000000	61.000000	-17.000000	-53.000000
1.720000	64.740000	9.790000	869.000000	0.000000	130.000000	62.000000	0.000000	-15.000000
1.730000	64.790000	9.790000	825.000000	0.000000	129.000000	63.000000	5.000000	0.000000
1.740000	65.130000	9.970000	818.000000	0.000000	129.000000	63.000000	34.000000	18.000000
1.750000	65.660000	10.450000	800.000000	0.000000	127.000000	63.000000	53.000000	48.000000
1.760000	66.440000	11.030000	799.000000	0.000000	127.000000	63.000000	78.000000	58.000000
1.770000	67.230000	11.680000	818.000000	0.000000	127.000000	63.000000	79.000000	65.000000
1.780000	67.800000	12.160000	826.000000	0.000000	127.000000	63.000000	57.000000	48.000000
1.790000	68.210000	12.380000	827.000000	0.000000	127.000000	63.000000	41.000000	22.000000
1.800000	68.430000	12.440000	826.000000	0.000000	125.000000	64.000000	22.000000	6.000000
1.810000	68.500000	12.440000	827.000000	0.000000	125.000000	64.000000	7.000000	0.000000
1.820000	68.500000	12.490000	830.000000	0.000000	125.000000	64.000000	0.000000	5.000000
1.830000	68.430000	12.490000	832.000000	0.000000	125.000000	64.000000	-7.000000	0.000000
1.840000	68.340000	12.270000	832.000000	0.000000	124.000000	63.000000	-9.000000	-22.000000
1.850000	68.210000	11.990000	832.000000	0.000000	124.000000	63.000000	-13.000000	-28.000000
1.860000	68.100000	11.740000	826.000000	0.000000	124.000000	63.000000	-11.000000	-25.000000
1.870000	68.020000	11.490000	826.000000	0.000000	124.000000	63.000000	-8.000000	-25.000000
1.880000	68.020000	11.300000	824.000000	0.000000	124.000000	63.000000	0.000000	-19.000000
1.890000	68.130000	11.170000	818.000000	0.000000	125.000000	64.000000	11.000000	-13.000000
1.900000	68.270000	11.170000	817.000000	0.000000	125.000000	64.000000	14.000000	0.000000
1.910000	68.460000	11.170000	814.000000	0.000000	125.000000	64.000000	19.000000	0.000000
1.920000	68.910000	11.300000	809.000000	0.000000	125.000000	64.000000	45.000000	13.000000
1.930000	69.530000	11.740000	791.000000	0.000000	125.000000	64.000000	62.000000	44.000000
1.940000	70.010000	12.160000	796.000000	0.000000	125.000000	64.000000	48.000000	42.000000
1.950000	70.280000	12.380000	776.000000	0.000000	125.000000	64.000000	27.000000	22.000000
1.960000	70.400000	12.480000	763.000000	0.000000	125.000000	64.000000	12.000000	10.000000
1.970000	70.400000	12.480000	751.000000	0.000000	124.000000	63.000000	0.000000	0.000000
1.980000	70.400000	12.410000	760.000000	0.000000	125.000000	64.000000	0.000000	-7.000000
1.990000	70.290000	12.320000	759.000000	0.000000	125.000000	64.000000	-11.000000	-9.000000
2.000000	70.290000	12.230000	754.000000	0.000000	127.000000	63.000000	0.000000	-9.000000
2.010000	70.230000	12.150000	759.000000	0.000000	127.000000	63.000000	-6.000000	-8.000000
2.020000	70.230000	11.890000	768.000000	0.000000	127.000000	63.000000	0.000000	-26.000000
2.030000	70.230000	11.570000	787.000000	0.000000	127.000000	63.000000	0.000000	-32.000000
2.040000	70.330000	11.140000	818.000000	0.000000	127.000000	63.000000	10.000000	-43.000000
2.050000	70.280000	10.650000	836.000000	0.000000	127.000000	63.000000	-5.000000	-49.000000
2.060000	70.160000	10.150000	858.000000	0.000000	127.000000	63.000000	-12.000000	-50.000000
2.070000	69.900000	9.630000	909.000000	0.000000	127.000000	63.000000	-26.000000	-52.000000
2.080000	69.480000	8.970000	935.000000	0.000000	127.000000	63.000000	-42.000000	-66.000000
2.090000	68.940000	8.220000	938.000000	0.000000	129.000000	63.000000	-54.000000	-75.000000
2.100000	68.310000	7.630000	938.000000	0.000000	129.000000	63.000000	-63.000000	-59.000000
2.110000	67.730000	7.050000	951.000000	0.000000	130.000000	62.000000	-58.000000	-58.000000
2.120000	67.130000	6.480000	923.000000	0.000000	130.000000	62.000000	-60.000000	-57.000000
2.130000	66.510000	5.950000	899.000000	0.000000	132.000000	63.000000	-62.000000	-53.000000
2.140000	66.070000	5.660000	908.000000	0.000000	133.000000	62.000000	-44.000000	-29.000000
2.150000	65.920000	5.530000	864.000000	0.000000	132.000000	63.000000	-15.000000	-13.000000
2.160000	65.920000	5.530000	853.000000	0.000000	133.000000	63.000000	0.000000	0.000000
2.170000	65.990000	5.670000	860.000000	0.000000	133.000000	63.000000	7.000000	14.000000
2.180000	66.290000	5.820000	827.000000	0.000000	133.000000	65.000000	30.000000	15.000000
2.190000	66.760000	6.480000	797.000000	0.000000	133.000000	65.000000	47.000000	66.000000
2.200000	67.820000	7.440000	797.000000	0.000000	133.000000	65.000000	106.000000	96.000000
