t	x	y	pressure	penup	azimuth	inclination	v_x	v_y
0.000000	51.450000	63.340000	183.000000	1.000000	147.000000	49.000000	0.000000	0.000000
0.010000	51.480000	62.180000	226.000000	0.000000	148.000000	50.000000	3.000000	-116.000000
0.020000	50.930000	61.880000	241.000000	0.000000	149.000000	51.000000	-55.000000	-30.000000
0.030000	50.710000	61.680000	282.000000	0.000000	149.000000	51.000000	-22.000000	-20.000000
0.040000	50.490000	61.310000	364.000000	0.000000	149.000000	52.000000	-22.000000	-37.000000
0.050000	50.490000	61.220000	468.000000	0.000000	150.000000	52.000000	0.000000	-9.000000
0.060000	50.580000	61.330000	541.000000	0.000000	150.000000	52.000000	9.000000	11.000000
0.070000	50.580000	61.450000	597.000000	0.000000	150.000000	52.000000	0.000000	12.000000
0.080000	50.700000	61.740000	659.000000	0.000000	150.000000	52.000000	12.000000	29.000000
0.090000	50.910000	62.140000	676.000000	0.000000	149.000000	52.000000	21.000000	40.000000
0.100000	51.230000	63.030000	697.000000	0.000000	149.000000	52.000000	32.000000	89.000000
0.110000	51.700000	64.360000	714.000000	0.000000	149.000000	52.000000	47.000000	133.000000
0.120000	52.250000	65.980000	722.000000	0.000000	148.000000	51.000000	55.000000	162.000000
0.130000	52.810000	67.700000	714.000000	0.000000	148.000000	51.000000	56.000000	172.000000
0.140000	53.350000	69.640000	696.000000	0.000000	148.000000	51.000000	54.000000	194.000000
0.150000	53.850000	71.730000	688.000000	0.000000	150.000000	51.000000	50.000000	209.000000
0.160000	54.260000	73.440000	681.000000	0.000000	151.000000	50.000000	41.000000	171.000000
0.170000	54.600000	74.450000	687.000000	0.000000	153.000000	50.000000	34.000000	101.000000
0.180000	54.710000	75.000000	670.000000	0.000000	154.000000	49.000000	11.000000	55.000000
0.190000	54.710000	74.750000	658.000000	0.000000	157.000000	48.000000	0.000000	-25.000000
0.200000	54.570000	74.000000	667.000000	0.000000	157.000000	47.000000	-14.000000	-75.000000
0.210000	54.500000	72.910000	663.000000	0.000000	159.000000	46.000000	-7.000000	-109.000000
0.220000	54.400000	71.140000	666.000000	0.000000	160.000000	45.000000	-10.000000	-177.000000
0.230000	54.320000	68.980000	673.000000	0.000000	160.000000	45.000000	-8.000000	-216.000000
0.240000	54.270000	66.550000	679.000000	0.000000	159.000000	46.000000	-5.000000	-243.000000
0.250000	54.460000	64.760000	682.000000	0.000000	158.000000	47.000000	19.000000	-179.000000
0.260000	54.710000	63.500000	693.000000	0.000000	158.000000	48.000000	25.000000	-126.000000
0.270000	54.930000	62.590000	691.000000	0.000000	157.000000	49.000000	22.000000	-91.000000
0.280000	55.120000	62.190000	696.000000	0.000000	156.000000	50.000000	19.000000	-40.000000
0.290000	55.300000	62.110000	727.000000	0.000000	155.000000	50.000000	18.000000	-8.000000
0.300000	55.410000	62.250000	731.000000	0.000000	155.000000	51.000000	11.000000	14.000000
0.310000	55.460000	62.670000	739.000000	0.000000	154.000000	52.000000	5.000000	42.000000
0.320000	55.720000	63.510000	740.000000	0.000000	153.000000	53.000000	26.000000	84.000000
0.330000	56.080000	64.640000	733.000000	0.000000	153.000000	53.000000	36.000000	113.000000
0.340000	56.510000	65.740000	730.000000	0.000000	153.000000	53.000000	43.000000	110.000000
0.350000	56.760000	66.790000	721.000000	0.000000	153.000000	53.000000	25.000000	105.000000
0.360000	57.010000	67.770000	727.000000	0.000000	153.000000	53.000000	25.000000	98.000000
0.370000	57.260000	68.690000	716.000000	0.000000	154.000000	53.000000	25.000000	92.000000
0.380000	57.510000	69.590000	708.000000	0.000000	154.000000	53.000000	25.000000	90.000000
0.390000	57.710000	70.340000	696.000000	0.000000	155.000000	52.000000	20.000000	75.000000
0.400000	57.870000	70.670000	684.000000	0.000000	156.000000	53.000000	16.000000	33.000000
0.410000	57.870000	70.730000	647.000000	0.000000	157.000000	52.000000	0.000000	6.000000
0.420000	57.790000	70.590000	641.000000	0.000000	157.000000	52.000000	-8.000000	-14.000000
0.430000	57.670000	70.060000	640.000000	0.000000	158.000000	51.000000	-12.000000	-53.000000
0.440000	57.390000	69.270000	644.000000	0.000000	158.000000	51.000000	-28.000000	-79.000000
0.450000	57.100000	68.170000	640.000000	0.000000	158.000000	51.000000	-29.000000	-110.000000
0.460000	56.800000	67.420000	645.000000	0.000000	158.000000	51.000000	-30.000000	-75.000000
0.470000	56.730000	66.900000	628.000000	0.000000	157.000000	52.000000	-7.000000	-52.000000
0.480000	56.730000	66.700000	611.000000	0.000000	156.000000	53.000000	0.000000	-20.000000
0.490000	56.970000	66.910000	588.000000	0.000000	156.000000	53.000000	24.000000	21.000000
0.500000	57.380000	67.390000	545.000000	0.000000	154.000000	53.000000	41.000000	48.000000
0.510000	58.020000	68.390000	538.000000	0.000000	153.000000	54.000000	64.000000	100.000000
0.520000	58.490000	69.450000	539.000000	0.000000	153.000000	54.000000	47.000000	106.000000
0.530000	58.850000	70.560000	561.000000	0.000000	153.000000	54.000000	36.000000	111.000000
0.540000	58.910000	70.740000	563.000000	0.000000	154.000000	53.000000	6.000000	18.000000
0.550000	58.910000	70.680000	564.000000	0.000000	156.000000	53.000000	0.000000	-6.000000
0.560000	58.790000	70.450000	567.000000	0.000000	156.000000	53.000000	-12.000000	-23.000000
0.570000	58.700000	70.330000	569.000000	0.000000	157.000000	52.000000	-9.000000	-12.000000
0.580000	58.650000	70.240000	567.000000	0.000000	158.000000	51.000000	-5.000000	-9.000000
0.590000	58.650000	70.160000	554.000000	0.000000	157.000000	51.000000	0.000000	-8.000000
0.600000	58.650000	70.090000	546.000000	0.000000	157.000000	51.000000	0.000000	-7.000000
0.610000	58.650000	70.040000	538.000000	0.000000	157.000000	50.000000	0.000000	-5.000000
0.620000	58.650000	70.040000	530.000000	0.000000	155.000000	50.000000	0.000000	0.000000
0.630000	58.560000	69.840000	537.000000	0.000000	155.000000	50.000000	-9.000000	-20.000000
0.640000	58.430000	69.620000	537.000000	0.000000	155.000000	50.000000	-13.000000	-22.000000
0.650000	58.250000	69.290000	538.000000	0.000000	154.000000	50.000000	-18.000000	-33.000000
0.660000	58.030000	68.910000	541.000000	0.000000	155.000000	50.000000	-22.000000	-38.000000
0.670000	57.920000	68.660000	544.000000	0.000000	155.000000	50.000000	-11.000000	-25.000000
0.680000	57.860000	68.530000	544.000000	0.000000	155.000000	51.000000	-6.000000	-13.000000
0.690000	57.860000	68.470000	546.000000	0.000000	156.000000	51.000000	0.000000	-6.000000
0.700000	58.000000	68.560000	536.000000	0.000000	156.000000	51.000000	14.000000	9.000000
0.710000	58.130000	68.860000	542.000000	0.000000	156.000000	51.000000	13.000000	30.000000
0.720000	58.260000	69.290000	554.000000	0.000000	156.000000	51.000000	13.000000	43.000000
0.730000	58.360000	69.650000	561.000000	0.000000	156.000000	51.000000	10.000000	36.000000
0.740000	58.360000	69.960000	561.000000	0.000000	156.000000	51.000000	0.000000	31.000000
0.750000	58.160000	70.200000	570.000000	0.000000	156.000000	51.000000	-20.000000	24.000000
0.760000	58.160000	70.440000	574.000000	0.000000	156.000000	51.000000	0.000000	24.000000
0.770000	58.160000	70.700000	569.000000	0.000000	155.000000	50.000000	0.000000	26.000000
0.780000	58.160000	70.990000	567.000000	0.000000	154.000000	50.000000	0.000000	29.000000
0.790000	58.230000	71.310000	561.000000	0.000000	155.000000	49.000000	7.000000	32.000000
0.800000	58.300000	71.620000	563.000000	0.000000	155.000000	49.000000	7.000000	31.000000
0.810000	58.380000	71.890000	572.000000	0.000000	154.000000	49.000000	8.000000	27.000000
0.820000	58.380000	72.010000	591.000000	0.000000	155.000000	48.000000	0.000000	12.000000
0.830000	58.380000	72.010000	597.000000	0.000000	155.000000	48.000000	0.000000	0.000000
0.840000	58.320000	72.010000	606.000000	0.000000	155.000000	48.000000	-6.000000	0.000000
0.850000	58.320000	71.890000	609.000000	0.000000	156.000000	48.000000	0.000000	-12.000000
0.860000	58.130000	71.560000	616.000000	0.000000	156.000000	48.000000	-19.000000	-33.000000
0.870000	57.910000	71.070000	611.000000	0.000000	156.000000	48.000000	-22.000000	-49.000000
0.880000	57.510000	70.190000	613.000000	0.000000	157.000000	49.000000	-40.000000	-88.000000
0.890000	57.150000	69.060000	620.000000	0.000000	157.000000	49.000000	-36.000000	-113.000000
0.900000	56.840000	67.760000	628.000000	0.000000	156.000000	50.000000	-31.000000	-130.000000
0.910000	56.550000	66.260000	630.000000	0.000000	155.000000	50.000000	-29.000000	-150.000000
0.920000	56.370000	65.150000	631.000000	0.000000	157.000000	51.000000	-18.000000	-111.000000
0.930000	56.270000	64.310000	633.000000	0.000000	156.000000	51.000000	-10.000000	-84.000000
0.940000	56.530000	63.890000	634.000000	0.000000	155.000000	52.000000	26.000000	-42.000000
0.950000	56.820000	63.810000	631.000000	0.000000	155.000000	52.000000	29.000000	-8.000000
0.960000	57.270000	63.970000	619.000000	0.000000	154.000000	53.000000	45.000000	16.000000
0.970000	57.800000	64.560000	616.000000	0.000000	154.000000	53.000000	53.000000	59.000000
0.980000	58.380000	65.360000	616.000000	0.000000	154.000000	53.000000	58.000000	80.000000
0.990000	58.780000	66.300000	614.000000	0.000000	154.000000	53.000000	40.000000	94.000000
1.000000	59.050000	67.070000	617.000000	0.000000	154.000000	53.000000	27.000000	77.000000
1.010000	59.210000	67.790000	616.000000	0.000000	156.000000	53.000000	16.000000	72.000000
1.020000	59.300000	68.340000	616.000000	0.000000	157.000000	54.000000	9.000000	55.000000
1.030000	59.300000	68.800000	611.000000	0.000000	157.000000	54.000000	0.000000	46.000000
1.040000	59.350000	69.080000	613.000000	0.000000	158.000000	54.000000	5.000000	28.000000
1.050000	59.350000	68.970000	603.000000	0.000000	158.000000	54.000000	0.000000	-11.000000
1.060000	59.290000	68.590000	603.000000	0.000000	160.000000	54.000000	-6.000000	-38.000000
1.070000	59.100000	67.800000	602.000000	0.000000	160.000000	53.000000	-19.000000	-79.000000
1.080000	58.910000	67.050000	602.000000	0.000000	160.000000	53.000000	-19.000000	-75.000000
1.090000	58.740000	66.320000	602.000000	0.000000	160.000000	53.000000	-17.000000	-73.000000
1.100000	58.540000	65.680000	603.000000	0.000000	160.000000	54.000000	-20.000000	-64.000000
1.110000	58.330000	65.200000	606.000000	0.000000	158.000000	54.000000	-21.000000	-48.000000
1.120000	58.390000	64.840000	611.000000	0.000000	157.000000	54.000000	6.000000	-36.000000
1.130000	58.490000	64.670000	606.000000	0.000000	155.000000	54.000000	10.000000	-17.000000
1.140000	58.630000	64.670000	616.000000	0.000000	153.000000	54.000000	14.000000	0.000000
1.150000	58.770000	64.800000	616.000000	0.000000	152.000000	54.000000	14.000000	13.000000
1.160000	59.100000	65.200000	606.000000	0.000000	151.000000	53.000000	33.000000	40.000000
1.170000	59.570000	65.840000	602.000000	0.000000	151.000000	53.000000	47.000000	64.000000
1.180000	60.140000	66.650000	603.000000	0.000000	152.000000	54.000000	57.000000	81.000000
1.190000	60.480000	67.360000	609.000000	0.000000	153.000000	54.000000	34.000000	71.000000
1.200000	60.670000	67.890000	614.000000	0.000000	155.000000	54.000000	19.000000	53.000000
1.210000	60.760000	68.310000	631.000000	0.000000	156.000000	55.000000	9.000000	42.000000
1.220000	60.760000	68.520000	636.000000	0.000000	158.000000	55.000000	0.000000	21.000000
1.230000	60.690000	68.520000	638.000000	0.000000	160.000000	55.000000	-7.000000	0.000000
1.240000	60.620000	68.350000	642.000000	0.000000	163.000000	55.000000	-7.000000	-17.000000
1.250000	60.550000	68.110000	645.000000	0.000000	163.000000	55.000000	-7.000000	-24.000000
1.260000	60.390000	67.510000	642.000000	0.000000	163.000000	55.000000	-16.000000	-60.000000
1.270000	60.180000	66.660000	634.000000	0.000000	163.000000	55.000000	-21.000000	-85.000000
1.280000	59.980000	66.010000	636.000000	0.000000	163.000000	55.000000	-20.000000	-65.000000
1.290000	59.980000	65.640000	631.000000	0.000000	163.000000	55.000000	0.000000	-37.000000
1.300000	60.070000	65.450000	628.000000	0.000000	162.000000	56.000000	9.000000	-19.000000
1.310000	60.230000	65.450000	631.000000	0.000000	162.000000	56.000000	16.000000	0.000000
1.320000	60.420000	65.710000	625.000000	0.000000	162.000000	56.000000	19.000000	26.000000
1.330000	60.680000	66.110000	624.000000	0.000000	161.000000	57.000000	26.000000	40.000000
1.340000	61.000000	66.650000	622.000000	0.000000	161.000000	57.000000	32.000000	54.000000
1.350000	61.310000	67.150000	628.000000	0.000000	161.000000	57.000000	31.000000	50.000000
1.360000	61.610000	67.570000	631.000000	0.000000	160.000000	56.000000	30.000000	42.000000
1.370000	61.900000	67.910000	639.000000	0.000000	160.000000	56.000000	29.000000	34.000000
1.380000	62.200000	68.170000	639.000000	0.000000	160.000000	55.000000	30.000000	26.000000
1.390000	62.400000	68.350000	639.000000	0.000000	159.000000	55.000000	20.000000	18.000000
1.400000	62.540000	68.460000	622.000000	0.000000	159.000000	55.000000	14.000000	11.000000
1.410000	62.490000	68.460000	620.000000	0.000000	160.000000	54.000000	-5.000000	0.000000
1.420000	62.310000	68.280000	620.000000	0.000000	160.000000	54.000000	-18.000000	-18.000000
1.430000	62.040000	67.900000	622.000000	0.000000	160.000000	54.000000	-27.000000	-38.000000
1.440000	61.570000	67.490000	625.000000	0.000000	160.000000	54.000000	-47.000000	-41.000000
1.450000	61.110000	66.870000	636.000000	0.000000	160.000000	54.000000	-46.000000	-62.000000
1.460000	60.740000	66.120000	639.000000	0.000000	160.000000	54.000000	-37.000000	-75.000000
1.470000	60.420000	65.670000	638.000000	0.000000	159.000000	55.000000	-32.000000	-45.000000
1.480000	60.480000	65.380000	622.000000	0.000000	159.000000	55.000000	6.000000	-29.000000
1.490000	60.610000	65.200000	617.000000	0.000000	158.000000	56.000000	13.000000	-18.000000
1.500000	60.870000	65.280000	606.000000	0.000000	158.000000	56.000000	26.000000	8.000000
1.510000	61.340000	65.610000	591.000000	0.000000	158.000000	56.000000	47.000000	33.000000
1.520000	61.950000	66.100000	586.000000	0.000000	158.000000	56.000000	61.000000	49.000000
1.530000	62.450000	66.770000	586.000000	0.000000	158.000000	56.000000	50.000000	67.000000
1.540000	62.800000	67.430000	594.000000	0.000000	158.000000	56.000000	35.000000	66.000000
1.550000	63.060000	67.930000	597.000000	0.000000	158.000000	56.000000	26.000000	50.000000
1.560000	63.140000	68.330000	605.000000	0.000000	157.000000	56.000000	8.000000	40.000000
1.570000	63.140000	68.630000	614.000000	0.000000	157.000000	56.000000	0.000000	30.000000
1.580000	63.140000	68.680000	617.000000	0.000000	158.000000	55.000000	0.000000	5.000000
1.590000	63.080000	68.570000	620.000000	0.000000	158.000000	55.000000	-6.000000	-11.000000
1.600000	63.080000	68.320000	617.000000	0.000000	158.000000	54.000000	0.000000	-25.000000
1.610000	62.960000	67.870000	592.000000	0.000000	158.000000	54.000000	-12.000000	-45.000000
1.620000	62.820000	67.300000	584.000000	0.000000	158.000000	54.000000	-14.000000	-57.000000
1.630000	62.690000	66.730000	578.000000	0.000000	158.000000	54.000000	-13.000000	-57.000000
1.640000	62.620000	66.330000	570.000000	0.000000	158.000000	54.000000	-7.000000	-40.000000
1.650000	62.670000	66.050000	561.000000	0.000000	158.000000	55.000000	5.000000	-28.000000
1.660000	62.730000	65.970000	574.000000	0.000000	158.000000	55.000000	6.000000	-8.000000
1.670000	62.920000	66.030000	578.000000	0.000000	157.000000	56.000000	19.000000	6.000000
1.680000	63.180000	66.190000	569.000000	0.000000	157.000000	56.000000	26.000000	16.000000
1.690000	63.630000	66.590000	570.000000	0.000000	156.000000	57.000000	45.000000	40.000000
1.700000	64.120000	67.090000	565.000000	0.000000	154.000000	56.000000	49.000000	50.000000
1.710000	64.540000	67.660000	565.000000	0.000000	154.000000	56.000000	42.000000	57.000000
1.720000	64.890000	67.970000	565.000000	0.000000	154.000000	56.000000	35.000000	31.000000
1.730000	65.060000	68.220000	564.000000	0.000000	155.000000	55.000000	17.000000	25.000000
1.740000	65.150000	68.380000	565.000000	0.000000	155.000000	55.000000	9.000000	16.000000
1.750000	65.150000	68.380000	568.000000	0.000000	155.000000	55.000000	0.000000	0.000000
1.760000	65.150000	68.380000	560.000000	0.000000	156.000000	55.000000	0.000000	0.000000
1.770000	65.100000	68.260000	563.000000	0.000000	156.000000	55.000000	-5.000000	-12.000000
1.780000	64.930000	68.000000	563.000000	0.000000	156.000000	55.000000	-17.000000	-26.000000
1.790000	64.670000	67.640000	561.000000	0.000000	157.000000	54.000000	-26.000000	-36.000000
1.800000	64.430000	67.250000	561.000000	0.000000	156.000000	55.000000	-24.000000	-39.000000
1.810000	64.230000	66.960000	570.000000	0.000000	156.000000	55.000000	-20.000000	-29.000000
1.820000	64.230000	66.730000	512.000000	0.000000	156.000000	55.000000	0.000000	-23.000000
1.830000	64.380000	66.610000	399.000000	0.000000	155.000000	55.000000	15.000000	-12.000000
1.840000	64.730000	66.690000	65.000000	0.000000	155.000000	55.000000	35.000000	8.000000
1.850000	64.730000	66.690000	0.000000	1.000000	154.000000	56.000000	0.000000	0.000000
1.860000	65.950000	67.290000	0.000000	0.000000	154.000000	56.000000	122.000000	60.000000
1.870000	66.600000	67.610000	0.000000	0.000000	154.000000	56.000000	65.000000	32.000000
1.880000	67.040000	67.880000	0.000000	0.000000	154.000000	56.000000	44.000000	27.000000
1.890000	67.330000	67.880000	0.000000	0.000000	156.000000	57.000000	29.000000	0.000000
1.900000	67.540000	67.800000	0.000000	0.000000	156.000000	57.000000	21.000000	-8.000000
1.910000	67.710000	67.680000	0.000000	0.000000	157.000000	56.000000	17.000000	-12.000000
1.920000	67.840000	67.590000	0.000000	0.000000	158.000000	56.000000	13.000000	-9.000000
1.930000	67.960000	67.590000	0.000000	0.000000	158.000000	56.000000	12.000000	0.000000
1.940000	68.130000	67.700000	0.000000	0.000000	160.000000	56.000000	17.000000	11.000000
1.950000	68.340000	67.810000	0.000000	0.000000	160.000000	56.000000	21.000000	11.000000
1.960000	68.710000	67.900000	0.000000	0.000000	161.000000	57.000000	37.000000	9.000000
1.970000	68.990000	67.960000	0.000000	0.000000	161.000000	57.000000	28.000000	6.000000
1.980000	69.220000	68.010000	0.000000	0.000000	162.000000	56.000000	23.000000	5.000000
1.990000	69.400000	68.110000	0.000000	0.000000	162.000000	56.000000	18.000000	10.000000
2.000000	69.480000	68.240000	0.000000	0.000000	162.000000	56.000000	8.000000	13.000000
2.010000	69.480000	68.310000	0.000000	0.000000	163.000000	55.000000	0.000000	7.000000
2.020000	69.480000	68.360000	0.000000	0.000000	161.000000	55.000000	0.000000	5.000000
2.030000	69.290000	68.360000	0.000000	0.000000	161.000000	55.000000	-19.000000	0.000000
2.040000	69.040000	68.240000	0.000000	0.000000	161.000000	55.000000	-25.000000	-12.000000
2.050000	68.750000	68.080000	0.000000	0.000000	161.000000	55.000000	-29.000000	-16.000000
2.060000	68.490000	67.920000	0.000000	0.000000	161.000000	55.000000	-26.000000	-16.000000
2.070000	68.270000	67.740000	0.000000	0.000000	160.000000	55.000000	-22.000000	-18.000000
2.080000	68.110000	67.650000	0.000000	0.000000	160.000000	55.000000	-16.000000	-9.000000
2.090000	67.950000	67.650000	0.000000	0.000000	160.000000	56.000000	-16.000000	0.000000
2.100000	67.800000	67.650000	0.000000	0.000000	160.000000	56.000000	-15.000000	0.000000
2.110000	67.660000	67.650000	0.000000	0.000000	160.000000	56.000000	-14.000000	0.000000
2.120000	67.590000	67.650000	0.000000	0.000000	159.000000	57.000000	-7.000000	0.000000
2.130000	67.590000	67.480000	0.000000	0.000000	159.000000	57.000000	0.000000	-17.000000
2.140000	67.590000	67.480000	119.000000	1.000000	159.000000	57.000000	0.000000	0.000000
2.150000	67.710000	67.070000	334.000000	0.000000	157.000000	57.000000	12.000000	-41.000000
2.160000	67.710000	67.070000	394.000000	0.000000	157.000000	57.000000	0.000000	0.000000
2.170000	67.710000	67.200000	471.000000	0.000000	157.000000	57.000000	0.000000	13.000000
2.180000	67.760000	67.310000	522.000000	0.000000	157.000000	57.000000	5.000000	11.000000
2.190000	68.040000	67.700000	546.000000	0.000000	157.000000	57.000000	28.000000	39.000000
2.200000	68.450000	68.280000	554.000000	0.000000	156.000000	57.000000	41.000000	58.000000
