t	x	y	pressure	penup	azimuth	inclination	v_x	v_y
0.000000	8.630000	76.090000	3.000000	1.000000	129.000000	59.000000	0.000000	0.000000
0.010000	8.680000	75.910000	29.000000	1.000000	129.000000	59.000000	0.000000	0.000000
0.020000	8.680000	75.910000	53.000000	0.000000	129.000000	59.000000	0.000000	0.000000
0.030000	8.680000	75.850000	51.000000	0.000000	129.000000	59.000000	0.000000	-6.000000
0.040000	8.680000	75.850000	78.000000	0.000000	129.000000	59.000000	0.000000	0.000000
0.050000	8.680000	75.780000	94.000000	0.000000	129.000000	59.000000	0.000000	-7.000000
0.060000	8.680000	75.780000	98.000000	0.000000	128.000000	58.000000	0.000000	0.000000
0.070000	8.680000	75.780000	110.000000	0.000000	128.000000	58.000000	0.000000	0.000000
0.080000	8.630000	75.780000	132.000000	0.000000	128.000000	58.000000	-5.000000	0.000000
0.090000	8.630000	75.780000	142.000000	0.000000	127.000000	57.000000	0.000000	0.000000
0.100000	8.630000	75.780000	139.000000	0.000000	127.000000	57.000000	0.000000	0.000000
0.110000	8.630000	75.780000	151.000000	0.000000	126.000000	57.000000	0.000000	0.000000
0.120000	8.630000	75.780000	168.000000	0.000000	126.000000	57.000000	0.000000	0.000000
0.130000	8.630000	75.780000	177.000000	0.000000	125.000000	56.000000	0.000000	0.000000
0.140000	8.630000	75.780000	170.000000	0.000000	125.000000	56.000000	0.000000	0.000000
0.150000	8.630000	75.780000	186.000000	0.000000	124.000000	55.000000	0.000000	0.000000
0.160000	8.630000	75.780000	212.000000	0.000000	123.000000	55.000000	0.000000	0.000000
0.170000	8.630000	75.780000	214.000000	0.000000	122.000000	54.000000	0.000000	0.000000
0.180000	8.630000	75.780000	237.000000	0.000000	121.000000	53.000000	0.000000	0.000000
0.190000	8.630000	75.780000	245.000000	0.000000	121.000000	53.000000	0.000000	0.000000
0.200000	8.630000	75.780000	267.000000	0.000000	120.000000	52.000000	0.000000	0.000000
0.210000	8.630000	75.780000	287.000000	0.000000	120.000000	52.000000	0.000000	0.000000
0.220000	8.630000	75.780000	294.000000	0.000000	120.000000	52.000000	0.000000	0.000000
0.230000	8.830000	76.050000	309.000000	0.000000	118.000000	53.000000	20.000000	27.000000
0.240000	8.930000	76.280000	322.000000	0.000000	118.000000	53.000000	10.000000	23.000000
0.250000	9.080000	76.580000	339.000000	0.000000	118.000000	53.000000	15.000000	30.000000
0.260000	9.370000	77.070000	341.000000	0.000000	118.000000	53.000000	29.000000	49.000000
0.270000	9.750000	77.710000	353.000000	0.000000	118.000000	53.000000	38.000000	64.000000
0.280000	10.240000	78.440000	363.000000	0.000000	119.000000	53.000000	49.000000	73.000000
0.290000	10.830000	79.440000	362.000000	0.000000	121.000000	53.000000	59.000000	100.000000
0.300000	11.480000	80.580000	362.000000	0.000000	121.000000	53.000000	65.000000	114.000000
0.310000	11.900000	81.820000	364.000000	0.000000	122.000000	53.000000	42.000000	124.000000
0.320000	12.260000	82.880000	369.000000	0.000000	122.000000	53.000000	36.000000	106.000000
0.330000	12.580000	83.940000	369.000000	0.000000	123.000000	52.000000	32.000000	106.000000
0.340000	12.870000	85.030000	372.000000	0.000000	124.000000	53.000000	29.000000	109.000000
0.350000	13.140000	86.140000	381.000000	0.000000	124.000000	53.000000	27.000000	111.000000
0.360000	13.390000	86.850000	381.000000	0.000000	124.000000	53.000000	25.000000	71.000000
0.370000	13.580000	87.350000	384.000000	0.000000	124.000000	53.000000	19.000000	50.000000
0.380000	13.690000	87.710000	386.000000	0.000000	124.000000	53.000000	11.000000	36.000000
0.390000	13.740000	87.900000	387.000000	0.000000	124.000000	53.000000	5.000000	19.000000
0.400000	13.800000	88.070000	389.000000	0.000000	124.000000	53.000000	6.000000	17.000000
0.410000	13.850000	88.230000	387.000000	0.000000	124.000000	53.000000	5.000000	16.000000
0.420000	13.850000	88.310000	387.000000	0.000000	125.000000	53.000000	0.000000	8.000000
0.430000	13.850000	88.310000	379.000000	0.000000	125.000000	53.000000	0.000000	0.000000
0.440000	13.850000	88.310000	371.000000	0.000000	125.000000	53.000000	0.000000	0.000000
0.450000	13.850000	88.310000	373.000000	0.000000	125.000000	53.000000	0.000000	0.000000
0.460000	13.850000	88.260000	364.000000	0.000000	127.000000	52.000000	0.000000	-5.000000
0.470000	13.760000	87.920000	359.000000	0.000000	127.000000	52.000000	-9.000000	-34.000000
0.480000	13.630000	87.410000	356.000000	0.000000	127.000000	52.000000	-13.000000	-51.000000
0.490000	13.490000	86.610000	353.000000	0.000000	127.000000	52.000000	-14.000000	-80.000000
0.500000	13.330000	85.600000	333.000000	0.000000	127.000000	52.000000	-16.000000	-101.000000
0.510000	13.160000	84.440000	339.000000	0.000000	127.000000	52.000000	-17.000000	-116.000000
0.520000	13.010000	83.370000	327.000000	0.000000	125.000000	53.000000	-15.000000	-107.000000
0.530000	12.880000	82.280000	312.000000	0.000000	125.000000	53.000000	-13.000000	-109.000000
0.540000	12.760000	81.280000	307.000000	0.000000	125.000000	53.000000	-12.000000	-100.000000
0.550000	12.640000	80.360000	309.000000	0.000000	125.000000	53.000000	-12.000000	-92.000000
0.560000	12.570000	79.610000	305.000000	0.000000	124.000000	52.000000	-7.000000	-75.000000
0.570000	12.520000	78.960000	309.000000	0.000000	124.000000	52.000000	-5.000000	-65.000000
0.580000	12.470000	78.390000	307.000000	0.000000	123.000000	52.000000	-5.000000	-57.000000
0.590000	12.470000	78.000000	307.000000	0.000000	123.000000	52.000000	0.000000	-39.000000
0.600000	12.400000	77.720000	309.000000	0.000000	123.000000	52.000000	-7.000000	-28.000000
0.610000	12.350000	77.520000	305.000000	0.000000	122.000000	53.000000	-5.000000	-20.000000
0.620000	12.260000	77.420000	304.000000	0.000000	121.000000	52.000000	-9.000000	-10.000000
0.630000	12.140000	77.350000	275.000000	0.000000	121.000000	52.000000	-12.000000	-7.000000
0.640000	12.000000	77.300000	264.000000	0.000000	121.000000	52.000000	-14.000000	-5.000000
0.650000	11.870000	77.300000	254.000000	0.000000	120.000000	52.000000	-13.000000	0.000000
0.660000	11.740000	77.420000	246.000000	0.000000	120.000000	52.000000	-13.000000	12.000000
0.670000	11.590000	77.520000	240.000000	0.000000	120.000000	52.000000	-15.000000	10.000000
0.680000	11.430000	77.620000	239.000000	0.000000	120.000000	52.000000	-16.000000	10.000000
0.690000	11.280000	77.760000	239.000000	0.000000	120.000000	52.000000	-15.000000	14.000000
0.700000	11.160000	77.920000	247.000000	0.000000	120.000000	52.000000	-12.000000	16.000000
0.710000	11.090000	78.030000	251.000000	0.000000	121.000000	53.000000	-7.000000	11.000000
0.720000	11.090000	78.130000	247.000000	0.000000	122.000000	53.000000	0.000000	10.000000
0.730000	11.090000	78.220000	247.000000	0.000000	122.000000	53.000000	0.000000	9.000000
0.740000	11.200000	78.350000	247.000000	0.000000	122.000000	53.000000	11.000000	13.000000
0.750000	11.340000	78.480000	251.000000	0.000000	123.000000	52.000000	14.000000	13.000000
0.760000	11.490000	78.620000	249.000000	0.000000	123.000000	52.000000	15.000000	14.000000
0.770000	11.620000	78.700000	253.000000	0.000000	123.000000	52.000000	13.000000	8.000000
0.780000	11.810000	78.780000	256.000000	0.000000	124.000000	52.000000	19.000000	8.000000
0.790000	11.990000	78.850000	241.000000	0.000000	124.000000	52.000000	18.000000	7.000000
0.800000	12.180000	78.940000	245.000000	0.000000	124.000000	52.000000	19.000000	9.000000
0.810000	12.400000	79.040000	244.000000	0.000000	124.000000	52.000000	22.000000	10.000000
0.820000	12.630000	79.120000	244.000000	0.000000	124.000000	52.000000	23.000000	8.000000
0.830000	12.780000	79.190000	242.000000	0.000000	124.000000	52.000000	15.000000	7.000000
0.840000	12.890000	79.190000	254.000000	0.000000	124.000000	52.000000	11.000000	0.000000
0.850000	12.980000	79.240000	249.000000	0.000000	123.000000	52.000000	9.000000	5.000000
0.860000	12.980000	79.240000	239.000000	0.000000	123.000000	52.000000	0.000000	0.000000
0.870000	12.980000	79.240000	235.000000	0.000000	123.000000	52.000000	0.000000	0.000000
0.880000	12.980000	79.170000	235.000000	0.000000	122.000000	53.000000	0.000000	-7.000000
0.890000	12.870000	78.970000	242.000000	0.000000	122.000000	53.000000	-11.000000	-20.000000
0.900000	12.720000	78.670000	246.000000	0.000000	122.000000	53.000000	-15.000000	-30.000000
0.910000	12.610000	78.390000	251.000000	0.000000	122.000000	53.000000	-11.000000	-28.000000
0.920000	12.530000	78.170000	254.000000	0.000000	122.000000	53.000000	-8.000000	-22.000000
0.930000	12.530000	78.000000	254.000000	0.000000	123.000000	52.000000	0.000000	-17.000000
0.940000	12.530000	77.930000	245.000000	0.000000	123.000000	52.000000	0.000000	-7.000000
0.950000	12.530000	77.930000	254.000000	0.000000	123.000000	52.000000	0.000000	0.000000
0.960000	12.640000	77.870000	260.000000	0.000000	123.000000	52.000000	11.000000	-6.000000
0.970000	12.730000	77.870000	265.000000	0.000000	123.000000	52.000000	9.000000	0.000000
0.980000	12.730000	77.870000	265.000000	0.000000	123.000000	52.000000	0.000000	0.000000
0.990000	12.990000	78.130000	270.000000	0.000000	123.000000	52.000000	26.000000	26.000000
1.000000	13.140000	78.330000	270.000000	0.000000	123.000000	52.000000	15.000000	20.000000
1.010000	13.280000	78.530000	269.000000	0.000000	123.000000	52.000000	14.000000	20.000000
1.020000	13.420000	78.760000	265.000000	0.000000	123.000000	52.000000	14.000000	23.000000
1.030000	13.570000	79.060000	257.000000	0.000000	123.000000	52.000000	15.000000	30.000000
1.040000	13.720000	79.380000	252.000000	0.000000	125.000000	53.000000	15.000000	32.000000
1.050000	13.910000	79.770000	242.000000	0.000000	125.000000	53.000000	19.000000	39.000000
1.060000	14.070000	80.190000	253.000000	0.000000	125.000000	53.000000	16.000000	42.000000
1.070000	14.220000	80.630000	244.000000	0.000000	125.000000	53.000000	15.000000	44.000000
1.080000	14.380000	81.030000	239.000000	0.000000	127.000000	53.000000	16.000000	40.000000
1.090000	14.490000	81.390000	237.000000	0.000000	127.000000	53.000000	11.000000	36.000000
1.100000	14.570000	81.710000	235.000000	0.000000	127.000000	53.000000	8.000000	32.000000
1.110000	14.650000	81.980000	237.000000	0.000000	127.000000	53.000000	8.000000	27.000000
1.120000	14.700000	82.200000	242.000000	0.000000	128.000000	54.000000	5.000000	22.000000
1.130000	14.700000	82.330000	244.000000	0.000000	128.000000	54.000000	0.000000	13.000000
1.140000	14.770000	82.410000	246.000000	0.000000	129.000000	53.000000	7.000000	8.000000
1.150000	14.770000	82.480000	246.000000	0.000000	129.000000	53.000000	0.000000	7.000000
1.160000	14.770000	82.570000	247.000000	0.000000	129.000000	53.000000	0.000000	9.000000
1.170000	14.770000	82.630000	246.000000	0.000000	129.000000	53.000000	0.000000	6.000000
1.180000	14.770000	82.680000	247.000000	0.000000	129.000000	53.000000	0.000000	5.000000
1.190000	14.820000	82.680000	249.000000	0.000000	129.000000	53.000000	5.000000	0.000000
1.200000	14.820000	82.740000	249.000000	0.000000	129.000000	53.000000	0.000000	6.000000
1.210000	14.820000	82.840000	251.000000	0.000000	129.000000	53.000000	0.000000	10.000000
1.220000	14.920000	83.000000	253.000000	0.000000	129.000000	53.000000	10.000000	16.000000
1.230000	15.000000	83.110000	245.000000	0.000000	130.000000	54.000000	8.000000	11.000000
1.240000	15.050000	83.190000	252.000000	0.000000	130.000000	54.000000	5.000000	8.000000
1.250000	15.050000	83.190000	260.000000	0.000000	130.000000	54.000000	0.000000	0.000000
1.260000	15.050000	83.250000	269.000000	0.000000	130.000000	54.000000	0.000000	6.000000
1.270000	15.050000	83.250000	272.000000	0.000000	130.000000	54.000000	0.000000	0.000000
1.280000	15.050000	83.250000	274.000000	0.000000	130.000000	54.000000	0.000000	0.000000
1.290000	15.050000	83.300000	275.000000	0.000000	130.000000	54.000000	0.000000	5.000000
1.300000	15.050000	83.300000	279.000000	0.000000	130.000000	54.000000	0.000000	0.000000
1.310000	15.050000	83.300000	279.000000	0.000000	131.000000	54.000000	0.000000	0.000000
1.320000	15.050000	83.300000	280.000000	0.000000	131.000000	54.000000	0.000000	0.000000
1.330000	15.050000	83.300000	280.000000	0.000000	131.000000	54.000000	0.000000	0.000000
1.340000	15.050000	83.300000	277.000000	0.000000	131.000000	54.000000	0.000000	0.000000
1.350000	15.050000	83.300000	279.000000	0.000000	131.000000	54.000000	0.000000	0.000000
1.360000	15.050000	83.300000	275.000000	0.000000	131.000000	54.000000	0.000000	0.000000
1.370000	15.050000	83.300000	272.000000	0.000000	131.000000	54.000000	0.000000	0.000000
1.380000	15.050000	83.300000	267.000000	0.000000	131.000000	54.000000	0.000000	0.000000
1.390000	15.050000	83.300000	259.000000	0.000000	131.000000	54.000000	0.000000	0.000000
1.400000	15.050000	83.300000	247.000000	0.000000	131.000000	54.000000	0.000000	0.000000
1.410000	15.050000	83.300000	241.000000	0.000000	131.000000	54.000000	0.000000	0.000000
1.420000	15.050000	83.300000	256.000000	0.000000	131.000000	54.000000	0.000000	0.000000
1.430000	15.050000	83.250000	254.000000	0.000000	131.000000	54.000000	0.000000	-5.000000
1.440000	15.050000	83.250000	254.000000	0.000000	131.000000	54.000000	0.000000	0.000000
1.450000	15.050000	83.250000	253.000000	0.000000	131.000000	54.000000	0.000000	0.000000
1.460000	15.050000	83.250000	253.000000	0.000000	131.000000	54.000000	0.000000	0.000000
1.470000	15.050000	83.250000	254.000000	0.000000	131.000000	54.000000	0.000000	0.000000
1.480000	15.050000	83.250000	254.000000	0.000000	131.000000	54.000000	0.000000	0.000000
1.490000	15.050000	83.250000	254.000000	0.000000	131.000000	54.000000	0.000000	0.000000
1.500000	15.050000	83.250000	254.000000	0.000000	131.000000	54.000000	0.000000	0.000000
1.510000	15.050000	83.250000	254.000000	0.000000	131.000000	54.000000	0.000000	0.000000
1.520000	15.050000	83.250000	254.000000	0.000000	131.000000	54.000000	0.000000	0.000000
1.530000	15.050000	83.250000	254.000000	0.000000	131.000000	54.000000	0.000000	0.000000
1.540000	15.050000	83.250000	254.000000	0.000000	131.000000	54.000000	0.000000	0.000000
1.550000	15.050000	83.250000	254.000000	0.000000	131.000000	54.000000	0.000000	0.000000
1.560000	15.050000	83.250000	254.000000	0.000000	131.000000	54.000000	0.000000	0.000000
1.570000	15.050000	83.250000	256.000000	0.000000	131.000000	54.000000	0.000000	0.000000
1.580000	15.050000	83.250000	256.000000	0.000000	131.000000	54.000000	0.000000	0.000000
1.590000	15.050000	83.250000	254.000000	0.000000	131.000000	54.000000	0.000000	0.000000
1.600000	15.050000	83.250000	256.000000	0.000000	131.000000	54.000000	0.000000	0.000000
1.610000	15.050000	83.250000	254.000000	0.000000	131.000000	54.000000	0.000000	0.000000
1.620000	15.050000	83.250000	254.000000	0.000000	131.000000	54.000000	0.000000	0.000000
1.630000	15.050000	83.250000	256.000000	0.000000	131.000000	54.000000	0.000000	0.000000
1.640000	15.050000	83.250000	256.000000	0.000000	131.000000	54.000000	0.000000	0.000000
1.650000	15.050000	83.250000	256.000000	0.000000	131.000000	54.000000	0.000000	0.000000
1.660000	15.050000	83.250000	241.000000	0.000000	131.000000	54.000000	0.000000	0.000000
1.670000	15.050000	83.250000	241.000000	0.000000	131.000000	54.000000	0.000000	0.000000
1.680000	15.050000	83.250000	241.000000	0.000000	131.000000	54.000000	0.000000	0.000000
1.690000	15.050000	83.250000	242.000000	0.000000	131.000000	54.000000	0.000000	0.000000
1.700000	15.050000	83.250000	242.000000	0.000000	131.000000	54.000000	0.000000	0.000000
1.710000	15.050000	83.250000	242.000000	0.000000	131.000000	54.000000	0.000000	0.000000
1.720000	15.050000	83.250000	242.000000	0.000000	131.000000	54.000000	0.000000	0.000000
1.730000	15.050000	83.250000	242.000000	0.000000	131.000000	54.000000	0.000000	0.000000
1.740000	15.050000	83.250000	241.000000	0.000000	131.000000	54.000000	0.000000	0.000000
1.750000	15.050000	83.250000	244.000000	0.000000	131.000000	54.000000	0.000000	0.000000
1.760000	15.050000	83.250000	245.000000	0.000000	131.000000	54.000000	0.000000	0.000000
1.770000	15.050000	83.250000	249.000000	0.000000	131.000000	54.000000	0.000000	0.000000
1.780000	15.050000	83.250000	250.000000	0.000000	131.000000	54.000000	0.000000	0.000000
1.790000	15.050000	83.250000	255.000000	0.000000	131.000000	54.000000	0.000000	0.000000
1.800000	15.050000	83.250000	267.000000	0.000000	131.000000	54.000000	0.000000	0.000000
1.810000	15.050000	83.250000	277.000000	0.000000	131.000000	54.000000	0.000000	0.000000
1.820000	15.050000	83.250000	273.000000	0.000000	133.000000	54.000000	0.000000	0.000000
1.830000	15.250000	83.650000	282.000000	0.000000	133.000000	54.000000	20.000000	40.000000
1.840000	15.370000	83.870000	294.000000	0.000000	131.000000	55.000000	12.000000	22.000000
1.850000	15.500000	84.110000	299.000000	0.000000	131.000000	55.000000	13.000000	24.000000
1.860000	15.660000	84.370000	306.000000	0.000000	131.000000	55.000000	16.000000	26.000000
1.870000	15.830000	84.700000	307.000000	0.000000	132.000000	55.000000	17.000000	33.000000
1.880000	15.970000	85.030000	309.000000	0.000000	132.000000	55.000000	14.000000	33.000000
1.890000	16.120000	85.330000	311.000000	0.000000	132.000000	55.000000	15.000000	30.000000
1.900000	16.180000	85.610000	311.000000	0.000000	131.000000	56.000000	6.000000	28.000000
1.910000	16.180000	85.850000	311.000000	0.000000	131.000000	56.000000	0.000000	24.000000
1.920000	16.180000	86.000000	314.000000	0.000000	131.000000	56.000000	0.000000	15.000000
1.930000	16.180000	86.000000	307.000000	0.000000	131.000000	56.000000	0.000000	0.000000
1.940000	16.180000	86.000000	314.000000	0.000000	131.000000	56.000000	0.000000	0.000000
1.950000	16.180000	86.000000	324.000000	0.000000	131.000000	56.000000	0.000000	0.000000
1.960000	15.990000	85.520000	337.000000	0.000000	131.000000	56.000000	-19.000000	-48.000000
1.970000	15.760000	84.780000	344.000000	0.000000	131.000000	56.000000	-23.000000	-74.000000
1.980000	15.440000	83.800000	345.000000	0.000000	131.000000	56.000000	-32.000000	-98.000000
1.990000	15.160000	82.940000	339.000000	0.000000	131.000000	56.000000	-28.000000	-86.000000
2.000000	14.910000	82.070000	336.000000	0.000000	131.000000	56.000000	-25.000000	-87.000000
2.010000	14.700000	81.180000	333.000000	0.000000	131.000000	55.000000	-21.000000	-89.000000
2.020000	14.530000	80.440000	344.000000	0.000000	131.000000	55.000000	-17.000000	-74.000000
2.030000	14.440000	79.800000	337.000000	0.000000	130.000000	54.000000	-9.000000	-64.000000
2.040000	14.390000	79.340000	337.000000	0.000000	130.000000	54.000000	-5.000000	-46.000000
2.050000	14.390000	79.070000	339.000000	0.000000	129.000000	53.000000	0.000000	-27.000000
2.060000	14.390000	78.940000	329.000000	0.000000	128.000000	54.000000	0.000000	-13.000000
2.070000	14.390000	78.940000	322.000000	0.000000	128.000000	54.000000	0.000000	0.000000
2.080000	14.480000	78.990000	315.000000	0.000000	127.000000	53.000000	9.000000	5.000000
2.090000	14.590000	79.170000	312.000000	0.000000	127.000000	53.000000	11.000000	18.000000
2.100000	14.870000	79.670000	291.000000	0.000000	127.000000	53.000000	28.000000	50.000000
2.110000	15.260000	80.230000	286.000000	0.000000	128.000000	54.000000	39.000000	56.000000
2.120000	15.610000	80.840000	274.000000	0.000000	128.000000	54.000000	35.000000	61.000000
2.130000	15.870000	81.290000	275.000000	0.000000	128.000000	54.000000	26.000000	45.000000
2.140000	16.080000	81.730000	270.000000	0.000000	129.000000	55.000000	21.000000	44.000000
2.150000	16.130000	81.910000	269.000000	0.000000	129.000000	55.000000	5.000000	18.000000
2.160000	16.190000	81.910000	270.000000	0.000000	129.000000	55.000000	6.000000	0.000000
2.170000	16.190000	81.810000	280.000000	0.000000	129.000000	55.000000	0.000000	-10.000000
2.180000	16.090000	81.410000	287.000000	0.000000	129.000000	55.000000	-10.000000	-40.000000
2.190000	15.900000	80.820000	301.000000	0.000000	129.000000	55.000000	-19.000000	-59.000000
2.200000	15.710000	80.140000	307.000000	0.000000	129.000000	55.000000	-19.000000	-68.000000
2.210000	15.510000	79.460000	307.000000	0.000000	129.000000	55.000000	-20.000000	-68.000000
2.220000	15.390000	78.940000	310.000000	0.000000	129.000000	55.000000	-12.000000	-52.000000
