t	x	y	pressure	penup	azimuth	inclination	v_x	v_y
0.000000	49.400000	52.290000	136.000000	1.000000	132.000000	50.000000	0.000000	0.000000
0.010000	49.880000	52.950000	183.000000	0.000000	133.000000	51.000000	48.000000	66.000000
0.020000	50.030000	53.200000	237.000000	0.000000	133.000000	51.000000	15.000000	25.000000
0.030000	50.190000	53.350000	281.000000	0.000000	134.000000	50.000000	16.000000	15.000000
0.040000	50.350000	53.460000	335.000000	0.000000	134.000000	50.000000	16.000000	11.000000
0.050000	50.440000	53.520000	381.000000	0.000000	134.000000	50.000000	9.000000	6.000000
0.060000	50.440000	53.520000	428.000000	0.000000	134.000000	50.000000	0.000000	0.000000
0.070000	50.440000	53.370000	477.000000	0.000000	133.000000	50.000000	0.000000	-15.000000
0.080000	50.490000	52.940000	522.000000	0.000000	133.000000	50.000000	5.000000	-43.000000
0.090000	50.310000	52.300000	546.000000	0.000000	133.000000	50.000000	-18.000000	-64.000000
0.100000	50.000000	51.220000	563.000000	0.000000	133.000000	50.000000	-31.000000	-108.000000
0.110000	49.540000	49.710000	611.000000	0.000000	133.000000	50.000000	-46.000000	-151.000000
0.120000	49.080000	47.920000	638.000000	0.000000	132.000000	50.000000	-46.000000	-179.000000
0.130000	48.440000	45.850000	649.000000	0.000000	132.000000	50.000000	-64.000000	-207.000000
0.140000	47.670000	43.740000	697.000000	0.000000	130.000000	51.000000	-77.000000	-211.000000
0.150000	46.760000	42.170000	725.000000	0.000000	129.000000	51.000000	-91.000000	-157.000000
0.160000	46.310000	40.980000	730.000000	0.000000	128.000000	52.000000	-45.000000	-119.000000
0.170000	46.160000	40.460000	736.000000	0.000000	128.000000	53.000000	-15.000000	-52.000000
0.180000	46.160000	40.320000	777.000000	0.000000	128.000000	53.000000	0.000000	-14.000000
0.190000	46.230000	40.430000	797.000000	0.000000	127.000000	53.000000	7.000000	11.000000
0.200000	46.230000	40.710000	803.000000	0.000000	127.000000	53.000000	0.000000	28.000000
0.210000	46.230000	41.530000	802.000000	0.000000	126.000000	54.000000	0.000000	82.000000
0.220000	46.570000	42.710000	788.000000	0.000000	126.000000	54.000000	34.000000	118.000000
0.230000	47.100000	44.680000	788.000000	0.000000	126.000000	54.000000	53.000000	197.000000
0.240000	47.750000	46.610000	791.000000	0.000000	126.000000	54.000000	65.000000	193.000000
0.250000	48.420000	48.250000	785.000000	0.000000	125.000000	54.000000	67.000000	164.000000
0.260000	49.090000	49.730000	787.000000	0.000000	124.000000	53.000000	67.000000	148.000000
0.270000	49.710000	50.790000	784.000000	0.000000	125.000000	53.000000	62.000000	106.000000
0.280000	50.290000	51.790000	794.000000	0.000000	127.000000	52.000000	58.000000	100.000000
0.290000	50.940000	52.720000	793.000000	0.000000	127.000000	51.000000	65.000000	93.000000
0.300000	51.560000	53.630000	794.000000	0.000000	127.000000	51.000000	62.000000	91.000000
0.310000	52.150000	54.410000	794.000000	0.000000	129.000000	51.000000	59.000000	78.000000
0.320000	52.480000	54.870000	796.000000	0.000000	130.000000	51.000000	33.000000	46.000000
0.330000	52.610000	55.110000	783.000000	0.000000	130.000000	51.000000	13.000000	24.000000
0.340000	52.610000	55.110000	790.000000	0.000000	133.000000	51.000000	0.000000	0.000000
0.350000	52.610000	55.110000	780.000000	0.000000	133.000000	51.000000	0.000000	0.000000
0.360000	52.610000	54.940000	774.000000	0.000000	133.000000	51.000000	0.000000	-17.000000
0.370000	52.330000	54.260000	780.000000	0.000000	133.000000	51.000000	-28.000000	-68.000000
0.380000	51.920000	53.230000	787.000000	0.000000	134.000000	51.000000	-41.000000	-103.000000
0.390000	51.620000	52.210000	790.000000	0.000000	134.000000	51.000000	-30.000000	-102.000000
0.400000	51.300000	51.120000	787.000000	0.000000	134.000000	51.000000	-32.000000	-109.000000
0.410000	50.970000	49.900000	790.000000	0.000000	134.000000	51.000000	-33.000000	-122.000000
0.420000	50.650000	48.530000	791.000000	0.000000	133.000000	51.000000	-32.000000	-137.000000
0.430000	50.330000	47.050000	787.000000	0.000000	133.000000	51.000000	-32.000000	-148.000000
0.440000	50.100000	45.930000	788.000000	0.000000	132.000000	51.000000	-23.000000	-112.000000
0.450000	49.800000	44.930000	790.000000	0.000000	130.000000	52.000000	-30.000000	-100.000000
0.460000	49.460000	44.010000	794.000000	0.000000	129.000000	52.000000	-34.000000	-92.000000
0.470000	49.120000	43.180000	790.000000	0.000000	128.000000	53.000000	-34.000000	-83.000000
0.480000	48.780000	42.480000	797.000000	0.000000	127.000000	53.000000	-34.000000	-70.000000
0.490000	48.460000	41.870000	800.000000	0.000000	125.000000	53.000000	-32.000000	-61.000000
0.500000	48.270000	41.480000	808.000000	0.000000	124.000000	53.000000	-19.000000	-39.000000
0.510000	48.170000	41.300000	822.000000	0.000000	124.000000	53.000000	-10.000000	-18.000000
0.520000	48.170000	41.300000	867.000000	0.000000	123.000000	52.000000	0.000000	0.000000
0.530000	48.170000	41.300000	863.000000	0.000000	123.000000	52.000000	0.000000	0.000000
0.540000	48.170000	41.770000	839.000000	0.000000	123.000000	52.000000	0.000000	47.000000
0.550000	48.240000	42.530000	826.000000	0.000000	121.000000	52.000000	7.000000	76.000000
0.560000	48.400000	43.940000	787.000000	0.000000	121.000000	52.000000	16.000000	141.000000
0.570000	48.600000	45.440000	719.000000	0.000000	121.000000	52.000000	20.000000	150.000000
0.580000	48.600000	46.990000	728.000000	0.000000	121.000000	52.000000	0.000000	155.000000
0.590000	48.600000	48.050000	725.000000	0.000000	121.000000	52.000000	0.000000	106.000000
0.600000	48.530000	48.680000	724.000000	0.000000	120.000000	51.000000	-7.000000	63.000000
0.610000	48.430000	49.020000	727.000000	0.000000	121.000000	51.000000	-10.000000	34.000000
0.620000	48.430000	49.020000	728.000000	0.000000	121.000000	51.000000	0.000000	0.000000
0.630000	48.370000	48.930000	724.000000	0.000000	122.000000	50.000000	-6.000000	-9.000000
0.640000	48.370000	48.720000	730.000000	0.000000	122.000000	50.000000	0.000000	-21.000000
0.650000	48.370000	48.350000	730.000000	0.000000	122.000000	50.000000	0.000000	-37.000000
0.660000	48.370000	47.870000	721.000000	0.000000	124.000000	50.000000	0.000000	-48.000000
0.670000	48.370000	47.540000	725.000000	0.000000	124.000000	50.000000	0.000000	-33.000000
0.680000	48.500000	47.330000	731.000000	0.000000	124.000000	50.000000	13.000000	-21.000000
0.690000	48.620000	47.210000	739.000000	0.000000	124.000000	50.000000	12.000000	-12.000000
0.700000	48.760000	47.040000	748.000000	0.000000	124.000000	50.000000	14.000000	-17.000000
0.710000	48.950000	46.920000	754.000000	0.000000	124.000000	50.000000	19.000000	-12.000000
0.720000	49.200000	46.840000	759.000000	0.000000	123.000000	51.000000	25.000000	-8.000000
0.730000	49.470000	46.920000	767.000000	0.000000	123.000000	51.000000	27.000000	8.000000
0.740000	50.010000	47.370000	770.000000	0.000000	123.000000	51.000000	54.000000	45.000000
0.750000	50.730000	48.060000	765.000000	0.000000	123.000000	51.000000	72.000000	69.000000
0.760000	51.590000	49.190000	770.000000	0.000000	124.000000	52.000000	86.000000	113.000000
0.770000	52.560000	50.530000	771.000000	0.000000	126.000000	51.000000	97.000000	134.000000
0.780000	53.610000	52.010000	760.000000	0.000000	126.000000	51.000000	105.000000	148.000000
0.790000	54.350000	53.540000	757.000000	0.000000	128.000000	52.000000	74.000000	153.000000
0.800000	54.780000	54.940000	757.000000	0.000000	129.000000	51.000000	43.000000	140.000000
0.810000	55.000000	55.590000	757.000000	0.000000	130.000000	52.000000	22.000000	65.000000
0.820000	55.000000	55.800000	758.000000	0.000000	130.000000	52.000000	0.000000	21.000000
0.830000	54.920000	55.740000	743.000000	0.000000	133.000000	52.000000	-8.000000	-6.000000
0.840000	54.790000	55.290000	740.000000	0.000000	133.000000	52.000000	-13.000000	-45.000000
0.850000	54.430000	54.580000	731.000000	0.000000	133.000000	52.000000	-36.000000	-71.000000
0.860000	53.950000	53.270000	728.000000	0.000000	133.000000	52.000000	-48.000000	-131.000000
0.870000	53.380000	51.940000	736.000000	0.000000	133.000000	52.000000	-57.000000	-133.000000
0.880000	52.810000	50.370000	736.000000	0.000000	133.000000	52.000000	-57.000000	-157.000000
0.890000	52.180000	48.650000	742.000000	0.000000	133.000000	52.000000	-63.000000	-172.000000
0.900000	51.510000	46.620000	751.000000	0.000000	133.000000	52.000000	-67.000000	-203.000000
0.910000	50.810000	44.720000	757.000000	0.000000	131.000000	52.000000	-70.000000	-190.000000
0.920000	50.410000	42.920000	755.000000	0.000000	130.000000	53.000000	-40.000000	-180.000000
0.930000	50.220000	42.070000	736.000000	0.000000	129.000000	52.000000	-19.000000	-85.000000
0.940000	50.360000	41.790000	725.000000	0.000000	128.000000	53.000000	14.000000	-28.000000
0.950000	50.560000	41.880000	731.000000	0.000000	127.000000	53.000000	20.000000	9.000000
0.960000	50.860000	42.300000	722.000000	0.000000	124.000000	53.000000	30.000000	42.000000
0.970000	51.440000	43.390000	699.000000	0.000000	123.000000	53.000000	58.000000	109.000000
0.980000	52.200000	44.920000	717.000000	0.000000	123.000000	53.000000	76.000000	153.000000
0.990000	52.790000	46.330000	710.000000	0.000000	123.000000	53.000000	59.000000	141.000000
1.000000	53.220000	47.270000	710.000000	0.000000	123.000000	53.000000	43.000000	94.000000
1.010000	53.530000	47.900000	710.000000	0.000000	124.000000	54.000000	31.000000	63.000000
1.020000	53.530000	48.030000	703.000000	0.000000	124.000000	54.000000	0.000000	13.000000
1.030000	53.530000	47.910000	694.000000	0.000000	125.000000	54.000000	0.000000	-12.000000
1.040000	53.530000	47.620000	693.000000	0.000000	125.000000	54.000000	0.000000	-29.000000
1.050000	53.270000	46.830000	690.000000	0.000000	125.000000	54.000000	-26.000000	-79.000000
1.060000	52.970000	45.890000	697.000000	0.000000	127.000000	53.000000	-30.000000	-94.000000
1.070000	52.620000	44.840000	708.000000	0.000000	125.000000	54.000000	-35.000000	-105.000000
1.080000	52.400000	44.200000	710.000000	0.000000	125.000000	54.000000	-22.000000	-64.000000
1.090000	52.400000	43.830000	714.000000	0.000000	125.000000	54.000000	0.000000	-37.000000
1.100000	52.450000	43.640000	714.000000	0.000000	124.000000	54.000000	5.000000	-19.000000
1.110000	52.530000	43.640000	721.000000	0.000000	124.000000	54.000000	8.000000	0.000000
1.120000	52.650000	43.940000	722.000000	0.000000	123.000000	55.000000	12.000000	30.000000
1.130000	53.050000	44.370000	711.000000	0.000000	123.000000	55.000000	40.000000	43.000000
1.140000	53.620000	45.020000	700.000000	0.000000	123.000000	55.000000	57.000000	65.000000
1.150000	54.120000	45.650000	673.000000	0.000000	123.000000	55.000000	50.000000	63.000000
1.160000	54.460000	45.960000	673.000000	0.000000	123.000000	55.000000	34.000000	31.000000
1.170000	54.690000	46.060000	673.000000	0.000000	123.000000	55.000000	23.000000	10.000000
1.180000	54.830000	46.060000	663.000000	0.000000	123.000000	55.000000	14.000000	0.000000
1.190000	54.900000	45.970000	673.000000	0.000000	123.000000	55.000000	7.000000	-9.000000
1.200000	54.900000	45.890000	684.000000	0.000000	124.000000	55.000000	0.000000	-8.000000
1.210000	54.900000	45.770000	688.000000	0.000000	124.000000	55.000000	0.000000	-12.000000
1.220000	54.850000	45.590000	694.000000	0.000000	124.000000	55.000000	-5.000000	-18.000000
1.230000	54.800000	45.250000	697.000000	0.000000	124.000000	55.000000	-5.000000	-34.000000
1.240000	54.680000	44.820000	703.000000	0.000000	124.000000	55.000000	-12.000000	-43.000000
1.250000	54.610000	44.550000	702.000000	0.000000	122.000000	56.000000	-7.000000	-27.000000
1.260000	54.610000	44.340000	696.000000	0.000000	122.000000	56.000000	0.000000	-21.000000
1.270000	54.690000	44.170000	691.000000	0.000000	122.000000	56.000000	8.000000	-17.000000
1.280000	54.800000	44.170000	685.000000	0.000000	122.000000	56.000000	11.000000	0.000000
1.290000	55.100000	44.450000	669.000000	0.000000	122.000000	56.000000	30.000000	28.000000
1.300000	55.540000	44.900000	656.000000	0.000000	122.000000	56.000000	44.000000	45.000000
1.310000	56.020000	45.300000	644.000000	0.000000	122.000000	56.000000	48.000000	40.000000
1.320000	56.340000	45.650000	647.000000	0.000000	122.000000	56.000000	32.000000	35.000000
1.330000	56.540000	45.910000	636.000000	0.000000	122.000000	56.000000	20.000000	26.000000
1.340000	56.650000	46.010000	647.000000	0.000000	122.000000	56.000000	11.000000	10.000000
1.350000	56.650000	46.010000	644.000000	0.000000	122.000000	56.000000	0.000000	0.000000
1.360000	56.650000	46.010000	634.000000	0.000000	122.000000	56.000000	0.000000	0.000000
1.370000	56.650000	46.010000	636.000000	0.000000	122.000000	56.000000	0.000000	0.000000
1.380000	56.650000	46.010000	639.000000	0.000000	122.000000	56.000000	0.000000	0.000000
1.390000	56.580000	45.510000	641.000000	0.000000	122.000000	56.000000	-7.000000	-50.000000
1.400000	56.480000	45.160000	655.000000	0.000000	122.000000	56.000000	-10.000000	-35.000000
1.410000	56.350000	44.800000	670.000000	0.000000	122.000000	56.000000	-13.000000	-36.000000
1.420000	56.350000	44.570000	668.000000	0.000000	122.000000	56.000000	0.000000	-23.000000
1.430000	56.350000	44.440000	658.000000	0.000000	122.000000	56.000000	0.000000	-13.000000
1.440000	56.460000	44.440000	652.000000	0.000000	122.000000	56.000000	11.000000	0.000000
1.450000	56.700000	44.530000	650.000000	0.000000	122.000000	56.000000	24.000000	9.000000
1.460000	57.030000	44.710000	640.000000	0.000000	122.000000	56.000000	33.000000	18.000000
1.470000	57.440000	45.000000	633.000000	0.000000	122.000000	56.000000	41.000000	29.000000
1.480000	57.740000	45.270000	630.000000	0.000000	122.000000	56.000000	30.000000	27.000000
1.490000	57.970000	45.410000	614.000000	0.000000	122.000000	56.000000	23.000000	14.000000
1.500000	58.080000	45.470000	602.000000	0.000000	122.000000	56.000000	11.000000	6.000000
1.510000	58.130000	45.470000	588.000000	0.000000	122.000000	56.000000	5.000000	0.000000
1.520000	58.130000	45.470000	536.000000	0.000000	122.000000	56.000000	0.000000	0.000000
1.530000	58.130000	45.470000	469.000000	0.000000	122.000000	56.000000	0.000000	0.000000
1.540000	58.180000	45.470000	349.000000	0.000000	122.000000	56.000000	5.000000	0.000000
1.550000	58.300000	45.470000	175.000000	0.000000	122.000000	56.000000	12.000000	0.000000
1.560000	58.300000	45.470000	0.000000	1.000000	123.000000	56.000000	0.000000	0.000000
1.570000	58.830000	45.620000	0.000000	0.000000	123.000000	56.000000	53.000000	15.000000
1.580000	59.080000	45.670000	0.000000	0.000000	123.000000	56.000000	25.000000	5.000000
1.590000	59.300000	45.670000	0.000000	0.000000	124.000000	57.000000	22.000000	0.000000
1.600000	59.560000	45.730000	0.000000	0.000000	124.000000	57.000000	26.000000	6.000000
1.610000	59.880000	45.820000	0.000000	0.000000	124.000000	57.000000	32.000000	9.000000
1.620000	60.310000	45.990000	0.000000	0.000000	126.000000	57.000000	43.000000	17.000000
1.630000	60.920000	46.300000	0.000000	0.000000	126.000000	57.000000	61.000000	31.000000
1.640000	61.650000	46.700000	0.000000	0.000000	126.000000	57.000000	73.000000	40.000000
1.650000	62.370000	47.090000	0.000000	0.000000	127.000000	56.000000	72.000000	39.000000
1.660000	62.370000	47.090000	495.000000	1.000000	127.000000	56.000000	0.000000	0.000000
1.670000	63.410000	47.750000	559.000000	0.000000	129.000000	56.000000	104.000000	66.000000
1.680000	63.510000	48.000000	614.000000	0.000000	129.000000	56.000000	10.000000	25.000000
1.690000	63.650000	48.260000	664.000000	0.000000	130.000000	55.000000	14.000000	26.000000
1.700000	63.980000	48.790000	670.000000	0.000000	130.000000	55.000000	33.000000	53.000000
1.710000	64.440000	49.500000	669.000000	0.000000	132.000000	55.000000	46.000000	71.000000
1.720000	65.220000	50.540000	669.000000	0.000000	132.000000	55.000000	78.000000	104.000000
1.730000	66.510000	51.830000	673.000000	0.000000	134.000000	55.000000	129.000000	129.000000
1.740000	68.140000	53.300000	658.000000	0.000000	136.000000	55.000000	163.000000	147.000000
1.750000	69.680000	54.700000	638.000000	0.000000	136.000000	55.000000	154.000000	140.000000
1.760000	70.490000	55.320000	617.000000	0.000000	136.000000	55.000000	81.000000	62.000000
1.770000	70.810000	55.420000	611.000000	0.000000	139.000000	55.000000	32.000000	10.000000
1.780000	70.670000	55.180000	634.000000	0.000000	139.000000	55.000000	-14.000000	-24.000000
1.790000	70.190000	54.510000	642.000000	0.000000	140.000000	55.000000	-48.000000	-67.000000
1.800000	69.490000	53.560000	652.000000	0.000000	140.000000	55.000000	-70.000000	-95.000000
1.810000	68.490000	52.340000	697.000000	0.000000	140.000000	55.000000	-100.000000	-122.000000
1.820000	67.470000	50.950000	754.000000	0.000000	141.000000	55.000000	-102.000000	-139.000000
1.830000	66.430000	49.450000	787.000000	0.000000	141.000000	55.000000	-104.000000	-150.000000
1.840000	65.830000	48.250000	806.000000	0.000000	140.000000	55.000000	-60.000000	-120.000000
1.850000	65.530000	47.440000	791.000000	0.000000	140.000000	55.000000	-30.000000	-81.000000
1.860000	65.420000	46.900000	751.000000	0.000000	140.000000	55.000000	-11.000000	-54.000000
1.870000	65.590000	46.760000	745.000000	0.000000	139.000000	56.000000	17.000000	-14.000000
1.880000	65.990000	46.760000	722.000000	0.000000	138.000000	57.000000	40.000000	0.000000
1.890000	66.530000	46.910000	699.000000	0.000000	136.000000	57.000000	54.000000	15.000000
1.900000	67.090000	47.120000	696.000000	0.000000	135.000000	58.000000	56.000000	21.000000
1.910000	67.670000	47.350000	676.000000	0.000000	135.000000	58.000000	58.000000	23.000000
1.920000	68.160000	47.590000	647.000000	0.000000	135.000000	58.000000	49.000000	24.000000
1.930000	68.570000	47.890000	620.000000	0.000000	135.000000	58.000000	41.000000	30.000000
1.940000	68.980000	48.240000	613.000000	0.000000	135.000000	58.000000	41.000000	35.000000
1.950000	69.400000	48.620000	580.000000	0.000000	135.000000	58.000000	42.000000	38.000000
1.960000	69.840000	48.820000	540.000000	0.000000	136.000000	57.000000	44.000000	20.000000
1.970000	70.120000	48.960000	515.000000	0.000000	138.000000	58.000000	28.000000	14.000000
1.980000	70.300000	48.960000	522.000000	0.000000	139.000000	57.000000	18.000000	0.000000
1.990000	70.360000	48.880000	546.000000	0.000000	139.000000	57.000000	6.000000	-8.000000
2.000000	70.310000	48.660000	575.000000	0.000000	139.000000	57.000000	-5.000000	-22.000000
2.010000	70.180000	48.390000	595.000000	0.000000	140.000000	56.000000	-13.000000	-27.000000
2.020000	70.040000	48.160000	616.000000	0.000000	140.000000	56.000000	-14.000000	-23.000000
2.030000	69.970000	48.040000	606.000000	0.000000	139.000000	57.000000	-7.000000	-12.000000
2.040000	70.020000	47.990000	594.000000	0.000000	139.000000	57.000000	5.000000	-5.000000
2.050000	70.120000	47.990000	586.000000	0.000000	139.000000	57.000000	10.000000	0.000000
2.060000	70.290000	48.060000	585.000000	0.000000	139.000000	57.000000	17.000000	7.000000
2.070000	70.640000	48.250000	588.000000	0.000000	139.000000	57.000000	35.000000	19.000000
2.080000	71.090000	48.330000	565.000000	0.000000	139.000000	57.000000	45.000000	8.000000
2.090000	71.420000	48.330000	553.000000	0.000000	139.000000	57.000000	33.000000	0.000000
2.100000	71.570000	48.280000	556.000000	0.000000	140.000000	58.000000	15.000000	-5.000000
2.110000	71.570000	48.210000	566.000000	0.000000	140.000000	58.000000	0.000000	-7.000000
2.120000	71.670000	48.150000	602.000000	0.000000	139.000000	58.000000	10.000000	-6.000000
2.130000	71.670000	48.080000	628.000000	0.000000	139.000000	58.000000	0.000000	-7.000000
2.140000	71.670000	48.080000	646.000000	0.000000	139.000000	58.000000	0.000000	0.000000
2.150000	71.730000	48.080000	661.000000	0.000000	139.000000	58.000000	6.000000	0.000000
2.160000	71.730000	47.950000	682.000000	0.000000	140.000000	58.000000	0.000000	-13.000000
2.170000	71.830000	47.610000	690.000000	0.000000	140.000000	58.000000	10.000000	-34.000000
2.180000	71.760000	47.120000	725.000000	0.000000	139.000000	58.000000	-7.000000	-49.000000
2.190000	71.600000	46.290000	742.000000	0.000000	139.000000	58.000000	-16.000000	-83.000000
