t	x	y	pressure	penup	azimuth	inclination	v_x	v_y
0.000000	17.120000	36.690000	239.000000	1.000000	152.000000	53.000000	0.000000	0.000000
0.010000	17.240000	36.340000	348.000000	0.000000	152.000000	54.000000	12.000000	-35.000000
0.020000	17.150000	35.770000	379.000000	0.000000	153.000000	55.000000	-9.000000	-57.000000
0.030000	16.940000	34.980000	402.000000	0.000000	153.000000	56.000000	-21.000000	-79.000000
0.040000	16.660000	33.220000	422.000000	0.000000	153.000000	56.000000	-28.000000	-176.000000
0.050000	16.480000	31.700000	440.000000	0.000000	152.000000	57.000000	-18.000000	-152.000000
0.060000	16.480000	30.340000	475.000000	0.000000	152.000000	57.000000	0.000000	-136.000000
0.070000	16.650000	29.620000	502.000000	0.000000	152.000000	57.000000	17.000000	-72.000000
0.080000	16.810000	29.270000	501.000000	0.000000	152.000000	57.000000	16.000000	-35.000000
0.090000	16.980000	29.170000	486.000000	0.000000	152.000000	57.000000	17.000000	-10.000000
0.100000	17.140000	29.290000	420.000000	0.000000	152.000000	57.000000	16.000000	12.000000
0.110000	17.140000	29.830000	343.000000	0.000000	151.000000	58.000000	0.000000	54.000000
0.120000	17.000000	30.660000	309.000000	0.000000	151.000000	58.000000	-14.000000	83.000000
0.130000	16.500000	31.750000	309.000000	0.000000	153.000000	58.000000	-50.000000	109.000000
0.140000	15.780000	32.940000	339.000000	0.000000	153.000000	58.000000	-72.000000	119.000000
0.150000	14.900000	34.200000	404.000000	0.000000	153.000000	58.000000	-88.000000	126.000000
0.160000	14.110000	35.350000	469.000000	0.000000	154.000000	58.000000	-79.000000	115.000000
0.170000	13.710000	36.170000	512.000000	0.000000	155.000000	58.000000	-40.000000	82.000000
0.180000	13.580000	36.760000	533.000000	0.000000	155.000000	58.000000	-13.000000	59.000000
0.190000	13.580000	37.000000	537.000000	0.000000	155.000000	58.000000	0.000000	24.000000
0.200000	14.040000	37.000000	544.000000	0.000000	156.000000	57.000000	46.000000	0.000000
0.210000	14.710000	36.900000	546.000000	0.000000	156.000000	57.000000	67.000000	-10.000000
0.220000	15.880000	36.660000	542.000000	0.000000	157.000000	56.000000	117.000000	-24.000000
0.230000	17.200000	36.370000	545.000000	0.000000	157.000000	56.000000	132.000000	-29.000000
0.240000	18.610000	35.970000	545.000000	0.000000	158.000000	56.000000	141.000000	-40.000000
0.250000	19.710000	35.470000	551.000000	0.000000	158.000000	56.000000	110.000000	-50.000000
0.260000	20.470000	34.560000	561.000000	0.000000	160.000000	56.000000	76.000000	-91.000000
0.270000	21.010000	33.380000	562.000000	0.000000	159.000000	57.000000	54.000000	-118.000000
0.280000	21.010000	32.200000	567.000000	0.000000	159.000000	57.000000	0.000000	-118.000000
0.290000	20.690000	31.170000	586.000000	0.000000	159.000000	57.000000	-32.000000	-103.000000
0.300000	20.100000	30.250000	644.000000	0.000000	158.000000	58.000000	-59.000000	-92.000000
0.310000	19.380000	29.560000	687.000000	0.000000	158.000000	58.000000	-72.000000	-69.000000
0.320000	18.580000	29.110000	727.000000	0.000000	158.000000	58.000000	-80.000000	-45.000000
0.330000	17.720000	28.810000	743.000000	0.000000	157.000000	58.000000	-86.000000	-30.000000
0.340000	16.880000	28.810000	749.000000	0.000000	156.000000	59.000000	-84.000000	0.000000
0.350000	16.070000	29.260000	727.000000	0.000000	156.000000	59.000000	-81.000000	45.000000
0.360000	15.510000	29.930000	691.000000	0.000000	156.000000	59.000000	-56.000000	67.000000
0.370000	15.110000	30.670000	666.000000	0.000000	157.000000	59.000000	-40.000000	74.000000
0.380000	15.030000	31.270000	628.000000	0.000000	157.000000	59.000000	-8.000000	60.000000
0.390000	15.250000	31.370000	594.000000	0.000000	159.000000	59.000000	22.000000	10.000000
0.400000	15.680000	31.190000	543.000000	0.000000	159.000000	59.000000	43.000000	-18.000000
0.410000	16.270000	30.780000	473.000000	0.000000	159.000000	59.000000	59.000000	-41.000000
0.420000	16.920000	30.330000	369.000000	0.000000	159.000000	59.000000	65.000000	-45.000000
0.430000	17.610000	29.960000	249.000000	0.000000	159.000000	59.000000	69.000000	-37.000000
0.440000	18.310000	29.660000	78.000000	0.000000	157.000000	59.000000	70.000000	-30.000000
0.450000	18.310000	29.660000	0.000000	1.000000	156.000000	59.000000	0.000000	0.000000
0.460000	19.630000	29.620000	0.000000	0.000000	157.000000	58.000000	132.000000	-4.000000
0.470000	20.170000	29.810000	0.000000	0.000000	155.000000	58.000000	54.000000	19.000000
0.480000	20.470000	29.980000	0.000000	0.000000	153.000000	58.000000	30.000000	17.000000
0.490000	20.730000	30.090000	0.000000	0.000000	153.000000	58.000000	26.000000	11.000000
0.500000	20.960000	29.970000	0.000000	0.000000	153.000000	58.000000	23.000000	-12.000000
0.510000	21.150000	29.710000	0.000000	0.000000	151.000000	58.000000	19.000000	-26.000000
0.520000	21.150000	29.710000	367.000000	1.000000	153.000000	58.000000	0.000000	0.000000
0.530000	21.600000	29.510000	474.000000	0.000000	153.000000	58.000000	45.000000	-20.000000
0.540000	21.650000	29.610000	495.000000	0.000000	153.000000	58.000000	5.000000	10.000000
0.550000	21.750000	29.740000	535.000000	0.000000	153.000000	58.000000	10.000000	13.000000
0.560000	22.010000	30.140000	567.000000	0.000000	154.000000	58.000000	26.000000	40.000000
0.570000	22.370000	30.730000	609.000000	0.000000	154.000000	58.000000	36.000000	59.000000
0.580000	22.710000	31.490000	620.000000	0.000000	154.000000	58.000000	34.000000	76.000000
0.590000	22.980000	32.500000	617.000000	0.000000	156.000000	59.000000	27.000000	101.000000
0.600000	23.210000	33.690000	619.000000	0.000000	156.000000	59.000000	23.000000	119.000000
0.610000	23.300000	35.060000	616.000000	0.000000	156.000000	59.000000	9.000000	137.000000
0.620000	23.360000	36.470000	630.000000	0.000000	156.000000	59.000000	6.000000	141.000000
0.630000	23.410000	37.910000	640.000000	0.000000	157.000000	59.000000	5.000000	144.000000
0.640000	23.500000	39.360000	659.000000	0.000000	158.000000	58.000000	9.000000	145.000000
0.650000	23.590000	40.290000	662.000000	0.000000	159.000000	57.000000	9.000000	93.000000
0.660000	23.680000	40.880000	668.000000	0.000000	159.000000	57.000000	9.000000	59.000000
0.670000	23.570000	40.880000	636.000000	0.000000	160.000000	56.000000	-11.000000	0.000000
0.680000	23.300000	40.610000	622.000000	0.000000	160.000000	56.000000	-27.000000	-27.000000
0.690000	22.760000	40.100000	614.000000	0.000000	160.000000	55.000000	-54.000000	-51.000000
0.700000	22.060000	38.900000	605.000000	0.000000	162.000000	56.000000	-70.000000	-120.000000
0.710000	21.240000	37.340000	606.000000	0.000000	162.000000	56.000000	-82.000000	-156.000000
0.720000	20.840000	35.550000	614.000000	0.000000	162.000000	56.000000	-40.000000	-179.000000
0.730000	20.760000	33.950000	620.000000	0.000000	162.000000	56.000000	-8.000000	-160.000000
0.740000	20.880000	32.360000	638.000000	0.000000	161.000000	57.000000	12.000000	-159.000000
0.750000	21.120000	31.140000	659.000000	0.000000	161.000000	57.000000	24.000000	-122.000000
0.760000	21.600000	30.160000	663.000000	0.000000	159.000000	57.000000	48.000000	-98.000000
0.770000	22.230000	29.340000	669.000000	0.000000	158.000000	58.000000	63.000000	-82.000000
0.780000	22.910000	28.830000	662.000000	0.000000	158.000000	58.000000	68.000000	-51.000000
0.790000	23.640000	28.540000	650.000000	0.000000	157.000000	59.000000	73.000000	-29.000000
0.800000	24.560000	28.710000	584.000000	0.000000	157.000000	59.000000	92.000000	17.000000
0.810000	25.590000	29.200000	428.000000	0.000000	159.000000	59.000000	103.000000	49.000000
0.820000	26.560000	29.900000	155.000000	0.000000	159.000000	59.000000	97.000000	70.000000
0.830000	26.560000	29.900000	0.000000	1.000000	158.000000	60.000000	0.000000	0.000000
0.840000	27.300000	30.840000	0.000000	0.000000	158.000000	60.000000	74.000000	94.000000
0.850000	26.970000	30.840000	0.000000	0.000000	158.000000	60.000000	-33.000000	0.000000
0.860000	26.600000	30.840000	0.000000	0.000000	158.000000	60.000000	-37.000000	0.000000
0.870000	26.210000	30.840000	0.000000	0.000000	158.000000	60.000000	-39.000000	0.000000
0.880000	26.060000	30.940000	0.000000	0.000000	158.000000	60.000000	-15.000000	10.000000
0.890000	26.060000	30.940000	0.000000	0.000000	159.000000	59.000000	0.000000	0.000000
0.900000	26.150000	31.470000	0.000000	0.000000	159.000000	59.000000	9.000000	53.000000
0.910000	26.220000	31.960000	0.000000	0.000000	159.000000	59.000000	7.000000	49.000000
0.920000	26.290000	32.520000	0.000000	0.000000	161.000000	60.000000	7.000000	56.000000
0.930000	26.350000	33.030000	0.000000	0.000000	161.000000	59.000000	6.000000	51.000000
0.940000	26.350000	33.490000	0.000000	0.000000	163.000000	59.000000	0.000000	46.000000
0.950000	26.350000	33.840000	0.000000	0.000000	164.000000	58.000000	0.000000	35.000000
0.960000	26.290000	34.140000	0.000000	0.000000	164.000000	58.000000	-6.000000	30.000000
0.970000	26.190000	34.390000	0.000000	0.000000	164.000000	58.000000	-10.000000	25.000000
0.980000	26.190000	34.390000	98.000000	1.000000	164.000000	58.000000	0.000000	0.000000
0.990000	25.890000	35.230000	279.000000	0.000000	164.000000	58.000000	-30.000000	84.000000
1.000000	25.730000	36.040000	244.000000	0.000000	164.000000	58.000000	-16.000000	81.000000
1.010000	25.610000	37.010000	206.000000	0.000000	164.000000	58.000000	-12.000000	97.000000
1.020000	25.610000	38.080000	247.000000	0.000000	162.000000	58.000000	0.000000	107.000000
1.030000	25.610000	39.200000	284.000000	0.000000	162.000000	58.000000	0.000000	112.000000
1.040000	25.680000	39.710000	337.000000	0.000000	162.000000	58.000000	7.000000	51.000000
1.050000	25.680000	39.820000	317.000000	0.000000	161.000000	57.000000	0.000000	11.000000
1.060000	25.680000	39.820000	330.000000	0.000000	161.000000	57.000000	0.000000	0.000000
1.070000	25.680000	39.080000	354.000000	0.000000	161.000000	57.000000	0.000000	-74.000000
1.080000	25.530000	38.270000	389.000000	0.000000	161.000000	57.000000	-15.000000	-81.000000
1.090000	25.330000	36.910000	428.000000	0.000000	161.000000	57.000000	-20.000000	-136.000000
1.100000	25.180000	35.500000	481.000000	0.000000	161.000000	57.000000	-15.000000	-141.000000
1.110000	25.080000	34.020000	545.000000	0.000000	161.000000	57.000000	-10.000000	-148.000000
1.120000	24.990000	32.770000	595.000000	0.000000	161.000000	57.000000	-9.000000	-125.000000
1.130000	24.920000	31.680000	620.000000	0.000000	161.000000	57.000000	-7.000000	-109.000000
1.140000	24.920000	31.050000	628.000000	0.000000	161.000000	59.000000	0.000000	-63.000000
1.150000	24.860000	30.750000	638.000000	0.000000	161.000000	59.000000	-6.000000	-30.000000
1.160000	24.920000	30.680000	641.000000	0.000000	161.000000	59.000000	6.000000	-7.000000
1.170000	24.980000	30.820000	640.000000	0.000000	161.000000	59.000000	6.000000	14.000000
1.180000	25.060000	31.360000	620.000000	0.000000	160.000000	58.000000	8.000000	54.000000
1.190000	25.360000	32.160000	630.000000	0.000000	160.000000	58.000000	30.000000	80.000000
1.200000	25.800000	33.150000	641.000000	0.000000	160.000000	58.000000	44.000000	99.000000
1.210000	26.310000	33.630000	642.000000	0.000000	161.000000	59.000000	51.000000	48.000000
1.220000	26.700000	33.770000	645.000000	0.000000	161.000000	59.000000	39.000000	14.000000
1.230000	26.970000	33.560000	652.000000	0.000000	161.000000	59.000000	27.000000	-21.000000
1.240000	27.180000	33.310000	665.000000	0.000000	161.000000	59.000000	21.000000	-25.000000
1.250000	27.310000	32.800000	668.000000	0.000000	161.000000	59.000000	13.000000	-51.000000
1.260000	27.250000	32.140000	668.000000	0.000000	160.000000	58.000000	-6.000000	-66.000000
1.270000	27.070000	31.580000	670.000000	0.000000	160.000000	58.000000	-18.000000	-56.000000
1.280000	26.750000	31.010000	670.000000	0.000000	160.000000	58.000000	-32.000000	-57.000000
1.290000	26.350000	30.620000	668.000000	0.000000	160.000000	58.000000	-40.000000	-39.000000
1.300000	25.900000	30.360000	668.000000	0.000000	160.000000	58.000000	-45.000000	-26.000000
1.310000	25.580000	30.180000	670.000000	0.000000	160.000000	58.000000	-32.000000	-18.000000
1.320000	25.460000	30.100000	662.000000	0.000000	160.000000	58.000000	-12.000000	-8.000000
1.330000	25.460000	30.100000	650.000000	0.000000	159.000000	59.000000	0.000000	0.000000
1.340000	25.640000	30.100000	650.000000	0.000000	161.000000	60.000000	18.000000	0.000000
1.350000	26.230000	30.100000	647.000000	0.000000	161.000000	60.000000	59.000000	0.000000
1.360000	27.090000	30.250000	611.000000	0.000000	161.000000	60.000000	86.000000	15.000000
1.370000	27.990000	30.570000	591.000000	0.000000	161.000000	60.000000	90.000000	32.000000
1.380000	28.680000	31.000000	586.000000	0.000000	161.000000	60.000000	69.000000	43.000000
1.390000	29.230000	31.550000	585.000000	0.000000	159.000000	59.000000	55.000000	55.000000
1.400000	29.520000	32.190000	603.000000	0.000000	159.000000	59.000000	29.000000	64.000000
1.410000	29.610000	32.850000	650.000000	0.000000	159.000000	59.000000	9.000000	66.000000
1.420000	29.560000	33.510000	666.000000	0.000000	159.000000	59.000000	-5.000000	66.000000
1.430000	29.390000	33.890000	675.000000	0.000000	157.000000	59.000000	-17.000000	38.000000
1.440000	29.070000	34.080000	675.000000	0.000000	157.000000	59.000000	-32.000000	19.000000
1.450000	28.650000	34.080000	678.000000	0.000000	157.000000	59.000000	-42.000000	0.000000
1.460000	28.360000	33.770000	678.000000	0.000000	157.000000	59.000000	-29.000000	-31.000000
1.470000	28.070000	33.310000	673.000000	0.000000	157.000000	59.000000	-29.000000	-46.000000
1.480000	27.930000	32.700000	666.000000	0.000000	156.000000	59.000000	-14.000000	-61.000000
1.490000	27.930000	32.130000	664.000000	0.000000	156.000000	59.000000	0.000000	-57.000000
1.500000	27.990000	31.700000	656.000000	0.000000	156.000000	59.000000	6.000000	-43.000000
1.510000	28.230000	31.360000	638.000000	0.000000	156.000000	59.000000	24.000000	-34.000000
1.520000	28.550000	31.190000	636.000000	0.000000	157.000000	58.000000	32.000000	-17.000000
1.530000	28.930000	31.190000	622.000000	0.000000	157.000000	58.000000	38.000000	0.000000
1.540000	29.320000	31.350000	620.000000	0.000000	157.000000	58.000000	39.000000	16.000000
1.550000	29.720000	31.720000	608.000000	0.000000	156.000000	59.000000	40.000000	37.000000
1.560000	30.130000	32.230000	595.000000	0.000000	157.000000	59.000000	41.000000	51.000000
1.570000	30.420000	32.830000	586.000000	0.000000	157.000000	59.000000	29.000000	60.000000
1.580000	30.630000	33.400000	616.000000	0.000000	157.000000	59.000000	21.000000	57.000000
1.590000	30.710000	33.750000	637.000000	0.000000	157.000000	59.000000	8.000000	35.000000
1.600000	30.710000	33.950000	650.000000	0.000000	157.000000	59.000000	0.000000	20.000000
1.610000	30.710000	33.820000	650.000000	0.000000	157.000000	59.000000	0.000000	-13.000000
1.620000	30.710000	33.660000	652.000000	0.000000	157.000000	59.000000	0.000000	-16.000000
1.630000	30.710000	33.220000	655.000000	0.000000	157.000000	59.000000	0.000000	-44.000000
1.640000	30.710000	32.610000	647.000000	0.000000	157.000000	59.000000	0.000000	-61.000000
1.650000	30.760000	32.030000	644.000000	0.000000	157.000000	59.000000	5.000000	-58.000000
1.660000	30.870000	31.600000	622.000000	0.000000	157.000000	59.000000	11.000000	-43.000000
1.670000	31.060000	31.280000	611.000000	0.000000	157.000000	59.000000	19.000000	-32.000000
1.680000	31.430000	31.280000	616.000000	0.000000	159.000000	59.000000	37.000000	0.000000
1.690000	31.910000	31.500000	606.000000	0.000000	159.000000	59.000000	48.000000	22.000000
1.700000	32.400000	31.940000	608.000000	0.000000	159.000000	59.000000	49.000000	44.000000
1.710000	32.850000	32.610000	595.000000	0.000000	159.000000	59.000000	45.000000	67.000000
1.720000	33.170000	33.490000	595.000000	0.000000	161.000000	60.000000	32.000000	88.000000
1.730000	33.400000	34.520000	564.000000	0.000000	160.000000	60.000000	23.000000	103.000000
1.740000	33.400000	35.630000	562.000000	0.000000	160.000000	60.000000	0.000000	111.000000
1.750000	33.400000	36.850000	546.000000	0.000000	162.000000	61.000000	0.000000	122.000000
1.760000	33.400000	38.140000	564.000000	0.000000	162.000000	61.000000	0.000000	129.000000
1.770000	33.530000	39.310000	567.000000	0.000000	162.000000	60.000000	13.000000	117.000000
1.780000	33.660000	39.640000	554.000000	0.000000	162.000000	60.000000	13.000000	33.000000
1.790000	33.660000	39.420000	551.000000	0.000000	165.000000	59.000000	0.000000	-22.000000
1.800000	33.570000	39.060000	553.000000	0.000000	165.000000	59.000000	-9.000000	-36.000000
1.810000	33.570000	38.130000	554.000000	0.000000	165.000000	59.000000	0.000000	-93.000000
1.820000	33.480000	36.810000	554.000000	0.000000	165.000000	58.000000	-9.000000	-132.000000
1.830000	33.310000	35.410000	553.000000	0.000000	165.000000	59.000000	-17.000000	-140.000000
1.840000	33.100000	33.990000	542.000000	0.000000	165.000000	59.000000	-21.000000	-142.000000
1.850000	32.900000	32.560000	544.000000	0.000000	165.000000	59.000000	-20.000000	-143.000000
1.860000	32.720000	31.840000	538.000000	0.000000	164.000000	60.000000	-18.000000	-72.000000
1.870000	32.650000	31.460000	537.000000	0.000000	164.000000	60.000000	-7.000000	-38.000000
1.880000	32.650000	31.320000	535.000000	0.000000	163.000000	61.000000	0.000000	-14.000000
1.890000	32.650000	31.470000	526.000000	0.000000	163.000000	61.000000	0.000000	15.000000
1.900000	32.750000	31.920000	475.000000	0.000000	162.000000	61.000000	10.000000	45.000000
1.910000	32.870000	32.580000	477.000000	0.000000	162.000000	61.000000	12.000000	66.000000
1.920000	33.050000	33.500000	507.000000	0.000000	162.000000	61.000000	18.000000	92.000000
1.930000	33.350000	34.120000	515.000000	0.000000	162.000000	61.000000	30.000000	62.000000
1.940000	33.710000	34.540000	516.000000	0.000000	162.000000	61.000000	36.000000	42.000000
1.950000	34.120000	34.720000	522.000000	0.000000	162.000000	61.000000	41.000000	18.000000
1.960000	34.530000	34.720000	491.000000	0.000000	162.000000	61.000000	41.000000	0.000000
1.970000	34.950000	34.620000	458.000000	0.000000	161.000000	62.000000	42.000000	-10.000000
1.980000	35.350000	34.500000	354.000000	0.000000	161.000000	62.000000	40.000000	-12.000000
1.990000	35.680000	34.380000	230.000000	0.000000	163.000000	62.000000	33.000000	-12.000000
2.000000	35.960000	34.280000	214.000000	0.000000	163.000000	62.000000	28.000000	-10.000000
2.010000	36.090000	34.280000	317.000000	0.000000	163.000000	62.000000	13.000000	0.000000
2.020000	36.090000	34.380000	439.000000	0.000000	165.000000	62.000000	0.000000	10.000000
2.030000	36.030000	34.510000	570.000000	0.000000	165.000000	62.000000	-6.000000	13.000000
2.040000	35.880000	34.620000	617.000000	0.000000	165.000000	62.000000	-15.000000	11.000000
2.050000	35.650000	34.720000	638.000000	0.000000	165.000000	62.000000	-23.000000	10.000000
2.060000	35.360000	34.720000	638.000000	0.000000	165.000000	62.000000	-29.000000	0.000000
2.070000	35.040000	34.540000	638.000000	0.000000	165.000000	62.000000	-32.000000	-18.000000
2.080000	34.750000	34.180000	620.000000	0.000000	165.000000	62.000000	-29.000000	-36.000000
2.090000	34.660000	33.590000	586.000000	0.000000	165.000000	62.000000	-9.000000	-59.000000
2.100000	34.660000	33.210000	515.000000	0.000000	165.000000	62.000000	0.000000	-38.000000
2.110000	34.890000	32.960000	433.000000	0.000000	165.000000	62.000000	23.000000	-25.000000
2.120000	35.280000	32.960000	249.000000	0.000000	165.000000	62.000000	39.000000	0.000000
2.130000	35.800000	33.150000	141.000000	0.000000	165.000000	61.000000	52.000000	19.000000
2.140000	36.060000	33.450000	91.000000	0.000000	165.000000	61.000000	26.000000	30.000000
2.150000	35.950000	33.680000	58.000000	0.000000	165.000000	61.000000	-11.000000	23.000000
2.160000	35.950000	33.680000	0.000000	1.000000	165.000000	61.000000	0.000000	0.000000
2.170000	34.720000	33.120000	0.000000	0.000000	165.000000	61.000000	-123.000000	-56.000000
2.180000	33.620000	32.540000	0.000000	0.000000	165.000000	61.000000	-110.000000	-58.000000
2.190000	32.370000	31.960000	0.000000	0.000000	165.000000	61.000000	-125.000000	-58.000000
