t	x	y	pressure	penup	azimuth	inclination	v_x	v_y
0.000000	22.200000	86.030000	113.000000	1.000000	127.000000	59.000000	0.000000	0.000000
0.010000	22.200000	86.030000	214.000000	0.000000	127.000000	59.000000	0.000000	0.000000
0.020000	22.280000	85.480000	286.000000	0.000000	127.000000	59.000000	8.000000	-55.000000
0.030000	22.280000	84.490000	344.000000	0.000000	127.000000	59.000000	0.000000	-99.000000
0.040000	22.180000	83.160000	431.000000	0.000000	127.000000	59.000000	-10.000000	-133.000000
0.050000	22.030000	81.870000	519.000000	0.000000	127.000000	59.000000	-15.000000	-129.000000
0.060000	21.900000	80.610000	554.000000	0.000000	127.000000	59.000000	-13.000000	-126.000000
0.070000	21.820000	79.630000	568.000000	0.000000	127.000000	59.000000	-8.000000	-98.000000
0.080000	21.820000	78.920000	569.000000	0.000000	127.000000	59.000000	0.000000	-71.000000
0.090000	21.820000	78.400000	575.000000	0.000000	127.000000	59.000000	0.000000	-52.000000
0.100000	21.820000	78.180000	589.000000	0.000000	124.000000	58.000000	0.000000	-22.000000
0.110000	21.820000	78.180000	602.000000	0.000000	124.000000	58.000000	0.000000	0.000000
0.120000	21.820000	78.350000	603.000000	0.000000	124.000000	58.000000	0.000000	17.000000
0.130000	21.650000	78.770000	605.000000	0.000000	124.000000	58.000000	-17.000000	42.000000
0.140000	21.430000	79.610000	614.000000	0.000000	125.000000	59.000000	-22.000000	84.000000
0.150000	21.220000	80.740000	616.000000	0.000000	125.000000	59.000000	-21.000000	113.000000
0.160000	21.060000	81.860000	620.000000	0.000000	125.000000	59.000000	-16.000000	112.000000
0.170000	20.990000	82.930000	613.000000	0.000000	125.000000	59.000000	-7.000000	107.000000
0.180000	21.120000	83.840000	602.000000	0.000000	124.000000	58.000000	13.000000	91.000000
0.190000	21.380000	84.670000	602.000000	0.000000	124.000000	58.000000	26.000000	83.000000
0.200000	21.750000	85.240000	585.000000	0.000000	124.000000	58.000000	37.000000	57.000000
0.210000	22.140000	85.590000	581.000000	0.000000	124.000000	58.000000	39.000000	35.000000
0.220000	22.550000	85.790000	569.000000	0.000000	124.000000	58.000000	41.000000	20.000000
0.230000	22.970000	85.790000	568.000000	0.000000	126.000000	58.000000	42.000000	0.000000
0.240000	23.410000	85.350000	564.000000	0.000000	127.000000	59.000000	44.000000	-44.000000
0.250000	23.860000	84.690000	575.000000	0.000000	127.000000	59.000000	45.000000	-66.000000
0.260000	24.310000	83.550000	586.000000	0.000000	127.000000	59.000000	45.000000	-114.000000
0.270000	24.600000	82.370000	599.000000	0.000000	128.000000	59.000000	29.000000	-118.000000
0.280000	24.790000	81.140000	602.000000	0.000000	128.000000	59.000000	19.000000	-123.000000
0.290000	24.900000	80.150000	580.000000	0.000000	128.000000	59.000000	11.000000	-99.000000
0.300000	24.990000	79.310000	491.000000	0.000000	128.000000	59.000000	9.000000	-84.000000
0.310000	25.070000	78.710000	281.000000	0.000000	129.000000	60.000000	8.000000	-60.000000
0.320000	25.070000	78.420000	49.000000	0.000000	129.000000	60.000000	0.000000	-29.000000
0.330000	25.070000	78.420000	0.000000	1.000000	129.000000	60.000000	0.000000	0.000000
0.340000	24.690000	78.560000	0.000000	0.000000	129.000000	60.000000	-38.000000	14.000000
0.350000	24.340000	78.960000	0.000000	0.000000	128.000000	61.000000	-35.000000	40.000000
0.360000	23.960000	79.490000	0.000000	0.000000	126.000000	60.000000	-38.000000	53.000000
0.370000	23.960000	79.490000	25.000000	1.000000	126.000000	60.000000	0.000000	0.000000
0.380000	23.080000	80.120000	168.000000	0.000000	125.000000	59.000000	-88.000000	63.000000
0.390000	22.620000	80.250000	274.000000	0.000000	125.000000	59.000000	-46.000000	13.000000
0.400000	22.350000	80.300000	305.000000	0.000000	124.000000	58.000000	-27.000000	5.000000
0.410000	22.210000	80.350000	340.000000	0.000000	124.000000	58.000000	-14.000000	5.000000
0.420000	22.260000	80.350000	342.000000	0.000000	123.000000	58.000000	5.000000	0.000000
0.430000	22.460000	80.550000	345.000000	0.000000	123.000000	58.000000	20.000000	20.000000
0.440000	22.770000	80.810000	344.000000	0.000000	123.000000	58.000000	31.000000	26.000000
0.450000	23.260000	81.280000	317.000000	0.000000	122.000000	57.000000	49.000000	47.000000
0.460000	23.780000	81.980000	305.000000	0.000000	122.000000	57.000000	52.000000	70.000000
0.470000	24.340000	82.830000	314.000000	0.000000	123.000000	58.000000	56.000000	85.000000
0.480000	24.780000	83.540000	325.000000	0.000000	124.000000	57.000000	44.000000	71.000000
0.490000	25.130000	84.190000	334.000000	0.000000	124.000000	57.000000	35.000000	65.000000
0.500000	25.280000	84.760000	354.000000	0.000000	126.000000	58.000000	15.000000	57.000000
0.510000	25.410000	85.160000	359.000000	0.000000	126.000000	58.000000	13.000000	40.000000
0.520000	25.520000	85.440000	346.000000	0.000000	127.000000	59.000000	11.000000	28.000000
0.530000	25.640000	85.440000	348.000000	0.000000	127.000000	59.000000	12.000000	0.000000
0.540000	25.790000	85.160000	361.000000	0.000000	128.000000	59.000000	15.000000	-28.000000
0.550000	26.020000	84.610000	396.000000	0.000000	128.000000	59.000000	23.000000	-55.000000
0.560000	26.260000	83.480000	423.000000	0.000000	129.000000	60.000000	24.000000	-113.000000
0.570000	26.390000	82.330000	465.000000	0.000000	129.000000	60.000000	13.000000	-115.000000
0.580000	26.440000	81.130000	496.000000	0.000000	129.000000	60.000000	5.000000	-120.000000
0.590000	26.440000	80.140000	492.000000	0.000000	131.000000	60.000000	0.000000	-99.000000
0.600000	26.440000	79.290000	478.000000	0.000000	129.000000	60.000000	0.000000	-85.000000
0.610000	26.440000	78.950000	445.000000	0.000000	131.000000	61.000000	0.000000	-34.000000
0.620000	26.440000	78.950000	439.000000	0.000000	131.000000	61.000000	0.000000	0.000000
0.630000	26.440000	79.130000	431.000000	0.000000	131.000000	61.000000	0.000000	18.000000
0.640000	26.290000	79.800000	413.000000	0.000000	131.000000	61.000000	-15.000000	67.000000
0.650000	26.290000	80.820000	412.000000	0.000000	131.000000	61.000000	0.000000	102.000000
0.660000	26.290000	82.070000	420.000000	0.000000	131.000000	61.000000	0.000000	125.000000
0.670000	26.290000	83.440000	440.000000	0.000000	131.000000	61.000000	0.000000	137.000000
0.680000	26.430000	84.790000	447.000000	0.000000	131.000000	61.000000	14.000000	135.000000
0.690000	26.650000	86.130000	442.000000	0.000000	129.000000	61.000000	22.000000	134.000000
0.700000	26.940000	86.940000	435.000000	0.000000	129.000000	61.000000	29.000000	81.000000
0.710000	27.250000	87.380000	423.000000	0.000000	128.000000	61.000000	31.000000	44.000000
0.720000	27.470000	87.570000	377.000000	0.000000	128.000000	61.000000	22.000000	19.000000
0.730000	27.620000	87.520000	366.000000	0.000000	128.000000	61.000000	15.000000	-5.000000
0.740000	27.780000	87.030000	371.000000	0.000000	126.000000	60.000000	16.000000	-49.000000
0.750000	27.930000	86.250000	387.000000	0.000000	126.000000	60.000000	15.000000	-78.000000
0.760000	28.020000	85.020000	413.000000	0.000000	128.000000	61.000000	9.000000	-123.000000
0.770000	28.070000	83.770000	444.000000	0.000000	128.000000	61.000000	5.000000	-125.000000
0.780000	28.070000	82.500000	471.000000	0.000000	128.000000	61.000000	0.000000	-127.000000
0.790000	28.010000	81.500000	477.000000	0.000000	131.000000	61.000000	-6.000000	-100.000000
0.800000	28.010000	80.870000	475.000000	0.000000	131.000000	61.000000	0.000000	-63.000000
0.810000	28.010000	80.480000	448.000000	0.000000	131.000000	61.000000	0.000000	-39.000000
0.820000	28.100000	80.300000	431.000000	0.000000	132.000000	60.000000	9.000000	-18.000000
0.830000	28.100000	80.370000	423.000000	0.000000	134.000000	61.000000	0.000000	7.000000
0.840000	28.100000	80.620000	391.000000	0.000000	132.000000	61.000000	0.000000	25.000000
0.850000	28.170000	81.110000	399.000000	0.000000	132.000000	61.000000	7.000000	49.000000
0.860000	28.240000	81.630000	392.000000	0.000000	132.000000	61.000000	7.000000	52.000000
0.870000	28.320000	82.160000	404.000000	0.000000	131.000000	61.000000	8.000000	53.000000
0.880000	28.390000	82.630000	418.000000	0.000000	131.000000	61.000000	7.000000	47.000000
0.890000	28.450000	83.070000	414.000000	0.000000	132.000000	61.000000	6.000000	44.000000
0.900000	28.520000	83.350000	418.000000	0.000000	132.000000	61.000000	7.000000	28.000000
0.910000	28.610000	83.530000	428.000000	0.000000	132.000000	61.000000	9.000000	18.000000
0.920000	28.720000	83.530000	431.000000	0.000000	134.000000	61.000000	11.000000	0.000000
0.930000	28.850000	83.460000	440.000000	0.000000	134.000000	61.000000	13.000000	-7.000000
0.940000	29.000000	83.260000	463.000000	0.000000	134.000000	61.000000	15.000000	-20.000000
0.950000	29.120000	83.000000	474.000000	0.000000	134.000000	61.000000	12.000000	-26.000000
0.960000	29.220000	82.750000	473.000000	0.000000	135.000000	60.000000	10.000000	-25.000000
0.970000	29.320000	82.600000	467.000000	0.000000	135.000000	60.000000	10.000000	-15.000000
0.980000	29.410000	82.500000	477.000000	0.000000	135.000000	60.000000	9.000000	-10.000000
0.990000	29.490000	82.500000	480.000000	0.000000	135.000000	60.000000	8.000000	0.000000
1.000000	29.650000	82.650000	481.000000	0.000000	134.000000	60.000000	16.000000	15.000000
1.010000	29.810000	82.910000	480.000000	0.000000	134.000000	60.000000	16.000000	26.000000
1.020000	29.980000	83.340000	483.000000	0.000000	134.000000	60.000000	17.000000	43.000000
1.030000	30.150000	83.730000	494.000000	0.000000	134.000000	60.000000	17.000000	39.000000
1.040000	30.410000	84.100000	502.000000	0.000000	132.000000	60.000000	26.000000	37.000000
1.050000	30.340000	84.420000	519.000000	0.000000	132.000000	60.000000	-7.000000	32.000000
1.060000	30.020000	84.580000	513.000000	0.000000	132.000000	60.000000	-32.000000	16.000000
1.070000	29.960000	84.640000	519.000000	0.000000	131.000000	60.000000	-6.000000	6.000000
1.080000	29.890000	84.640000	512.000000	0.000000	131.000000	60.000000	-7.000000	0.000000
1.090000	29.890000	84.410000	513.000000	0.000000	131.000000	60.000000	0.000000	-23.000000
1.100000	29.830000	84.060000	522.000000	0.000000	131.000000	60.000000	-6.000000	-35.000000
1.110000	29.940000	83.720000	522.000000	0.000000	131.000000	60.000000	11.000000	-34.000000
1.120000	30.070000	83.500000	515.000000	0.000000	131.000000	60.000000	13.000000	-22.000000
1.130000	30.260000	83.350000	502.000000	0.000000	131.000000	60.000000	19.000000	-15.000000
1.140000	30.470000	83.350000	497.000000	0.000000	131.000000	60.000000	21.000000	0.000000
1.150000	30.720000	83.530000	502.000000	0.000000	132.000000	59.000000	25.000000	18.000000
1.160000	31.050000	83.890000	491.000000	0.000000	132.000000	59.000000	33.000000	36.000000
1.170000	31.380000	84.560000	492.000000	0.000000	131.000000	60.000000	33.000000	67.000000
1.180000	31.690000	85.380000	496.000000	0.000000	129.000000	59.000000	31.000000	82.000000
1.190000	31.860000	86.290000	512.000000	0.000000	129.000000	59.000000	17.000000	91.000000
1.200000	31.860000	86.840000	522.000000	0.000000	128.000000	59.000000	0.000000	55.000000
1.210000	31.860000	87.130000	540.000000	0.000000	127.000000	59.000000	0.000000	29.000000
1.220000	31.860000	87.250000	556.000000	0.000000	125.000000	59.000000	0.000000	12.000000
1.230000	31.790000	87.190000	565.000000	0.000000	125.000000	59.000000	-7.000000	-6.000000
1.240000	31.790000	86.760000	560.000000	0.000000	124.000000	58.000000	0.000000	-43.000000
1.250000	31.790000	86.080000	564.000000	0.000000	124.000000	58.000000	0.000000	-68.000000
1.260000	31.900000	85.290000	497.000000	0.000000	125.000000	59.000000	11.000000	-79.000000
1.270000	32.040000	84.480000	412.000000	0.000000	125.000000	59.000000	14.000000	-81.000000
1.280000	32.280000	83.640000	15.000000	0.000000	125.000000	59.000000	24.000000	-84.000000
1.290000	32.280000	83.640000	0.000000	1.000000	125.000000	59.000000	0.000000	0.000000
1.300000	32.770000	81.870000	0.000000	0.000000	127.000000	59.000000	49.000000	-177.000000
1.310000	32.590000	80.900000	0.000000	0.000000	127.000000	59.000000	-18.000000	-97.000000
1.320000	32.160000	79.860000	0.000000	0.000000	127.000000	59.000000	-43.000000	-104.000000
1.330000	31.270000	78.740000	0.000000	0.000000	127.000000	59.000000	-89.000000	-112.000000
1.340000	30.120000	77.570000	0.000000	0.000000	127.000000	59.000000	-115.000000	-117.000000
1.350000	28.800000	76.600000	0.000000	0.000000	127.000000	59.000000	-132.000000	-97.000000
1.360000	27.530000	75.690000	0.000000	0.000000	126.000000	58.000000	-127.000000	-91.000000
1.370000	26.290000	74.810000	0.000000	0.000000	126.000000	58.000000	-124.000000	-88.000000
1.380000	25.110000	73.930000	0.000000	0.000000	124.000000	57.000000	-118.000000	-88.000000
1.390000	25.110000	73.930000	15.000000	1.000000	124.000000	57.000000	0.000000	0.000000
1.400000	23.830000	73.030000	78.000000	0.000000	124.000000	57.000000	-128.000000	-90.000000
1.410000	23.830000	73.030000	0.000000	1.000000	124.000000	57.000000	0.000000	0.000000
1.420000	22.600000	74.000000	0.000000	0.000000	124.000000	57.000000	-123.000000	97.000000
1.430000	22.600000	75.000000	0.000000	0.000000	124.000000	57.000000	0.000000	100.000000
1.440000	22.600000	75.000000	71.000000	1.000000	123.000000	58.000000	0.000000	0.000000
1.450000	22.730000	77.080000	134.000000	0.000000	123.000000	58.000000	13.000000	208.000000
1.460000	23.000000	77.790000	163.000000	0.000000	121.000000	58.000000	27.000000	71.000000
1.470000	23.220000	78.010000	225.000000	0.000000	121.000000	58.000000	22.000000	22.000000
1.480000	23.390000	77.820000	348.000000	0.000000	121.000000	58.000000	17.000000	-19.000000
1.490000	23.530000	77.360000	455.000000	0.000000	121.000000	58.000000	14.000000	-46.000000
1.500000	23.660000	76.410000	520.000000	0.000000	123.000000	59.000000	13.000000	-95.000000
1.510000	23.660000	75.270000	595.000000	0.000000	123.000000	59.000000	0.000000	-114.000000
1.520000	23.660000	74.010000	642.000000	0.000000	123.000000	59.000000	0.000000	-126.000000
1.530000	23.550000	73.020000	661.000000	0.000000	123.000000	59.000000	-11.000000	-99.000000
1.540000	23.490000	72.400000	662.000000	0.000000	123.000000	59.000000	-6.000000	-62.000000
1.550000	23.490000	72.030000	661.000000	0.000000	125.000000	59.000000	0.000000	-37.000000
1.560000	23.490000	72.030000	659.000000	0.000000	125.000000	59.000000	0.000000	0.000000
1.570000	23.490000	72.270000	659.000000	0.000000	125.000000	59.000000	0.000000	24.000000
1.580000	23.490000	72.690000	653.000000	0.000000	125.000000	59.000000	0.000000	42.000000
1.590000	23.600000	73.730000	650.000000	0.000000	125.000000	59.000000	11.000000	104.000000
1.600000	23.750000	75.250000	659.000000	0.000000	124.000000	60.000000	15.000000	152.000000
1.610000	23.920000	77.090000	659.000000	0.000000	124.000000	60.000000	17.000000	184.000000
1.620000	24.340000	78.630000	650.000000	0.000000	124.000000	60.000000	42.000000	154.000000
1.630000	24.920000	79.570000	646.000000	0.000000	124.000000	60.000000	58.000000	94.000000
1.640000	25.500000	80.100000	627.000000	0.000000	124.000000	60.000000	58.000000	53.000000
1.650000	25.960000	80.160000	616.000000	0.000000	124.000000	60.000000	46.000000	6.000000
1.660000	26.330000	79.630000	622.000000	0.000000	125.000000	59.000000	37.000000	-53.000000
1.670000	26.540000	78.720000	636.000000	0.000000	126.000000	60.000000	21.000000	-91.000000
1.680000	26.380000	77.610000	659.000000	0.000000	126.000000	60.000000	-16.000000	-111.000000
1.690000	25.960000	76.330000	682.000000	0.000000	126.000000	60.000000	-42.000000	-128.000000
1.700000	25.290000	74.940000	699.000000	0.000000	128.000000	61.000000	-67.000000	-139.000000
1.710000	24.620000	73.740000	716.000000	0.000000	128.000000	61.000000	-67.000000	-120.000000
1.720000	23.950000	73.040000	694.000000	0.000000	128.000000	61.000000	-67.000000	-70.000000
1.730000	23.590000	72.680000	647.000000	0.000000	128.000000	61.000000	-36.000000	-36.000000
1.740000	23.460000	72.630000	504.000000	0.000000	128.000000	61.000000	-13.000000	-5.000000
1.750000	23.460000	72.870000	284.000000	0.000000	126.000000	60.000000	0.000000	24.000000
1.760000	23.640000	73.310000	137.000000	0.000000	126.000000	60.000000	18.000000	44.000000
1.770000	24.030000	73.990000	63.000000	0.000000	126.000000	60.000000	39.000000	68.000000
1.780000	24.570000	74.640000	63.000000	0.000000	125.000000	59.000000	54.000000	65.000000
1.790000	25.080000	75.080000	103.000000	0.000000	125.000000	59.000000	51.000000	44.000000
1.800000	25.500000	75.390000	168.000000	0.000000	125.000000	59.000000	42.000000	31.000000
1.810000	25.850000	75.590000	255.000000	0.000000	125.000000	59.000000	35.000000	20.000000
1.820000	26.200000	75.740000	337.000000	0.000000	125.000000	59.000000	35.000000	15.000000
1.830000	26.550000	75.850000	386.000000	0.000000	125.000000	59.000000	35.000000	11.000000
1.840000	26.910000	75.960000	428.000000	0.000000	125.000000	59.000000	36.000000	11.000000
1.850000	27.270000	76.100000	468.000000	0.000000	125.000000	59.000000	36.000000	14.000000
1.860000	27.630000	76.250000	494.000000	0.000000	125.000000	59.000000	36.000000	15.000000
1.870000	27.910000	76.400000	519.000000	0.000000	125.000000	60.000000	28.000000	15.000000
1.880000	28.130000	76.570000	559.000000	0.000000	125.000000	60.000000	22.000000	17.000000
1.890000	28.280000	76.750000	580.000000	0.000000	125.000000	60.000000	15.000000	18.000000
1.900000	28.330000	77.040000	595.000000	0.000000	125.000000	60.000000	5.000000	29.000000
1.910000	28.330000	77.360000	600.000000	0.000000	125.000000	60.000000	0.000000	32.000000
1.920000	28.180000	77.690000	616.000000	0.000000	125.000000	60.000000	-15.000000	33.000000
1.930000	27.960000	78.000000	611.000000	0.000000	126.000000	61.000000	-22.000000	31.000000
1.940000	27.690000	78.150000	610.000000	0.000000	126.000000	61.000000	-27.000000	15.000000
1.950000	27.380000	78.150000	617.000000	0.000000	126.000000	61.000000	-31.000000	0.000000
1.960000	27.050000	78.040000	619.000000	0.000000	126.000000	60.000000	-33.000000	-11.000000
1.970000	26.700000	77.750000	609.000000	0.000000	126.000000	60.000000	-35.000000	-29.000000
1.980000	26.490000	77.370000	609.000000	0.000000	126.000000	60.000000	-21.000000	-38.000000
1.990000	26.490000	76.830000	594.000000	0.000000	125.000000	59.000000	0.000000	-54.000000
2.000000	26.490000	76.280000	581.000000	0.000000	125.000000	59.000000	0.000000	-55.000000
2.010000	26.710000	75.860000	559.000000	0.000000	125.000000	59.000000	22.000000	-42.000000
2.020000	26.990000	75.520000	526.000000	0.000000	125.000000	59.000000	28.000000	-34.000000
2.030000	27.340000	75.440000	499.000000	0.000000	125.000000	59.000000	35.000000	-8.000000
2.040000	27.750000	75.550000	480.000000	0.000000	125.000000	59.000000	41.000000	11.000000
2.050000	28.120000	75.780000	478.000000	0.000000	125.000000	59.000000	37.000000	23.000000
2.060000	28.460000	76.180000	486.000000	0.000000	125.000000	59.000000	34.000000	40.000000
2.070000	28.770000	76.600000	491.000000	0.000000	124.000000	60.000000	31.000000	42.000000
2.080000	29.080000	77.030000	499.000000	0.000000	124.000000	60.000000	31.000000	43.000000
2.090000	29.320000	77.320000	507.000000	0.000000	124.000000	60.000000	24.000000	29.000000
2.100000	29.510000	77.580000	522.000000	0.000000	124.000000	60.000000	19.000000	26.000000
2.110000	29.600000	77.680000	544.000000	0.000000	124.000000	60.000000	9.000000	10.000000
2.120000	29.670000	77.680000	550.000000	0.000000	124.000000	60.000000	7.000000	0.000000
2.130000	29.720000	77.680000	564.000000	0.000000	124.000000	60.000000	5.000000	0.000000
2.140000	29.860000	77.680000	560.000000	0.000000	125.000000	59.000000	14.000000	0.000000
2.150000	30.030000	77.680000	561.000000	0.000000	125.000000	59.000000	17.000000	0.000000
2.160000	30.240000	77.740000	563.000000	0.000000	124.000000	58.000000	21.000000	6.000000
2.170000	30.460000	77.850000	563.000000	0.000000	124.000000	58.000000	22.000000	11.000000
2.180000	30.680000	78.000000	564.000000	0.000000	124.000000	58.000000	22.000000	15.000000
2.190000	30.800000	78.180000	567.000000	0.000000	124.000000	58.000000	12.000000	18.000000
2.200000	30.800000	78.370000	569.000000	0.000000	126.000000	58.000000	0.000000	19.000000
