t	x	y	pressure	penup	azimuth	inclination	v_x	v_y
0.000000	52.160000	85.270000	153.000000	1.000000	177.000000	57.000000	0.000000	0.000000
0.010000	52.160000	85.720000	305.000000	0.000000	177.000000	57.000000	0.000000	45.000000
0.020000	52.110000	86.080000	425.000000	0.000000	177.000000	57.000000	-5.000000	36.000000
0.030000	52.110000	86.390000	502.000000	0.000000	177.000000	57.000000	0.000000	31.000000
0.040000	52.170000	86.390000	516.000000	0.000000	177.000000	57.000000	6.000000	0.000000
0.050000	52.100000	86.290000	521.000000	0.000000	177.000000	57.000000	-7.000000	-10.000000
0.060000	51.960000	85.850000	526.000000	0.000000	178.000000	57.000000	-14.000000	-44.000000
0.070000	51.570000	85.100000	546.000000	0.000000	178.000000	57.000000	-39.000000	-75.000000
0.080000	51.110000	84.140000	542.000000	0.000000	178.000000	57.000000	-46.000000	-96.000000
0.090000	50.590000	83.450000	551.000000	0.000000	178.000000	57.000000	-52.000000	-69.000000
0.100000	50.230000	83.050000	564.000000	0.000000	178.000000	57.000000	-36.000000	-40.000000
0.110000	50.130000	82.840000	613.000000	0.000000	179.000000	56.000000	-10.000000	-21.000000
0.120000	50.210000	82.940000	643.000000	0.000000	179.000000	56.000000	8.000000	10.000000
0.130000	50.440000	83.430000	643.000000	0.000000	179.000000	56.000000	23.000000	49.000000
0.140000	50.930000	84.170000	641.000000	0.000000	179.000000	56.000000	49.000000	74.000000
0.150000	51.600000	85.180000	613.000000	0.000000	179.000000	56.000000	67.000000	101.000000
0.160000	52.180000	86.200000	594.000000	0.000000	179.000000	56.000000	58.000000	102.000000
0.170000	52.720000	87.220000	563.000000	0.000000	179.000000	56.000000	54.000000	102.000000
0.180000	53.230000	87.520000	529.000000	0.000000	178.000000	57.000000	51.000000	30.000000
0.190000	53.610000	87.200000	518.000000	0.000000	178.000000	57.000000	38.000000	-32.000000
0.200000	54.050000	86.470000	527.000000	0.000000	177.000000	57.000000	44.000000	-73.000000
0.210000	54.450000	85.480000	541.000000	0.000000	177.000000	57.000000	40.000000	-99.000000
0.220000	54.800000	84.560000	543.000000	0.000000	177.000000	57.000000	35.000000	-92.000000
0.230000	55.080000	83.700000	554.000000	0.000000	175.000000	57.000000	28.000000	-86.000000
0.240000	55.160000	83.290000	578.000000	0.000000	175.000000	57.000000	8.000000	-41.000000
0.250000	55.110000	83.140000	585.000000	0.000000	175.000000	57.000000	-5.000000	-15.000000
0.260000	54.850000	83.140000	602.000000	0.000000	176.000000	56.000000	-26.000000	0.000000
0.270000	54.150000	83.300000	597.000000	0.000000	176.000000	56.000000	-70.000000	16.000000
0.280000	53.150000	83.440000	585.000000	0.000000	177.000000	56.000000	-100.000000	14.000000
0.290000	52.140000	83.590000	567.000000	0.000000	177.000000	55.000000	-101.000000	15.000000
0.300000	51.480000	83.430000	404.000000	0.000000	177.000000	55.000000	-66.000000	-16.000000
0.310000	51.480000	83.430000	0.000000	1.000000	177.000000	55.000000	0.000000	0.000000
0.320000	51.320000	82.970000	0.000000	0.000000	177.000000	55.000000	-16.000000	-46.000000
0.330000	52.250000	82.970000	0.000000	0.000000	177.000000	55.000000	93.000000	0.000000
0.340000	53.600000	83.160000	0.000000	0.000000	177.000000	55.000000	135.000000	19.000000
0.350000	55.050000	83.610000	0.000000	0.000000	177.000000	55.000000	145.000000	45.000000
0.360000	56.250000	84.210000	0.000000	0.000000	179.000000	55.000000	120.000000	60.000000
0.370000	57.280000	84.910000	0.000000	0.000000	179.000000	55.000000	103.000000	70.000000
0.380000	57.740000	85.820000	0.000000	0.000000	179.000000	55.000000	46.000000	91.000000
0.390000	57.670000	86.730000	0.000000	0.000000	179.000000	55.000000	-7.000000	91.000000
0.400000	57.250000	87.630000	0.000000	0.000000	179.000000	55.000000	-42.000000	90.000000
0.410000	57.250000	87.630000	272.000000	1.000000	179.000000	55.000000	0.000000	0.000000
0.420000	56.290000	88.410000	279.000000	0.000000	179.000000	56.000000	-96.000000	78.000000
0.430000	55.880000	88.120000	319.000000	0.000000	179.000000	56.000000	-41.000000	-29.000000
0.440000	55.500000	87.420000	382.000000	0.000000	179.000000	56.000000	-38.000000	-70.000000
0.450000	55.180000	86.400000	407.000000	0.000000	177.000000	57.000000	-32.000000	-102.000000
0.460000	55.070000	85.170000	412.000000	0.000000	175.000000	57.000000	-11.000000	-123.000000
0.470000	55.070000	83.990000	366.000000	0.000000	175.000000	57.000000	0.000000	-118.000000
0.480000	55.270000	83.230000	171.000000	0.000000	175.000000	57.000000	20.000000	-76.000000
0.490000	55.270000	83.230000	0.000000	1.000000	174.000000	57.000000	0.000000	0.000000
0.500000	56.270000	82.670000	0.000000	0.000000	174.000000	56.000000	100.000000	-56.000000
0.510000	56.590000	82.960000	0.000000	0.000000	174.000000	56.000000	32.000000	29.000000
0.520000	56.740000	83.510000	0.000000	0.000000	176.000000	56.000000	15.000000	55.000000
0.530000	56.740000	84.100000	0.000000	0.000000	176.000000	56.000000	0.000000	59.000000
0.540000	56.740000	84.720000	0.000000	0.000000	177.000000	56.000000	0.000000	62.000000
0.550000	56.740000	85.360000	0.000000	0.000000	177.000000	56.000000	0.000000	64.000000
0.560000	56.810000	85.960000	0.000000	0.000000	179.000000	55.000000	7.000000	60.000000
0.570000	56.890000	86.670000	0.000000	0.000000	180.000000	55.000000	8.000000	71.000000
0.580000	56.990000	87.460000	0.000000	0.000000	180.000000	55.000000	10.000000	79.000000
0.590000	57.100000	88.370000	0.000000	0.000000	180.000000	55.000000	11.000000	91.000000
0.600000	57.150000	88.960000	0.000000	0.000000	180.000000	54.000000	5.000000	59.000000
0.610000	57.150000	88.960000	273.000000	1.000000	180.000000	55.000000	0.000000	0.000000
0.620000	57.150000	88.960000	311.000000	0.000000	180.000000	55.000000	0.000000	0.000000
0.630000	57.480000	88.490000	425.000000	0.000000	180.000000	55.000000	33.000000	-47.000000
0.640000	57.690000	87.950000	502.000000	0.000000	179.000000	56.000000	21.000000	-54.000000
0.650000	57.830000	86.990000	570.000000	0.000000	178.000000	57.000000	14.000000	-96.000000
0.660000	57.880000	86.020000	588.000000	0.000000	178.000000	57.000000	5.000000	-97.000000
0.670000	57.820000	85.050000	603.000000	0.000000	178.000000	57.000000	-6.000000	-97.000000
0.680000	57.670000	84.180000	591.000000	0.000000	178.000000	57.000000	-15.000000	-87.000000
0.690000	57.450000	83.690000	569.000000	0.000000	178.000000	57.000000	-22.000000	-49.000000
0.700000	57.320000	83.450000	529.000000	0.000000	178.000000	57.000000	-13.000000	-24.000000
0.710000	57.200000	83.450000	519.000000	0.000000	178.000000	57.000000	-12.000000	0.000000
0.720000	57.100000	83.450000	486.000000	0.000000	178.000000	57.000000	-10.000000	0.000000
0.730000	57.030000	83.530000	473.000000	0.000000	179.000000	56.000000	-7.000000	8.000000
0.740000	56.980000	84.540000	464.000000	0.000000	179.000000	56.000000	-5.000000	101.000000
0.750000	57.220000	85.070000	450.000000	0.000000	179.000000	56.000000	24.000000	53.000000
0.760000	57.690000	85.280000	448.000000	0.000000	177.000000	56.000000	47.000000	21.000000
0.770000	58.300000	85.280000	485.000000	0.000000	179.000000	56.000000	61.000000	0.000000
0.780000	58.850000	84.990000	524.000000	0.000000	179.000000	56.000000	55.000000	-29.000000
0.790000	59.220000	84.560000	546.000000	0.000000	179.000000	56.000000	37.000000	-43.000000
0.800000	59.470000	84.130000	554.000000	0.000000	180.000000	56.000000	25.000000	-43.000000
0.810000	59.270000	83.710000	563.000000	0.000000	180.000000	56.000000	-20.000000	-42.000000
0.820000	58.820000	83.350000	588.000000	0.000000	180.000000	56.000000	-45.000000	-36.000000
0.830000	58.200000	83.030000	592.000000	0.000000	180.000000	56.000000	-62.000000	-32.000000
0.840000	57.570000	82.910000	595.000000	0.000000	180.000000	56.000000	-63.000000	-12.000000
0.850000	57.240000	82.910000	556.000000	0.000000	180.000000	55.000000	-33.000000	0.000000
0.860000	57.110000	83.010000	492.000000	0.000000	180.000000	55.000000	-13.000000	10.000000
0.870000	57.460000	83.170000	445.000000	0.000000	180.000000	55.000000	35.000000	16.000000
0.880000	58.310000	83.290000	389.000000	0.000000	180.000000	55.000000	85.000000	12.000000
0.890000	59.480000	83.370000	371.000000	0.000000	180.000000	55.000000	117.000000	8.000000
0.900000	60.380000	83.370000	389.000000	0.000000	180.000000	55.000000	90.000000	0.000000
0.910000	61.080000	83.500000	443.000000	0.000000	180.000000	55.000000	70.000000	13.000000
0.920000	61.640000	83.630000	483.000000	0.000000	180.000000	55.000000	56.000000	13.000000
0.930000	61.920000	83.840000	491.000000	0.000000	180.000000	55.000000	28.000000	21.000000
0.940000	61.920000	84.160000	455.000000	0.000000	180.000000	55.000000	0.000000	32.000000
0.950000	61.720000	84.560000	450.000000	0.000000	180.000000	56.000000	-20.000000	40.000000
0.960000	61.220000	84.920000	455.000000	0.000000	180.000000	56.000000	-50.000000	36.000000
0.970000	60.740000	84.920000	456.000000	0.000000	180.000000	56.000000	-48.000000	0.000000
0.980000	60.270000	84.790000	469.000000	0.000000	180.000000	56.000000	-47.000000	-13.000000
0.990000	59.920000	84.400000	467.000000	0.000000	181.000000	56.000000	-35.000000	-39.000000
1.000000	59.840000	84.000000	473.000000	0.000000	181.000000	56.000000	-8.000000	-40.000000
1.010000	59.940000	83.570000	460.000000	0.000000	181.000000	56.000000	10.000000	-43.000000
1.020000	60.330000	83.320000	455.000000	0.000000	181.000000	56.000000	39.000000	-25.000000
1.030000	60.810000	83.180000	439.000000	0.000000	181.000000	56.000000	48.000000	-14.000000
1.040000	61.350000	83.180000	405.000000	0.000000	181.000000	56.000000	54.000000	0.000000
1.050000	61.860000	83.350000	422.000000	0.000000	181.000000	56.000000	51.000000	17.000000
1.060000	62.380000	83.620000	478.000000	0.000000	181.000000	56.000000	52.000000	27.000000
1.070000	62.880000	83.930000	499.000000	0.000000	181.000000	56.000000	50.000000	31.000000
1.080000	63.370000	84.280000	499.000000	0.000000	181.000000	56.000000	49.000000	35.000000
1.090000	63.690000	84.660000	492.000000	0.000000	180.000000	56.000000	32.000000	38.000000
1.100000	63.960000	85.030000	469.000000	0.000000	180.000000	56.000000	27.000000	37.000000
1.110000	64.190000	85.030000	435.000000	0.000000	180.000000	56.000000	23.000000	0.000000
1.120000	64.290000	84.730000	435.000000	0.000000	180.000000	56.000000	10.000000	-30.000000
1.130000	64.380000	84.240000	444.000000	0.000000	180.000000	56.000000	9.000000	-49.000000
1.140000	64.460000	83.760000	448.000000	0.000000	180.000000	56.000000	8.000000	-48.000000
1.150000	64.610000	83.320000	433.000000	0.000000	180.000000	56.000000	15.000000	-44.000000
1.160000	64.880000	83.150000	387.000000	0.000000	180.000000	56.000000	27.000000	-17.000000
1.170000	65.230000	83.150000	191.000000	0.000000	180.000000	56.000000	35.000000	0.000000
1.180000	65.230000	83.150000	0.000000	1.000000	180.000000	56.000000	0.000000	0.000000
1.190000	66.060000	84.090000	0.000000	0.000000	180.000000	56.000000	83.000000	94.000000
1.200000	66.340000	84.820000	0.000000	0.000000	180.000000	56.000000	28.000000	73.000000
1.210000	66.340000	85.840000	0.000000	0.000000	180.000000	57.000000	0.000000	102.000000
1.220000	66.290000	86.940000	0.000000	0.000000	180.000000	57.000000	-5.000000	110.000000
1.230000	66.170000	88.090000	0.000000	0.000000	180.000000	57.000000	-12.000000	115.000000
1.240000	66.170000	88.090000	113.000000	1.000000	180.000000	57.000000	0.000000	0.000000
1.250000	65.940000	89.620000	163.000000	0.000000	180.000000	57.000000	-23.000000	153.000000
1.260000	65.940000	89.780000	244.000000	0.000000	180.000000	57.000000	0.000000	16.000000
1.270000	65.880000	89.340000	330.000000	0.000000	178.000000	57.000000	-6.000000	-44.000000
1.280000	65.790000	88.510000	392.000000	0.000000	178.000000	57.000000	-9.000000	-83.000000
1.290000	65.720000	87.410000	423.000000	0.000000	178.000000	57.000000	-7.000000	-110.000000
1.300000	65.720000	86.270000	413.000000	0.000000	178.000000	57.000000	0.000000	-114.000000
1.310000	65.720000	85.120000	399.000000	0.000000	177.000000	57.000000	0.000000	-115.000000
1.320000	65.800000	84.360000	371.000000	0.000000	177.000000	57.000000	8.000000	-76.000000
1.330000	65.850000	83.870000	369.000000	0.000000	177.000000	57.000000	5.000000	-49.000000
1.340000	65.850000	83.690000	394.000000	0.000000	177.000000	57.000000	0.000000	-18.000000
1.350000	65.730000	83.750000	407.000000	0.000000	177.000000	57.000000	-12.000000	6.000000
1.360000	65.480000	83.980000	409.000000	0.000000	177.000000	57.000000	-25.000000	23.000000
1.370000	65.130000	84.440000	392.000000	0.000000	177.000000	57.000000	-35.000000	46.000000
1.380000	64.700000	85.020000	336.000000	0.000000	177.000000	57.000000	-43.000000	58.000000
1.390000	64.420000	85.680000	304.000000	0.000000	177.000000	57.000000	-28.000000	66.000000
1.400000	64.420000	86.370000	242.000000	0.000000	177.000000	58.000000	0.000000	69.000000
1.410000	64.560000	86.620000	175.000000	0.000000	177.000000	58.000000	14.000000	25.000000
1.420000	65.000000	86.620000	172.000000	0.000000	177.000000	58.000000	44.000000	0.000000
1.430000	65.470000	86.130000	239.000000	0.000000	177.000000	58.000000	47.000000	-49.000000
1.440000	66.000000	85.530000	344.000000	0.000000	177.000000	58.000000	53.000000	-60.000000
1.450000	66.350000	84.830000	418.000000	0.000000	177.000000	58.000000	35.000000	-70.000000
1.460000	66.580000	84.270000	514.000000	0.000000	177.000000	58.000000	23.000000	-56.000000
1.470000	66.630000	83.840000	572.000000	0.000000	177.000000	58.000000	5.000000	-43.000000
1.480000	66.720000	83.500000	614.000000	0.000000	177.000000	58.000000	9.000000	-34.000000
1.490000	66.900000	83.380000	620.000000	0.000000	177.000000	58.000000	18.000000	-12.000000
1.500000	67.390000	83.380000	585.000000	0.000000	178.000000	58.000000	49.000000	0.000000
1.510000	68.070000	83.560000	554.000000	0.000000	178.000000	57.000000	68.000000	18.000000
1.520000	68.650000	83.810000	486.000000	0.000000	178.000000	57.000000	58.000000	25.000000
1.530000	68.930000	84.200000	371.000000	0.000000	178.000000	57.000000	28.000000	39.000000
1.540000	69.010000	84.690000	287.000000	0.000000	178.000000	57.000000	8.000000	49.000000
1.550000	68.690000	85.270000	314.000000	0.000000	180.000000	57.000000	-32.000000	58.000000
1.560000	68.080000	85.690000	333.000000	0.000000	180.000000	58.000000	-61.000000	42.000000
1.570000	67.270000	85.690000	315.000000	0.000000	180.000000	58.000000	-81.000000	0.000000
1.580000	67.270000	85.690000	0.000000	1.000000	180.000000	58.000000	0.000000	0.000000
1.590000	66.620000	85.250000	0.000000	0.000000	180.000000	58.000000	-65.000000	-44.000000
1.600000	66.870000	85.030000	0.000000	0.000000	180.000000	58.000000	25.000000	-22.000000
1.610000	67.520000	84.850000	0.000000	0.000000	178.000000	58.000000	65.000000	-18.000000
1.620000	68.320000	84.680000	0.000000	0.000000	178.000000	58.000000	80.000000	-17.000000
1.630000	69.210000	84.520000	0.000000	0.000000	178.000000	58.000000	89.000000	-16.000000
1.640000	69.530000	84.220000	0.000000	0.000000	178.000000	57.000000	32.000000	-30.000000
1.650000	69.360000	83.820000	0.000000	0.000000	178.000000	57.000000	-17.000000	-40.000000
1.660000	68.870000	83.010000	0.000000	0.000000	177.000000	57.000000	-49.000000	-81.000000
1.670000	67.950000	82.510000	0.000000	0.000000	177.000000	56.000000	-92.000000	-50.000000
1.680000	66.710000	82.220000	0.000000	0.000000	177.000000	57.000000	-124.000000	-29.000000
1.690000	65.250000	81.710000	0.000000	0.000000	177.000000	58.000000	-146.000000	-51.000000
1.700000	63.640000	81.130000	0.000000	0.000000	177.000000	59.000000	-161.000000	-58.000000
1.710000	61.700000	80.440000	0.000000	0.000000	176.000000	61.000000	-194.000000	-69.000000
1.720000	59.530000	79.690000	0.000000	0.000000	174.000000	62.000000	-217.000000	-75.000000
1.730000	57.270000	78.910000	0.000000	0.000000	174.000000	62.000000	-226.000000	-78.000000
1.740000	55.690000	78.050000	0.000000	0.000000	173.000000	62.000000	-158.000000	-86.000000
1.750000	54.560000	77.420000	0.000000	0.000000	173.000000	59.000000	-113.000000	-63.000000
1.760000	54.140000	76.990000	0.000000	0.000000	171.000000	55.000000	-42.000000	-43.000000
1.770000	53.760000	77.040000	0.000000	0.000000	170.000000	51.000000	-38.000000	5.000000
1.780000	53.460000	77.330000	0.000000	0.000000	170.000000	46.000000	-30.000000	29.000000
1.790000	53.220000	77.790000	0.000000	0.000000	168.000000	43.000000	-24.000000	46.000000
1.800000	53.010000	78.140000	0.000000	0.000000	171.000000	43.000000	-21.000000	35.000000
1.810000	52.860000	78.480000	0.000000	0.000000	171.000000	44.000000	-15.000000	34.000000
1.820000	52.860000	78.940000	0.000000	0.000000	173.000000	46.000000	0.000000	46.000000
1.830000	52.860000	78.940000	170.000000	1.000000	174.000000	49.000000	0.000000	0.000000
1.840000	52.730000	80.030000	351.000000	0.000000	175.000000	51.000000	-13.000000	109.000000
1.850000	52.600000	80.290000	477.000000	0.000000	176.000000	53.000000	-13.000000	26.000000
1.860000	52.480000	80.370000	519.000000	0.000000	176.000000	55.000000	-12.000000	8.000000
1.870000	52.480000	80.120000	581.000000	0.000000	176.000000	56.000000	0.000000	-25.000000
1.880000	52.480000	79.350000	617.000000	0.000000	176.000000	56.000000	0.000000	-77.000000
1.890000	52.480000	78.240000	642.000000	0.000000	175.000000	57.000000	0.000000	-111.000000
1.900000	52.480000	77.370000	644.000000	0.000000	175.000000	57.000000	0.000000	-87.000000
1.910000	52.480000	76.800000	619.000000	0.000000	175.000000	57.000000	0.000000	-57.000000
1.920000	52.530000	76.420000	567.000000	0.000000	175.000000	57.000000	5.000000	-38.000000
1.930000	52.590000	76.360000	529.000000	0.000000	175.000000	57.000000	6.000000	-6.000000
1.940000	52.590000	76.610000	407.000000	0.000000	175.000000	57.000000	0.000000	25.000000
1.950000	52.480000	77.080000	315.000000	0.000000	175.000000	57.000000	-11.000000	47.000000
1.960000	52.480000	77.760000	246.000000	0.000000	175.000000	57.000000	0.000000	68.000000
1.970000	52.420000	78.560000	228.000000	0.000000	175.000000	57.000000	-6.000000	80.000000
1.980000	52.420000	79.440000	249.000000	0.000000	175.000000	57.000000	0.000000	88.000000
1.990000	52.480000	80.460000	215.000000	0.000000	175.000000	57.000000	6.000000	102.000000
2.000000	52.920000	80.950000	250.000000	0.000000	175.000000	57.000000	44.000000	49.000000
2.010000	53.600000	81.100000	346.000000	0.000000	175.000000	57.000000	68.000000	15.000000
2.020000	54.560000	80.920000	433.000000	0.000000	175.000000	57.000000	96.000000	-18.000000
2.030000	55.560000	80.420000	448.000000	0.000000	175.000000	57.000000	100.000000	-50.000000
2.040000	56.580000	79.720000	448.000000	0.000000	175.000000	57.000000	102.000000	-70.000000
2.050000	56.770000	79.020000	475.000000	0.000000	175.000000	57.000000	19.000000	-70.000000
2.060000	56.400000	78.440000	494.000000	0.000000	175.000000	57.000000	-37.000000	-58.000000
2.070000	55.660000	77.930000	522.000000	0.000000	175.000000	57.000000	-74.000000	-51.000000
2.080000	54.560000	77.610000	512.000000	0.000000	175.000000	57.000000	-110.000000	-32.000000
2.090000	53.780000	77.560000	436.000000	0.000000	177.000000	57.000000	-78.000000	-5.000000
2.100000	53.780000	77.560000	0.000000	1.000000	177.000000	57.000000	0.000000	0.000000
2.110000	53.200000	78.050000	0.000000	0.000000	177.000000	57.000000	-58.000000	49.000000
2.120000	53.630000	78.560000	0.000000	0.000000	177.000000	57.000000	43.000000	51.000000
2.130000	54.350000	79.170000	0.000000	0.000000	177.000000	57.000000	72.000000	61.000000
2.140000	55.210000	79.610000	0.000000	0.000000	175.000000	57.000000	86.000000	44.000000
2.150000	56.080000	79.800000	0.000000	0.000000	175.000000	57.000000	87.000000	19.000000
2.160000	56.630000	79.800000	0.000000	0.000000	175.000000	57.000000	55.000000	0.000000
2.170000	56.970000	79.310000	0.000000	0.000000	175.000000	57.000000	34.000000	-49.000000
2.180000	56.970000	79.310000	50.000000	1.000000	175.000000	57.000000	0.000000	0.000000
2.190000	56.760000	78.290000	151.000000	0.000000	175.000000	57.000000	-21.000000	-102.000000
2.200000	56.580000	78.030000	319.000000	0.000000	175.000000	57.000000	-18.000000	-26.000000
