t	x	y	pressure	penup	azimuth	inclination	v_x	v_y
0.000000	84.910000	43.140000	1.000000	1.000000	133.000000	52.000000	0.000000	0.000000
0.010000	84.910000	43.140000	32.000000	1.000000	133.000000	52.000000	0.000000	0.000000
0.020000	84.910000	43.140000	56.000000	0.000000	133.000000	52.000000	0.000000	0.000000
0.030000	84.720000	42.850000	66.000000	0.000000	132.000000	51.000000	-19.000000	-29.000000
0.040000	84.660000	42.800000	91.000000	0.000000	133.000000	51.000000	-6.000000	-5.000000
0.050000	84.660000	42.800000	136.000000	0.000000	133.000000	51.000000	0.000000	0.000000
0.060000	84.660000	42.800000	158.000000	0.000000	133.000000	51.000000	0.000000	0.000000
0.070000	84.660000	42.800000	188.000000	0.000000	133.000000	51.000000	0.000000	0.000000
0.080000	84.660000	42.870000	212.000000	0.000000	133.000000	51.000000	0.000000	7.000000
0.090000	84.780000	43.010000	254.000000	0.000000	133.000000	51.000000	12.000000	14.000000
0.100000	84.920000	43.230000	252.000000	0.000000	133.000000	51.000000	14.000000	22.000000
0.110000	85.130000	43.600000	262.000000	0.000000	133.000000	51.000000	21.000000	37.000000
0.120000	85.480000	44.080000	265.000000	0.000000	132.000000	51.000000	35.000000	48.000000
0.130000	85.910000	44.690000	264.000000	0.000000	132.000000	51.000000	43.000000	61.000000
0.140000	86.430000	45.380000	260.000000	0.000000	133.000000	52.000000	52.000000	69.000000
0.150000	86.970000	46.130000	250.000000	0.000000	133.000000	52.000000	54.000000	75.000000
0.160000	87.500000	47.000000	253.000000	0.000000	133.000000	52.000000	53.000000	87.000000
0.170000	88.020000	47.930000	246.000000	0.000000	133.000000	52.000000	52.000000	93.000000
0.180000	88.440000	48.890000	244.000000	0.000000	134.000000	52.000000	42.000000	96.000000
0.190000	88.800000	49.750000	253.000000	0.000000	134.000000	52.000000	36.000000	86.000000
0.200000	89.120000	50.350000	251.000000	0.000000	135.000000	52.000000	32.000000	60.000000
0.210000	89.330000	50.790000	247.000000	0.000000	136.000000	51.000000	21.000000	44.000000
0.220000	89.470000	51.020000	253.000000	0.000000	136.000000	51.000000	14.000000	23.000000
0.230000	89.540000	51.190000	245.000000	0.000000	136.000000	50.000000	7.000000	17.000000
0.240000	89.600000	51.240000	247.000000	0.000000	137.000000	50.000000	6.000000	5.000000
0.250000	89.600000	51.240000	249.000000	0.000000	137.000000	50.000000	0.000000	0.000000
0.260000	89.600000	51.240000	256.000000	0.000000	137.000000	50.000000	0.000000	0.000000
0.270000	89.600000	51.080000	244.000000	0.000000	138.000000	49.000000	0.000000	-16.000000
0.280000	89.660000	50.890000	254.000000	0.000000	137.000000	48.000000	6.000000	-19.000000
0.290000	89.660000	50.640000	247.000000	0.000000	137.000000	48.000000	0.000000	-25.000000
0.300000	89.570000	50.310000	249.000000	0.000000	137.000000	48.000000	-9.000000	-33.000000
0.310000	89.440000	49.910000	247.000000	0.000000	137.000000	48.000000	-13.000000	-40.000000
0.320000	89.250000	49.450000	255.000000	0.000000	137.000000	48.000000	-19.000000	-46.000000
0.330000	89.010000	48.920000	257.000000	0.000000	137.000000	48.000000	-24.000000	-53.000000
0.340000	88.790000	48.320000	262.000000	0.000000	136.000000	49.000000	-22.000000	-60.000000
0.350000	88.560000	47.680000	260.000000	0.000000	137.000000	50.000000	-23.000000	-64.000000
0.360000	88.350000	47.020000	262.000000	0.000000	137.000000	50.000000	-21.000000	-66.000000
0.370000	88.190000	46.340000	269.000000	0.000000	136.000000	50.000000	-16.000000	-68.000000
0.380000	88.070000	45.690000	265.000000	0.000000	137.000000	51.000000	-12.000000	-65.000000
0.390000	88.000000	45.060000	270.000000	0.000000	136.000000	51.000000	-7.000000	-63.000000
0.400000	88.000000	44.520000	270.000000	0.000000	135.000000	52.000000	0.000000	-54.000000
0.410000	88.000000	44.040000	272.000000	0.000000	136.000000	52.000000	0.000000	-48.000000
0.420000	88.070000	43.610000	277.000000	0.000000	136.000000	52.000000	7.000000	-43.000000
0.430000	88.070000	43.230000	277.000000	0.000000	136.000000	52.000000	0.000000	-38.000000
0.440000	88.130000	42.950000	277.000000	0.000000	136.000000	52.000000	6.000000	-28.000000
0.450000	88.130000	42.740000	279.000000	0.000000	135.000000	52.000000	0.000000	-21.000000
0.460000	88.190000	42.580000	277.000000	0.000000	135.000000	52.000000	6.000000	-16.000000
0.470000	88.190000	42.470000	279.000000	0.000000	135.000000	52.000000	0.000000	-11.000000
0.480000	88.190000	42.400000	277.000000	0.000000	135.000000	52.000000	0.000000	-7.000000
0.490000	88.040000	42.350000	279.000000	0.000000	136.000000	51.000000	-15.000000	-5.000000
0.500000	87.920000	42.280000	277.000000	0.000000	136.000000	51.000000	-12.000000	-7.000000
0.510000	87.690000	42.200000	274.000000	0.000000	136.000000	51.000000	-23.000000	-8.000000
0.520000	87.380000	42.100000	265.000000	0.000000	136.000000	51.000000	-31.000000	-10.000000
0.530000	86.990000	42.020000	264.000000	0.000000	136.000000	51.000000	-39.000000	-8.000000
0.540000	86.550000	41.920000	244.000000	0.000000	137.000000	51.000000	-44.000000	-10.000000
0.550000	86.070000	41.870000	233.000000	0.000000	136.000000	51.000000	-48.000000	-5.000000
0.560000	85.640000	41.870000	249.000000	0.000000	136.000000	51.000000	-43.000000	0.000000
0.570000	85.260000	41.870000	247.000000	0.000000	135.000000	51.000000	-38.000000	0.000000
0.580000	85.000000	41.930000	252.000000	0.000000	135.000000	51.000000	-26.000000	6.000000
0.590000	84.810000	42.060000	267.000000	0.000000	135.000000	51.000000	-19.000000	13.000000
0.600000	84.700000	42.140000	280.000000	0.000000	135.000000	51.000000	-11.000000	8.000000
0.610000	84.700000	42.210000	285.000000	0.000000	135.000000	51.000000	0.000000	7.000000
0.620000	84.700000	42.270000	282.000000	0.000000	135.000000	51.000000	0.000000	6.000000
0.630000	84.790000	42.330000	270.000000	0.000000	135.000000	51.000000	9.000000	6.000000
0.640000	84.940000	42.420000	274.000000	0.000000	135.000000	51.000000	15.000000	9.000000
0.650000	85.140000	42.510000	274.000000	0.000000	135.000000	51.000000	20.000000	9.000000
0.660000	85.400000	42.610000	277.000000	0.000000	136.000000	50.000000	26.000000	10.000000
0.670000	85.730000	42.730000	279.000000	0.000000	135.000000	51.000000	33.000000	12.000000
0.680000	86.100000	42.830000	279.000000	0.000000	135.000000	51.000000	37.000000	10.000000
0.690000	86.490000	42.990000	277.000000	0.000000	135.000000	51.000000	39.000000	16.000000
0.700000	86.910000	43.190000	270.000000	0.000000	135.000000	51.000000	42.000000	20.000000
0.710000	87.370000	43.390000	257.000000	0.000000	135.000000	51.000000	46.000000	20.000000
0.720000	87.820000	43.620000	233.000000	0.000000	136.000000	51.000000	45.000000	23.000000
0.730000	88.240000	43.870000	203.000000	0.000000	135.000000	52.000000	42.000000	25.000000
0.740000	88.640000	44.060000	173.000000	0.000000	135.000000	52.000000	40.000000	19.000000
0.750000	89.020000	44.230000	146.000000	0.000000	135.000000	52.000000	38.000000	17.000000
0.760000	89.270000	44.360000	130.000000	0.000000	135.000000	52.000000	25.000000	13.000000
0.770000	89.440000	44.410000	104.000000	0.000000	134.000000	51.000000	17.000000	5.000000
0.780000	89.540000	44.410000	58.000000	0.000000	133.000000	52.000000	10.000000	0.000000
0.790000	89.540000	44.480000	25.000000	0.000000	132.000000	51.000000	0.000000	7.000000
0.800000	89.540000	44.480000	0.000000	1.000000	132.000000	51.000000	0.000000	0.000000
0.810000	89.590000	44.480000	0.000000	0.000000	130.000000	51.000000	5.000000	0.000000
0.820000	89.590000	44.480000	0.000000	0.000000	130.000000	51.000000	0.000000	0.000000
0.830000	89.590000	44.530000	0.000000	0.000000	130.000000	51.000000	0.000000	5.000000
0.840000	89.590000	44.530000	0.000000	0.000000	129.000000	50.000000	0.000000	0.000000
0.850000	89.590000	44.530000	0.000000	0.000000	129.000000	50.000000	0.000000	0.000000
0.860000	89.590000	44.590000	0.000000	0.000000	129.000000	50.000000	0.000000	6.000000
0.870000	89.590000	44.590000	0.000000	0.000000	129.000000	50.000000	0.000000	0.000000
0.880000	89.590000	44.590000	0.000000	0.000000	129.000000	50.000000	0.000000	0.000000
0.890000	89.640000	44.640000	0.000000	0.000000	129.000000	50.000000	5.000000	5.000000
0.900000	89.640000	44.640000	0.000000	0.000000	129.000000	50.000000	0.000000	0.000000
0.910000	89.700000	44.700000	0.000000	0.000000	129.000000	50.000000	6.000000	6.000000
0.920000	89.700000	44.700000	0.000000	0.000000	129.000000	50.000000	0.000000	0.000000
0.930000	89.750000	44.700000	0.000000	0.000000	129.000000	50.000000	5.000000	0.000000
0.940000	89.750000	44.700000	0.000000	0.000000	129.000000	50.000000	0.000000	0.000000
0.950000	89.750000	44.700000	10.000000	0.000000	129.000000	50.000000	0.000000	0.000000
0.960000	89.750000	44.700000	36.000000	1.000000	129.000000	50.000000	0.000000	0.000000
0.970000	89.750000	44.700000	67.000000	0.000000	129.000000	50.000000	0.000000	0.000000
0.980000	89.750000	44.700000	68.000000	0.000000	129.000000	50.000000	0.000000	0.000000
0.990000	89.750000	44.700000	91.000000	0.000000	129.000000	50.000000	0.000000	0.000000
1.000000	89.750000	44.700000	105.000000	0.000000	128.000000	50.000000	0.000000	0.000000
1.010000	89.750000	44.700000	139.000000	0.000000	128.000000	50.000000	0.000000	0.000000
1.020000	90.070000	44.970000	149.000000	0.000000	128.000000	50.000000	32.000000	27.000000
1.030000	90.200000	45.100000	168.000000	0.000000	128.000000	50.000000	13.000000	13.000000
1.040000	90.380000	45.360000	179.000000	0.000000	128.000000	50.000000	18.000000	26.000000
1.050000	90.620000	45.660000	175.000000	0.000000	128.000000	50.000000	24.000000	30.000000
1.060000	90.870000	45.980000	181.000000	0.000000	129.000000	51.000000	25.000000	32.000000
1.070000	91.150000	46.400000	185.000000	0.000000	129.000000	51.000000	28.000000	42.000000
1.080000	91.460000	46.880000	171.000000	0.000000	129.000000	51.000000	31.000000	48.000000
1.090000	91.770000	47.410000	184.000000	0.000000	129.000000	51.000000	31.000000	53.000000
1.100000	92.060000	48.090000	173.000000	0.000000	132.000000	51.000000	29.000000	68.000000
1.110000	92.320000	48.820000	148.000000	0.000000	132.000000	51.000000	26.000000	73.000000
1.120000	92.550000	49.580000	136.000000	0.000000	133.000000	51.000000	23.000000	76.000000
1.130000	92.690000	50.170000	137.000000	0.000000	135.000000	51.000000	14.000000	59.000000
1.140000	92.740000	50.560000	137.000000	0.000000	135.000000	51.000000	5.000000	39.000000
1.150000	92.740000	50.820000	139.000000	0.000000	137.000000	51.000000	0.000000	26.000000
1.160000	92.740000	50.930000	144.000000	0.000000	137.000000	51.000000	0.000000	11.000000
1.170000	92.680000	51.010000	149.000000	0.000000	138.000000	50.000000	-6.000000	8.000000
1.180000	92.680000	51.010000	153.000000	0.000000	138.000000	50.000000	0.000000	0.000000
1.190000	92.630000	51.010000	153.000000	0.000000	138.000000	50.000000	-5.000000	0.000000
1.200000	92.630000	51.010000	153.000000	0.000000	138.000000	50.000000	0.000000	0.000000
1.210000	92.580000	51.010000	156.000000	0.000000	138.000000	50.000000	-5.000000	0.000000
1.220000	92.510000	50.890000	151.000000	0.000000	140.000000	50.000000	-7.000000	-12.000000
1.230000	92.400000	50.700000	153.000000	0.000000	140.000000	50.000000	-11.000000	-19.000000
1.240000	92.230000	50.430000	153.000000	0.000000	140.000000	50.000000	-17.000000	-27.000000
1.250000	92.020000	50.090000	151.000000	0.000000	140.000000	50.000000	-21.000000	-34.000000
1.260000	91.790000	49.570000	167.000000	0.000000	138.000000	50.000000	-23.000000	-52.000000
1.270000	91.490000	48.930000	168.000000	0.000000	138.000000	50.000000	-30.000000	-64.000000
1.280000	91.180000	48.050000	187.000000	0.000000	138.000000	50.000000	-31.000000	-88.000000
1.290000	90.850000	47.260000	180.000000	0.000000	137.000000	51.000000	-33.000000	-79.000000
1.300000	90.540000	46.540000	191.000000	0.000000	136.000000	50.000000	-31.000000	-72.000000
1.310000	90.340000	45.810000	207.000000	0.000000	135.000000	51.000000	-20.000000	-73.000000
1.320000	90.200000	45.150000	217.000000	0.000000	134.000000	50.000000	-14.000000	-66.000000
1.330000	90.080000	44.550000	218.000000	0.000000	133.000000	51.000000	-12.000000	-60.000000
1.340000	90.000000	44.050000	218.000000	0.000000	133.000000	51.000000	-8.000000	-50.000000
1.350000	90.000000	43.630000	225.000000	0.000000	130.000000	51.000000	0.000000	-42.000000
1.360000	90.000000	43.270000	223.000000	0.000000	130.000000	51.000000	0.000000	-36.000000
1.370000	90.050000	43.050000	232.000000	0.000000	130.000000	51.000000	5.000000	-22.000000
1.380000	90.130000	42.940000	242.000000	0.000000	130.000000	51.000000	8.000000	-11.000000
1.390000	90.230000	42.940000	254.000000	0.000000	130.000000	51.000000	10.000000	0.000000
1.400000	90.350000	42.940000	244.000000	0.000000	132.000000	50.000000	12.000000	0.000000
1.410000	90.500000	43.050000	239.000000	0.000000	132.000000	50.000000	15.000000	11.000000
1.420000	90.730000	43.320000	206.000000	0.000000	132.000000	50.000000	23.000000	27.000000
1.430000	90.940000	43.640000	212.000000	0.000000	132.000000	50.000000	21.000000	32.000000
1.440000	91.140000	44.010000	191.000000	0.000000	132.000000	50.000000	20.000000	37.000000
1.450000	91.370000	44.410000	176.000000	0.000000	130.000000	51.000000	23.000000	40.000000
1.460000	91.550000	44.710000	172.000000	0.000000	130.000000	51.000000	18.000000	30.000000
1.470000	91.690000	44.980000	158.000000	0.000000	130.000000	51.000000	14.000000	27.000000
1.480000	91.810000	45.200000	148.000000	0.000000	129.000000	51.000000	12.000000	22.000000
1.490000	91.890000	45.360000	143.000000	0.000000	129.000000	51.000000	8.000000	16.000000
1.500000	91.940000	45.470000	141.000000	0.000000	130.000000	52.000000	5.000000	11.000000
1.510000	91.940000	45.520000	139.000000	0.000000	129.000000	52.000000	0.000000	5.000000
1.520000	91.940000	45.520000	148.000000	0.000000	129.000000	52.000000	0.000000	0.000000
1.530000	91.940000	45.520000	153.000000	0.000000	129.000000	52.000000	0.000000	0.000000
1.540000	91.870000	45.520000	161.000000	0.000000	129.000000	52.000000	-7.000000	0.000000
1.550000	91.870000	45.430000	167.000000	0.000000	129.000000	52.000000	0.000000	-9.000000
1.560000	91.800000	45.360000	168.000000	0.000000	129.000000	52.000000	-7.000000	-7.000000
1.570000	91.800000	45.280000	168.000000	0.000000	129.000000	52.000000	0.000000	-8.000000
1.580000	91.750000	45.280000	175.000000	0.000000	129.000000	52.000000	-5.000000	0.000000
1.590000	91.750000	45.210000	187.000000	0.000000	129.000000	52.000000	0.000000	-7.000000
1.600000	91.750000	45.210000	183.000000	0.000000	129.000000	52.000000	0.000000	0.000000
1.610000	91.800000	45.130000	196.000000	0.000000	129.000000	52.000000	5.000000	-8.000000
1.620000	91.800000	45.130000	212.000000	0.000000	129.000000	52.000000	0.000000	0.000000
1.630000	91.880000	45.130000	220.000000	0.000000	129.000000	52.000000	8.000000	0.000000
1.640000	91.940000	45.200000	225.000000	0.000000	130.000000	52.000000	6.000000	7.000000
1.650000	91.990000	45.250000	225.000000	0.000000	130.000000	52.000000	5.000000	5.000000
1.660000	91.990000	45.250000	235.000000	0.000000	130.000000	52.000000	0.000000	0.000000
1.670000	92.060000	45.320000	233.000000	0.000000	128.000000	52.000000	7.000000	7.000000
1.680000	92.060000	45.370000	246.000000	0.000000	128.000000	52.000000	0.000000	5.000000
1.690000	92.110000	45.430000	239.000000	0.000000	129.000000	52.000000	5.000000	6.000000
1.700000	92.110000	45.430000	239.000000	0.000000	129.000000	52.000000	0.000000	0.000000
1.710000	92.110000	45.430000	246.000000	0.000000	129.000000	52.000000	0.000000	0.000000
1.720000	92.110000	45.430000	244.000000	0.000000	129.000000	52.000000	0.000000	0.000000
1.730000	92.110000	45.430000	249.000000	0.000000	129.000000	52.000000	0.000000	0.000000
1.740000	92.110000	45.430000	254.000000	0.000000	129.000000	52.000000	0.000000	0.000000
1.750000	92.110000	45.430000	256.000000	0.000000	129.000000	52.000000	0.000000	0.000000
1.760000	92.110000	45.430000	241.000000	0.000000	129.000000	52.000000	0.000000	0.000000
1.770000	92.110000	45.430000	247.000000	0.000000	129.000000	52.000000	0.000000	0.000000
1.780000	92.110000	45.430000	250.000000	0.000000	129.000000	52.000000	0.000000	0.000000
1.790000	92.110000	45.430000	255.000000	0.000000	129.000000	52.000000	0.000000	0.000000
1.800000	92.110000	45.430000	259.000000	0.000000	129.000000	52.000000	0.000000	0.000000
1.810000	92.110000	45.430000	265.000000	0.000000	129.000000	52.000000	0.000000	0.000000
1.820000	92.110000	45.430000	267.000000	0.000000	129.000000	52.000000	0.000000	0.000000
1.830000	92.110000	45.430000	269.000000	0.000000	129.000000	52.000000	0.000000	0.000000
1.840000	92.110000	45.430000	272.000000	0.000000	128.000000	52.000000	0.000000	0.000000
1.850000	92.110000	45.430000	279.000000	0.000000	128.000000	52.000000	0.000000	0.000000
1.860000	92.110000	45.430000	280.000000	0.000000	128.000000	52.000000	0.000000	0.000000
1.870000	92.110000	45.430000	280.000000	0.000000	128.000000	52.000000	0.000000	0.000000
1.880000	92.110000	45.430000	277.000000	0.000000	128.000000	52.000000	0.000000	0.000000
1.890000	92.110000	45.430000	280.000000	0.000000	128.000000	52.000000	0.000000	0.000000
1.900000	92.110000	45.430000	277.000000	0.000000	128.000000	52.000000	0.000000	0.000000
1.910000	92.110000	45.430000	277.000000	0.000000	128.000000	52.000000	0.000000	0.000000
1.920000	92.110000	45.430000	277.000000	0.000000	128.000000	52.000000	0.000000	0.000000
1.930000	92.110000	45.430000	274.000000	0.000000	128.000000	52.000000	0.000000	0.000000
1.940000	92.110000	45.430000	269.000000	0.000000	128.000000	52.000000	0.000000	0.000000
1.950000	92.110000	45.430000	267.000000	0.000000	128.000000	52.000000	0.000000	0.000000
1.960000	92.110000	45.430000	270.000000	0.000000	128.000000	52.000000	0.000000	0.000000
1.970000	92.110000	45.430000	270.000000	0.000000	129.000000	52.000000	0.000000	0.000000
1.980000	92.110000	45.430000	269.000000	0.000000	129.000000	52.000000	0.000000	0.000000
1.990000	92.110000	45.430000	272.000000	0.000000	129.000000	52.000000	0.000000	0.000000
2.000000	92.110000	45.430000	272.000000	0.000000	129.000000	52.000000	0.000000	0.000000
2.010000	92.110000	45.430000	275.000000	0.000000	129.000000	52.000000	0.000000	0.000000
2.020000	92.110000	45.430000	275.000000	0.000000	129.000000	52.000000	0.000000	0.000000
2.030000	92.110000	45.430000	277.000000	0.000000	129.000000	52.000000	0.000000	0.000000
2.040000	92.110000	45.430000	279.000000	0.000000	129.000000	52.000000	0.000000	0.000000
2.050000	92.110000	45.430000	285.000000	0.000000	129.000000	52.000000	0.000000	0.000000
2.060000	92.110000	45.430000	274.000000	0.000000	129.000000	52.000000	0.000000	0.000000
2.070000	92.110000	45.430000	279.000000	0.000000	129.000000	52.000000	0.000000	0.000000
2.080000	92.110000	45.430000	284.000000	0.000000	129.000000	52.000000	0.000000	0.000000
2.090000	92.200000	45.510000	289.000000	0.000000	129.000000	52.000000	9.000000	8.000000
2.100000	92.200000	45.570000	294.000000	0.000000	129.000000	52.000000	0.000000	6.000000
2.110000	92.310000	45.640000	309.000000	0.000000	129.000000	52.000000	11.000000	7.000000
2.120000	92.430000	45.760000	311.000000	0.000000	129.000000	52.000000	12.000000	12.000000
2.130000	92.610000	45.920000	317.000000	0.000000	129.000000	52.000000	18.000000	16.000000
2.140000	92.820000	46.140000	310.000000	0.000000	129.000000	52.000000	21.000000	22.000000
2.150000	93.050000	46.370000	307.000000	0.000000	130.000000	52.000000	23.000000	23.000000
2.160000	93.260000	46.590000	314.000000	0.000000	130.000000	52.000000	21.000000	22.000000
2.170000	93.480000	46.870000	305.000000	0.000000	130.000000	52.000000	22.000000	28.000000
2.180000	93.700000	47.180000	311.000000	0.000000	130.000000	52.000000	22.000000	31.000000
2.190000	93.990000	47.590000	301.000000	0.000000	133.000000	52.000000	29.000000	41.000000
2.200000	94.230000	48.030000	301.000000	0.000000	133.000000	52.000000	24.000000	44.000000
2.210000	94.410000	48.500000	282.000000	0.000000	134.000000	51.000000	18.000000	47.000000
2.220000	94.530000	48.910000	260.000000	0.000000	135.000000	52.000000	12.000000	41.000000
