t	x	y	pressure	penup	azimuth	inclination	v_x	v_y
0.000000	51.940000	68.230000	196.000000	1.000000	122.000000	54.000000	0.000000	0.000000
0.010000	51.860000	69.430000	301.000000	0.000000	122.000000	54.000000	-8.000000	120.000000
0.020000	51.700000	70.030000	387.000000	0.000000	123.000000	53.000000	-16.000000	60.000000
0.030000	51.640000	70.610000	473.000000	0.000000	125.000000	54.000000	-6.000000	58.000000
0.040000	51.730000	70.960000	570.000000	0.000000	127.000000	53.000000	9.000000	35.000000
0.050000	51.910000	71.180000	603.000000	0.000000	128.000000	53.000000	18.000000	22.000000
0.060000	51.910000	71.180000	636.000000	0.000000	129.000000	52.000000	0.000000	0.000000
0.070000	51.960000	70.890000	666.000000	0.000000	130.000000	52.000000	5.000000	-29.000000
0.080000	52.060000	70.400000	691.000000	0.000000	130.000000	52.000000	10.000000	-49.000000
0.090000	52.200000	69.270000	703.000000	0.000000	130.000000	52.000000	14.000000	-113.000000
0.100000	52.140000	68.050000	710.000000	0.000000	130.000000	52.000000	-6.000000	-122.000000
0.110000	51.960000	66.770000	731.000000	0.000000	129.000000	52.000000	-18.000000	-128.000000
0.120000	51.700000	65.670000	725.000000	0.000000	128.000000	53.000000	-26.000000	-110.000000
0.130000	51.500000	64.940000	730.000000	0.000000	125.000000	53.000000	-20.000000	-73.000000
0.140000	51.330000	64.470000	752.000000	0.000000	124.000000	53.000000	-17.000000	-47.000000
0.150000	51.170000	64.190000	784.000000	0.000000	124.000000	53.000000	-16.000000	-28.000000
0.160000	51.080000	64.310000	770.000000	0.000000	123.000000	53.000000	-9.000000	12.000000
0.170000	50.870000	64.710000	777.000000	0.000000	122.000000	54.000000	-21.000000	40.000000
0.180000	50.530000	65.450000	787.000000	0.000000	122.000000	54.000000	-34.000000	74.000000
0.190000	50.130000	66.220000	790.000000	0.000000	121.000000	53.000000	-40.000000	77.000000
0.200000	50.020000	67.010000	788.000000	0.000000	121.000000	53.000000	-11.000000	79.000000
0.210000	50.150000	67.370000	788.000000	0.000000	121.000000	53.000000	13.000000	36.000000
0.220000	50.450000	67.660000	787.000000	0.000000	121.000000	53.000000	30.000000	29.000000
0.230000	50.750000	67.860000	791.000000	0.000000	121.000000	53.000000	30.000000	20.000000
0.240000	51.620000	67.980000	797.000000	0.000000	122.000000	54.000000	87.000000	12.000000
0.250000	52.870000	67.980000	785.000000	0.000000	122.000000	54.000000	125.000000	0.000000
0.260000	53.970000	67.880000	791.000000	0.000000	122.000000	54.000000	110.000000	-10.000000
0.270000	54.850000	67.640000	796.000000	0.000000	124.000000	54.000000	88.000000	-24.000000
0.280000	55.570000	67.360000	802.000000	0.000000	124.000000	54.000000	72.000000	-28.000000
0.290000	56.170000	67.010000	803.000000	0.000000	125.000000	55.000000	60.000000	-35.000000
0.300000	56.590000	66.660000	800.000000	0.000000	125.000000	55.000000	42.000000	-35.000000
0.310000	56.890000	66.310000	797.000000	0.000000	124.000000	55.000000	30.000000	-35.000000
0.320000	57.070000	66.050000	790.000000	0.000000	125.000000	56.000000	18.000000	-26.000000
0.330000	57.010000	65.840000	790.000000	0.000000	125.000000	56.000000	-6.000000	-21.000000
0.340000	56.780000	65.690000	785.000000	0.000000	123.000000	56.000000	-23.000000	-15.000000
0.350000	56.350000	65.550000	767.000000	0.000000	123.000000	56.000000	-43.000000	-14.000000
0.360000	55.710000	65.430000	758.000000	0.000000	123.000000	56.000000	-64.000000	-12.000000
0.370000	54.940000	65.380000	755.000000	0.000000	123.000000	56.000000	-77.000000	-5.000000
0.380000	54.150000	65.440000	755.000000	0.000000	123.000000	56.000000	-79.000000	6.000000
0.390000	53.580000	65.570000	763.000000	0.000000	123.000000	56.000000	-57.000000	13.000000
0.400000	53.150000	65.750000	761.000000	0.000000	123.000000	56.000000	-43.000000	18.000000
0.410000	53.150000	65.920000	757.000000	0.000000	125.000000	56.000000	0.000000	17.000000
0.420000	53.150000	66.080000	751.000000	0.000000	122.000000	56.000000	0.000000	16.000000
0.430000	53.390000	66.290000	749.000000	0.000000	122.000000	56.000000	24.000000	21.000000
0.440000	53.760000	66.480000	746.000000	0.000000	122.000000	56.000000	37.000000	19.000000
0.450000	54.510000	66.770000	748.000000	0.000000	122.000000	56.000000	75.000000	29.000000
0.460000	55.430000	67.150000	752.000000	0.000000	122.000000	56.000000	92.000000	38.000000
0.470000	56.450000	67.560000	751.000000	0.000000	122.000000	56.000000	102.000000	41.000000
0.480000	57.280000	67.940000	746.000000	0.000000	125.000000	56.000000	83.000000	38.000000
0.490000	57.860000	68.280000	728.000000	0.000000	125.000000	56.000000	58.000000	34.000000
0.500000	58.270000	68.590000	697.000000	0.000000	127.000000	56.000000	41.000000	31.000000
0.510000	58.460000	68.900000	647.000000	0.000000	127.000000	56.000000	19.000000	31.000000
0.520000	58.520000	69.370000	592.000000	0.000000	130.000000	56.000000	6.000000	47.000000
0.530000	58.520000	69.970000	560.000000	0.000000	131.000000	56.000000	0.000000	60.000000
0.540000	58.410000	70.600000	561.000000	0.000000	134.000000	56.000000	-11.000000	63.000000
0.550000	58.350000	71.200000	575.000000	0.000000	135.000000	55.000000	-6.000000	60.000000
0.560000	58.350000	71.570000	592.000000	0.000000	136.000000	55.000000	0.000000	37.000000
0.570000	58.400000	71.800000	637.000000	0.000000	136.000000	55.000000	5.000000	23.000000
0.580000	58.400000	71.800000	655.000000	0.000000	137.000000	54.000000	0.000000	0.000000
0.590000	58.340000	71.730000	655.000000	0.000000	139.000000	54.000000	-6.000000	-7.000000
0.600000	58.340000	71.400000	658.000000	0.000000	139.000000	54.000000	0.000000	-33.000000
0.610000	58.270000	70.890000	661.000000	0.000000	139.000000	54.000000	-7.000000	-51.000000
0.620000	58.190000	70.210000	664.000000	0.000000	139.000000	54.000000	-8.000000	-68.000000
0.630000	58.190000	69.330000	668.000000	0.000000	139.000000	54.000000	0.000000	-88.000000
0.640000	58.190000	68.320000	670.000000	0.000000	139.000000	54.000000	0.000000	-101.000000
0.650000	58.090000	67.560000	644.000000	0.000000	137.000000	54.000000	-10.000000	-76.000000
0.660000	57.990000	66.940000	620.000000	0.000000	136.000000	55.000000	-10.000000	-62.000000
0.670000	57.990000	66.410000	548.000000	0.000000	135.000000	55.000000	0.000000	-53.000000
0.680000	58.100000	66.080000	433.000000	0.000000	131.000000	56.000000	11.000000	-33.000000
0.690000	58.330000	66.010000	285.000000	0.000000	130.000000	56.000000	23.000000	-7.000000
0.700000	58.610000	66.120000	22.000000	0.000000	128.000000	57.000000	28.000000	11.000000
0.710000	58.610000	66.120000	0.000000	1.000000	128.000000	58.000000	0.000000	0.000000
0.720000	59.180000	66.940000	0.000000	0.000000	128.000000	58.000000	57.000000	82.000000
0.730000	59.380000	67.480000	0.000000	0.000000	127.000000	59.000000	20.000000	54.000000
0.740000	59.520000	68.030000	0.000000	0.000000	128.000000	59.000000	14.000000	55.000000
0.750000	59.660000	68.650000	0.000000	0.000000	129.000000	59.000000	14.000000	62.000000
0.760000	59.810000	69.330000	0.000000	0.000000	129.000000	59.000000	15.000000	68.000000
0.770000	59.950000	69.870000	0.000000	0.000000	131.000000	58.000000	14.000000	54.000000
0.780000	60.060000	70.350000	0.000000	0.000000	132.000000	58.000000	11.000000	48.000000
0.790000	60.150000	70.720000	0.000000	0.000000	134.000000	57.000000	9.000000	37.000000
0.800000	60.150000	71.040000	0.000000	0.000000	134.000000	56.000000	0.000000	32.000000
0.810000	60.150000	71.290000	0.000000	0.000000	135.000000	55.000000	0.000000	25.000000
0.820000	60.100000	71.500000	0.000000	0.000000	135.000000	55.000000	-5.000000	21.000000
0.830000	60.100000	71.500000	167.000000	1.000000	136.000000	55.000000	0.000000	0.000000
0.840000	60.100000	71.500000	207.000000	0.000000	137.000000	54.000000	0.000000	0.000000
0.850000	60.100000	71.500000	282.000000	0.000000	139.000000	55.000000	0.000000	0.000000
0.860000	60.100000	71.500000	361.000000	0.000000	139.000000	55.000000	0.000000	0.000000
0.870000	60.100000	71.500000	446.000000	0.000000	140.000000	54.000000	0.000000	0.000000
0.880000	60.340000	70.870000	512.000000	0.000000	140.000000	54.000000	24.000000	-63.000000
0.890000	60.340000	70.300000	570.000000	0.000000	140.000000	54.000000	0.000000	-57.000000
0.900000	60.390000	69.580000	622.000000	0.000000	140.000000	54.000000	5.000000	-72.000000
0.910000	60.390000	68.750000	664.000000	0.000000	139.000000	55.000000	0.000000	-83.000000
0.920000	60.280000	68.070000	676.000000	0.000000	139.000000	55.000000	-11.000000	-68.000000
0.930000	60.100000	67.480000	693.000000	0.000000	138.000000	55.000000	-18.000000	-59.000000
0.940000	59.960000	66.940000	693.000000	0.000000	136.000000	56.000000	-14.000000	-54.000000
0.950000	59.890000	66.730000	685.000000	0.000000	135.000000	57.000000	-7.000000	-21.000000
0.960000	59.890000	66.730000	682.000000	0.000000	134.000000	57.000000	0.000000	0.000000
0.970000	60.010000	66.860000	678.000000	0.000000	132.000000	58.000000	12.000000	13.000000
0.980000	60.140000	67.270000	667.000000	0.000000	131.000000	58.000000	13.000000	41.000000
0.990000	60.320000	67.670000	669.000000	0.000000	131.000000	58.000000	18.000000	40.000000
1.000000	60.580000	68.060000	670.000000	0.000000	131.000000	58.000000	26.000000	39.000000
1.010000	60.870000	68.240000	664.000000	0.000000	131.000000	58.000000	29.000000	18.000000
1.020000	61.120000	68.240000	664.000000	0.000000	131.000000	58.000000	25.000000	0.000000
1.030000	61.220000	68.030000	667.000000	0.000000	131.000000	58.000000	10.000000	-21.000000
1.040000	61.220000	67.630000	667.000000	0.000000	131.000000	58.000000	0.000000	-40.000000
1.050000	61.120000	67.200000	671.000000	0.000000	132.000000	58.000000	-10.000000	-43.000000
1.060000	60.900000	66.710000	671.000000	0.000000	131.000000	58.000000	-22.000000	-49.000000
1.070000	60.590000	66.250000	664.000000	0.000000	131.000000	58.000000	-31.000000	-46.000000
1.080000	60.300000	65.960000	671.000000	0.000000	131.000000	58.000000	-29.000000	-29.000000
1.090000	60.180000	65.760000	646.000000	0.000000	129.000000	59.000000	-12.000000	-20.000000
1.100000	60.180000	65.760000	639.000000	0.000000	129.000000	59.000000	0.000000	0.000000
1.110000	60.310000	65.860000	636.000000	0.000000	128.000000	59.000000	13.000000	10.000000
1.120000	60.500000	66.000000	636.000000	0.000000	128.000000	59.000000	19.000000	14.000000
1.130000	60.910000	66.260000	644.000000	0.000000	128.000000	59.000000	41.000000	26.000000
1.140000	61.450000	66.620000	661.000000	0.000000	128.000000	59.000000	54.000000	36.000000
1.150000	61.890000	67.040000	662.000000	0.000000	128.000000	59.000000	44.000000	42.000000
1.160000	62.330000	67.400000	681.000000	0.000000	128.000000	59.000000	44.000000	36.000000
1.170000	62.720000	67.740000	696.000000	0.000000	128.000000	59.000000	39.000000	34.000000
1.180000	62.840000	67.890000	749.000000	0.000000	128.000000	58.000000	12.000000	15.000000
1.190000	62.840000	67.890000	796.000000	0.000000	128.000000	58.000000	0.000000	0.000000
1.200000	62.770000	67.890000	791.000000	0.000000	128.000000	58.000000	-7.000000	0.000000
1.210000	62.770000	67.890000	790.000000	0.000000	128.000000	58.000000	0.000000	0.000000
1.220000	62.690000	67.740000	788.000000	0.000000	128.000000	57.000000	-8.000000	-15.000000
1.230000	62.580000	67.470000	787.000000	0.000000	128.000000	57.000000	-11.000000	-27.000000
1.240000	62.450000	67.110000	791.000000	0.000000	128.000000	57.000000	-13.000000	-36.000000
1.250000	62.290000	66.820000	787.000000	0.000000	128.000000	57.000000	-16.000000	-29.000000
1.260000	62.400000	66.640000	777.000000	0.000000	128.000000	57.000000	11.000000	-18.000000
1.270000	62.550000	66.530000	757.000000	0.000000	126.000000	57.000000	15.000000	-11.000000
1.280000	62.790000	66.530000	761.000000	0.000000	126.000000	57.000000	24.000000	0.000000
1.290000	63.210000	66.620000	751.000000	0.000000	126.000000	57.000000	42.000000	9.000000
1.300000	63.740000	66.830000	745.000000	0.000000	124.000000	57.000000	53.000000	21.000000
1.310000	64.060000	66.990000	749.000000	0.000000	124.000000	57.000000	32.000000	16.000000
1.320000	64.300000	67.170000	758.000000	0.000000	126.000000	58.000000	24.000000	18.000000
1.330000	64.480000	67.380000	760.000000	0.000000	126.000000	58.000000	18.000000	21.000000
1.340000	64.530000	67.610000	760.000000	0.000000	126.000000	58.000000	5.000000	23.000000
1.350000	64.590000	68.060000	767.000000	0.000000	127.000000	57.000000	6.000000	45.000000
1.360000	64.690000	68.710000	760.000000	0.000000	127.000000	57.000000	10.000000	65.000000
1.370000	64.690000	69.500000	760.000000	0.000000	128.000000	57.000000	0.000000	79.000000
1.380000	64.620000	70.190000	762.000000	0.000000	128.000000	57.000000	-7.000000	69.000000
1.390000	64.550000	70.590000	768.000000	0.000000	130.000000	56.000000	-7.000000	40.000000
1.400000	64.490000	70.810000	779.000000	0.000000	131.000000	56.000000	-6.000000	22.000000
1.410000	64.490000	70.810000	787.000000	0.000000	132.000000	55.000000	0.000000	0.000000
1.420000	64.490000	70.700000	790.000000	0.000000	134.000000	55.000000	0.000000	-11.000000
1.430000	64.490000	70.570000	790.000000	0.000000	135.000000	54.000000	0.000000	-13.000000
1.440000	64.490000	70.180000	817.000000	0.000000	135.000000	54.000000	0.000000	-39.000000
1.450000	64.590000	69.640000	827.000000	0.000000	136.000000	54.000000	10.000000	-54.000000
1.460000	64.590000	69.050000	836.000000	0.000000	136.000000	54.000000	0.000000	-59.000000
1.470000	64.590000	68.460000	840.000000	0.000000	135.000000	54.000000	0.000000	-59.000000
1.480000	64.640000	68.050000	837.000000	0.000000	135.000000	54.000000	5.000000	-41.000000
1.490000	64.640000	67.750000	831.000000	0.000000	135.000000	54.000000	0.000000	-30.000000
1.500000	64.780000	67.580000	832.000000	0.000000	134.000000	55.000000	14.000000	-17.000000
1.510000	65.050000	67.410000	823.000000	0.000000	132.000000	55.000000	27.000000	-17.000000
1.520000	65.340000	67.270000	824.000000	0.000000	132.000000	57.000000	29.000000	-14.000000
1.530000	65.510000	67.140000	818.000000	0.000000	131.000000	57.000000	17.000000	-13.000000
1.540000	65.610000	66.890000	812.000000	0.000000	131.000000	57.000000	10.000000	-25.000000
1.550000	65.610000	66.580000	817.000000	0.000000	130.000000	58.000000	0.000000	-31.000000
1.560000	65.610000	66.340000	817.000000	0.000000	130.000000	58.000000	0.000000	-24.000000
1.570000	65.610000	66.170000	811.000000	0.000000	128.000000	58.000000	0.000000	-17.000000
1.580000	65.750000	66.170000	826.000000	0.000000	128.000000	58.000000	14.000000	0.000000
1.590000	66.040000	66.420000	832.000000	0.000000	128.000000	58.000000	29.000000	25.000000
1.600000	66.450000	66.780000	832.000000	0.000000	128.000000	58.000000	41.000000	36.000000
1.610000	66.850000	67.090000	827.000000	0.000000	128.000000	58.000000	40.000000	31.000000
1.620000	66.990000	67.230000	805.000000	0.000000	128.000000	58.000000	14.000000	14.000000
1.630000	66.990000	67.230000	672.000000	0.000000	128.000000	58.000000	0.000000	0.000000
1.640000	66.890000	67.230000	274.000000	0.000000	129.000000	59.000000	-10.000000	0.000000
1.650000	66.890000	67.230000	0.000000	1.000000	129.000000	59.000000	0.000000	0.000000
1.660000	66.380000	67.000000	0.000000	0.000000	129.000000	59.000000	-51.000000	-23.000000
1.670000	66.040000	67.000000	0.000000	0.000000	129.000000	59.000000	-34.000000	0.000000
1.680000	65.740000	67.150000	0.000000	0.000000	129.000000	59.000000	-30.000000	15.000000
1.690000	65.600000	67.480000	0.000000	0.000000	129.000000	59.000000	-14.000000	33.000000
1.700000	65.600000	67.820000	0.000000	0.000000	129.000000	59.000000	0.000000	34.000000
1.710000	65.600000	67.820000	207.000000	1.000000	129.000000	59.000000	0.000000	0.000000
1.720000	65.600000	68.250000	225.000000	0.000000	129.000000	59.000000	0.000000	43.000000
1.730000	65.700000	68.330000	218.000000	0.000000	128.000000	58.000000	10.000000	8.000000
1.740000	65.700000	68.330000	167.000000	0.000000	130.000000	58.000000	0.000000	0.000000
1.750000	65.700000	68.330000	0.000000	1.000000	130.000000	58.000000	0.000000	0.000000
1.760000	66.220000	68.260000	0.000000	0.000000	130.000000	58.000000	52.000000	-7.000000
1.770000	66.220000	68.040000	0.000000	0.000000	132.000000	58.000000	0.000000	-22.000000
1.780000	66.090000	67.780000	0.000000	0.000000	132.000000	58.000000	-13.000000	-26.000000
1.790000	65.790000	67.500000	0.000000	0.000000	132.000000	58.000000	-30.000000	-28.000000
1.800000	65.320000	67.170000	0.000000	0.000000	132.000000	58.000000	-47.000000	-33.000000
1.810000	64.730000	66.820000	0.000000	0.000000	132.000000	58.000000	-59.000000	-35.000000
1.820000	63.950000	66.510000	0.000000	0.000000	132.000000	58.000000	-78.000000	-31.000000
1.830000	62.930000	66.240000	0.000000	0.000000	132.000000	58.000000	-102.000000	-27.000000
1.840000	61.760000	66.030000	0.000000	0.000000	131.000000	57.000000	-117.000000	-21.000000
1.850000	60.640000	65.840000	0.000000	0.000000	131.000000	57.000000	-112.000000	-19.000000
1.860000	59.490000	65.660000	0.000000	0.000000	130.000000	56.000000	-115.000000	-18.000000
1.870000	58.240000	65.390000	0.000000	0.000000	130.000000	56.000000	-125.000000	-27.000000
1.880000	56.930000	65.160000	0.000000	0.000000	129.000000	56.000000	-131.000000	-23.000000
1.890000	55.630000	64.950000	0.000000	0.000000	130.000000	55.000000	-130.000000	-21.000000
1.900000	54.840000	64.950000	0.000000	0.000000	129.000000	55.000000	-79.000000	0.000000
1.910000	54.380000	64.950000	0.000000	0.000000	129.000000	55.000000	-46.000000	0.000000
1.920000	54.380000	64.950000	413.000000	1.000000	130.000000	54.000000	0.000000	0.000000
1.930000	54.200000	64.620000	417.000000	0.000000	128.000000	54.000000	-18.000000	-33.000000
1.940000	54.200000	64.400000	428.000000	0.000000	128.000000	54.000000	0.000000	-22.000000
1.950000	54.410000	63.640000	486.000000	0.000000	128.000000	54.000000	21.000000	-76.000000
1.960000	54.780000	62.980000	537.000000	0.000000	128.000000	54.000000	37.000000	-66.000000
1.970000	55.080000	62.400000	540.000000	0.000000	126.000000	54.000000	30.000000	-58.000000
1.980000	55.390000	61.770000	563.000000	0.000000	126.000000	54.000000	31.000000	-63.000000
1.990000	55.670000	61.180000	572.000000	0.000000	126.000000	54.000000	28.000000	-59.000000
2.000000	55.840000	60.720000	586.000000	0.000000	127.000000	55.000000	17.000000	-46.000000
2.010000	55.950000	60.330000	613.000000	0.000000	127.000000	55.000000	11.000000	-39.000000
2.020000	55.950000	60.090000	620.000000	0.000000	127.000000	55.000000	0.000000	-24.000000
2.030000	55.820000	59.940000	638.000000	0.000000	126.000000	56.000000	-13.000000	-15.000000
2.040000	55.590000	59.860000	655.000000	0.000000	126.000000	56.000000	-23.000000	-8.000000
2.050000	55.270000	60.030000	668.000000	0.000000	126.000000	56.000000	-32.000000	17.000000
2.060000	54.850000	60.380000	708.000000	0.000000	126.000000	56.000000	-42.000000	35.000000
2.070000	54.370000	60.860000	720.000000	0.000000	126.000000	56.000000	-48.000000	48.000000
2.080000	54.100000	61.420000	748.000000	0.000000	126.000000	56.000000	-27.000000	56.000000
2.090000	53.850000	62.030000	762.000000	0.000000	126.000000	56.000000	-25.000000	61.000000
2.100000	53.640000	62.670000	780.000000	0.000000	126.000000	56.000000	-21.000000	64.000000
2.110000	53.690000	63.190000	787.000000	0.000000	125.000000	55.000000	5.000000	52.000000
2.120000	53.900000	63.710000	794.000000	0.000000	126.000000	54.000000	21.000000	52.000000
2.130000	54.380000	64.260000	788.000000	0.000000	126.000000	54.000000	48.000000	55.000000
2.140000	55.030000	64.840000	790.000000	0.000000	126.000000	54.000000	65.000000	58.000000
2.150000	55.780000	65.260000	770.000000	0.000000	126.000000	54.000000	75.000000	42.000000
2.160000	56.620000	65.330000	755.000000	0.000000	127.000000	55.000000	84.000000	7.000000
2.170000	57.210000	65.180000	721.000000	0.000000	127.000000	55.000000	59.000000	-15.000000
2.180000	57.630000	64.780000	696.000000	0.000000	127.000000	55.000000	42.000000	-40.000000
2.190000	57.630000	64.190000	600.000000	0.000000	129.000000	56.000000	0.000000	-59.000000
2.200000	57.530000	63.470000	335.000000	0.000000	129.000000	56.000000	-10.000000	-72.000000
