t	x	y	pressure	penup	azimuth	inclination	v_x	v_y
0.000000	91.810000	15.240000	73.000000	1.000000	153.000000	56.000000	0.000000	0.000000
0.010000	92.500000	15.900000	168.000000	0.000000	155.000000	55.000000	69.000000	66.000000
0.020000	92.670000	15.900000	218.000000	0.000000	155.000000	55.000000	17.000000	0.000000
0.030000	92.740000	15.410000	315.000000	0.000000	155.000000	55.000000	7.000000	-49.000000
0.040000	92.930000	14.400000	394.000000	0.000000	155.000000	55.000000	19.000000	-101.000000
0.050000	93.090000	13.040000	474.000000	0.000000	155.000000	55.000000	16.000000	-136.000000
0.060000	93.150000	11.370000	516.000000	0.000000	156.000000	57.000000	6.000000	-167.000000
0.070000	93.150000	10.000000	564.000000	0.000000	155.000000	58.000000	0.000000	-137.000000
0.080000	93.090000	8.830000	577.000000	0.000000	155.000000	58.000000	-6.000000	-117.000000
0.090000	93.290000	8.090000	586.000000	0.000000	154.000000	58.000000	20.000000	-74.000000
0.100000	93.660000	7.520000	597.000000	0.000000	154.000000	58.000000	37.000000	-57.000000
0.110000	93.860000	7.060000	594.000000	0.000000	156.000000	59.000000	20.000000	-46.000000
0.120000	93.860000	6.840000	597.000000	0.000000	156.000000	59.000000	0.000000	-22.000000
0.130000	93.750000	6.840000	597.000000	0.000000	156.000000	59.000000	-11.000000	0.000000
0.140000	93.460000	7.070000	575.000000	0.000000	156.000000	59.000000	-29.000000	23.000000
0.150000	92.950000	7.470000	574.000000	0.000000	156.000000	59.000000	-51.000000	40.000000
0.160000	92.290000	7.930000	578.000000	0.000000	156.000000	59.000000	-66.000000	46.000000
0.170000	91.490000	8.420000	591.000000	0.000000	157.000000	59.000000	-80.000000	49.000000
0.180000	90.600000	8.690000	592.000000	0.000000	157.000000	59.000000	-89.000000	27.000000
0.190000	89.640000	8.790000	588.000000	0.000000	157.000000	60.000000	-96.000000	10.000000
0.200000	88.440000	8.790000	614.000000	0.000000	157.000000	60.000000	-120.000000	0.000000
0.210000	87.280000	8.650000	645.000000	0.000000	157.000000	60.000000	-116.000000	-14.000000
0.220000	86.350000	8.490000	661.000000	0.000000	156.000000	61.000000	-93.000000	-16.000000
0.230000	85.550000	8.270000	668.000000	0.000000	154.000000	60.000000	-80.000000	-22.000000
0.240000	85.290000	8.180000	650.000000	0.000000	154.000000	60.000000	-26.000000	-9.000000
0.250000	85.510000	8.180000	643.000000	0.000000	152.000000	60.000000	22.000000	0.000000
0.260000	86.060000	8.180000	643.000000	0.000000	152.000000	60.000000	55.000000	0.000000
0.270000	87.350000	8.360000	652.000000	0.000000	152.000000	60.000000	129.000000	18.000000
0.280000	89.460000	8.630000	665.000000	0.000000	151.000000	60.000000	211.000000	27.000000
0.290000	92.120000	9.160000	666.000000	0.000000	151.000000	60.000000	266.000000	53.000000
0.300000	95.310000	9.720000	675.000000	0.000000	151.000000	60.000000	319.000000	56.000000
0.310000	98.320000	10.300000	693.000000	0.000000	152.000000	60.000000	301.000000	58.000000
0.320000	101.200000	10.800000	730.000000	0.000000	153.000000	59.000000	288.000000	50.000000
0.330000	103.670000	11.220000	739.000000	0.000000	153.000000	59.000000	247.000000	42.000000
0.340000	105.610000	11.640000	746.000000	0.000000	156.000000	59.000000	194.000000	42.000000
0.350000	107.200000	12.100000	754.000000	0.000000	157.000000	58.000000	159.000000	46.000000
0.360000	108.160000	12.330000	761.000000	0.000000	159.000000	57.000000	96.000000	23.000000
0.370000	108.610000	12.530000	751.000000	0.000000	161.000000	57.000000	45.000000	20.000000
0.380000	108.730000	12.580000	727.000000	0.000000	161.000000	57.000000	12.000000	5.000000
0.390000	108.730000	12.580000	655.000000	0.000000	163.000000	56.000000	0.000000	0.000000
0.400000	108.480000	12.580000	349.000000	0.000000	165.000000	55.000000	-25.000000	0.000000
0.410000	108.480000	12.580000	0.000000	1.000000	165.000000	55.000000	0.000000	0.000000
0.420000	107.220000	12.580000	0.000000	0.000000	167.000000	54.000000	-126.000000	0.000000
0.430000	105.880000	12.420000	0.000000	0.000000	167.000000	54.000000	-134.000000	-16.000000
0.440000	104.250000	12.250000	0.000000	0.000000	167.000000	54.000000	-163.000000	-17.000000
0.450000	102.370000	12.040000	0.000000	0.000000	166.000000	54.000000	-188.000000	-21.000000
0.460000	100.550000	11.810000	0.000000	0.000000	164.000000	54.000000	-182.000000	-23.000000
0.470000	98.870000	11.510000	0.000000	0.000000	163.000000	54.000000	-168.000000	-30.000000
0.480000	97.260000	11.210000	0.000000	0.000000	162.000000	54.000000	-161.000000	-30.000000
0.490000	96.140000	10.960000	0.000000	0.000000	160.000000	53.000000	-112.000000	-25.000000
0.500000	95.350000	10.730000	0.000000	0.000000	159.000000	53.000000	-79.000000	-23.000000
0.510000	94.770000	10.570000	0.000000	0.000000	157.000000	54.000000	-58.000000	-16.000000
0.520000	94.490000	10.490000	0.000000	0.000000	156.000000	53.000000	-28.000000	-8.000000
0.530000	94.340000	10.490000	0.000000	0.000000	156.000000	53.000000	-15.000000	0.000000
0.540000	94.270000	10.440000	0.000000	0.000000	153.000000	54.000000	-7.000000	-5.000000
0.550000	94.220000	10.440000	0.000000	0.000000	153.000000	55.000000	-5.000000	0.000000
0.560000	94.160000	10.440000	0.000000	0.000000	152.000000	56.000000	-6.000000	0.000000
0.570000	94.110000	10.440000	0.000000	0.000000	151.000000	56.000000	-5.000000	0.000000
0.580000	94.060000	10.440000	0.000000	0.000000	151.000000	56.000000	-5.000000	0.000000
0.590000	93.980000	10.440000	0.000000	0.000000	150.000000	57.000000	-8.000000	0.000000
0.600000	93.880000	10.440000	0.000000	0.000000	151.000000	58.000000	-10.000000	0.000000
0.610000	93.740000	10.440000	0.000000	0.000000	151.000000	58.000000	-14.000000	0.000000
0.620000	93.600000	10.600000	0.000000	0.000000	150.000000	58.000000	-14.000000	16.000000
0.630000	93.470000	10.770000	0.000000	0.000000	150.000000	58.000000	-13.000000	17.000000
0.640000	93.350000	11.090000	0.000000	0.000000	150.000000	58.000000	-12.000000	32.000000
0.650000	93.170000	11.710000	0.000000	0.000000	150.000000	58.000000	-18.000000	62.000000
0.660000	92.940000	12.530000	0.000000	0.000000	150.000000	58.000000	-23.000000	82.000000
0.670000	92.720000	13.630000	0.000000	0.000000	150.000000	58.000000	-22.000000	110.000000
0.680000	92.720000	13.630000	48.000000	1.000000	150.000000	58.000000	0.000000	0.000000
0.690000	92.450000	15.770000	173.000000	0.000000	149.000000	58.000000	-27.000000	214.000000
0.700000	92.370000	16.480000	242.000000	0.000000	150.000000	57.000000	-8.000000	71.000000
0.710000	92.280000	16.840000	294.000000	0.000000	151.000000	56.000000	-9.000000	36.000000
0.720000	92.280000	16.970000	343.000000	0.000000	151.000000	56.000000	0.000000	13.000000
0.730000	92.280000	16.770000	399.000000	0.000000	150.000000	55.000000	0.000000	-20.000000
0.740000	92.420000	16.150000	456.000000	0.000000	149.000000	55.000000	14.000000	-62.000000
0.750000	92.600000	15.260000	516.000000	0.000000	150.000000	54.000000	18.000000	-89.000000
0.760000	92.840000	13.860000	592.000000	0.000000	147.000000	55.000000	24.000000	-140.000000
0.770000	93.090000	12.460000	639.000000	0.000000	147.000000	55.000000	25.000000	-140.000000
0.780000	93.350000	11.340000	653.000000	0.000000	146.000000	55.000000	26.000000	-112.000000
0.790000	93.660000	10.420000	673.000000	0.000000	145.000000	56.000000	31.000000	-92.000000
0.800000	93.990000	9.890000	666.000000	0.000000	146.000000	57.000000	33.000000	-53.000000
0.810000	94.390000	9.550000	667.000000	0.000000	144.000000	58.000000	40.000000	-34.000000
0.820000	94.710000	9.350000	636.000000	0.000000	146.000000	58.000000	32.000000	-20.000000
0.830000	94.970000	9.500000	639.000000	0.000000	145.000000	59.000000	26.000000	15.000000
0.840000	95.260000	9.960000	628.000000	0.000000	145.000000	59.000000	29.000000	46.000000
0.850000	95.430000	10.620000	624.000000	0.000000	145.000000	59.000000	17.000000	66.000000
0.860000	95.530000	11.710000	639.000000	0.000000	145.000000	59.000000	10.000000	109.000000
0.870000	95.530000	12.670000	652.000000	0.000000	145.000000	59.000000	0.000000	96.000000
0.880000	95.400000	13.550000	673.000000	0.000000	143.000000	59.000000	-13.000000	88.000000
0.890000	95.270000	13.890000	699.000000	0.000000	143.000000	59.000000	-13.000000	34.000000
0.900000	95.180000	13.990000	703.000000	0.000000	145.000000	59.000000	-9.000000	10.000000
0.910000	95.090000	13.930000	708.000000	0.000000	145.000000	59.000000	-9.000000	-6.000000
0.920000	94.990000	13.540000	717.000000	0.000000	145.000000	59.000000	-10.000000	-39.000000
0.930000	94.880000	12.860000	725.000000	0.000000	146.000000	60.000000	-11.000000	-68.000000
0.940000	94.880000	12.000000	728.000000	0.000000	146.000000	60.000000	0.000000	-86.000000
0.950000	95.080000	11.200000	731.000000	0.000000	146.000000	60.000000	20.000000	-80.000000
0.960000	95.380000	10.670000	722.000000	0.000000	146.000000	60.000000	30.000000	-53.000000
0.970000	95.730000	10.310000	727.000000	0.000000	146.000000	60.000000	35.000000	-36.000000
0.980000	96.210000	10.120000	703.000000	0.000000	146.000000	60.000000	48.000000	-19.000000
0.990000	96.770000	10.170000	693.000000	0.000000	145.000000	59.000000	56.000000	5.000000
1.000000	97.170000	10.380000	678.000000	0.000000	145.000000	59.000000	40.000000	21.000000
1.010000	97.420000	10.850000	676.000000	0.000000	145.000000	59.000000	25.000000	47.000000
1.020000	97.570000	11.490000	684.000000	0.000000	146.000000	60.000000	15.000000	64.000000
1.030000	97.570000	12.240000	693.000000	0.000000	146.000000	60.000000	0.000000	75.000000
1.040000	97.500000	12.810000	713.000000	0.000000	146.000000	60.000000	-7.000000	57.000000
1.050000	97.350000	13.140000	758.000000	0.000000	148.000000	60.000000	-15.000000	33.000000
1.060000	97.260000	13.300000	787.000000	0.000000	149.000000	59.000000	-9.000000	16.000000
1.070000	97.180000	13.300000	799.000000	0.000000	149.000000	59.000000	-8.000000	0.000000
1.080000	97.110000	13.250000	808.000000	0.000000	149.000000	59.000000	-7.000000	-5.000000
1.090000	97.110000	12.980000	811.000000	0.000000	149.000000	59.000000	0.000000	-27.000000
1.100000	97.110000	12.570000	803.000000	0.000000	151.000000	60.000000	0.000000	-41.000000
1.110000	97.310000	12.140000	796.000000	0.000000	151.000000	60.000000	20.000000	-43.000000
1.120000	97.600000	11.860000	749.000000	0.000000	151.000000	60.000000	29.000000	-28.000000
1.130000	97.860000	11.680000	708.000000	0.000000	151.000000	60.000000	26.000000	-18.000000
1.140000	98.150000	11.740000	685.000000	0.000000	151.000000	60.000000	29.000000	6.000000
1.150000	98.480000	12.080000	675.000000	0.000000	151.000000	60.000000	33.000000	34.000000
1.160000	98.810000	12.610000	670.000000	0.000000	151.000000	60.000000	33.000000	53.000000
1.170000	98.970000	12.980000	693.000000	0.000000	151.000000	60.000000	16.000000	37.000000
1.180000	99.020000	13.130000	722.000000	0.000000	152.000000	60.000000	5.000000	15.000000
1.190000	99.020000	13.130000	753.000000	0.000000	152.000000	60.000000	0.000000	0.000000
1.200000	98.920000	13.000000	794.000000	0.000000	152.000000	60.000000	-10.000000	-13.000000
1.210000	98.780000	12.440000	832.000000	0.000000	152.000000	60.000000	-14.000000	-56.000000
1.220000	98.610000	11.600000	861.000000	0.000000	153.000000	59.000000	-17.000000	-84.000000
1.230000	98.440000	10.650000	902.000000	0.000000	155.000000	60.000000	-17.000000	-95.000000
1.240000	98.270000	9.700000	939.000000	0.000000	155.000000	60.000000	-17.000000	-95.000000
1.250000	98.070000	8.760000	940.000000	0.000000	155.000000	60.000000	-20.000000	-94.000000
1.260000	97.890000	7.960000	934.000000	0.000000	155.000000	60.000000	-18.000000	-80.000000
1.270000	97.890000	7.250000	906.000000	0.000000	153.000000	59.000000	0.000000	-71.000000
1.280000	97.890000	6.640000	794.000000	0.000000	153.000000	59.000000	0.000000	-61.000000
1.290000	98.150000	6.510000	556.000000	0.000000	153.000000	59.000000	26.000000	-13.000000
1.300000	98.390000	6.690000	51.000000	0.000000	154.000000	58.000000	24.000000	18.000000
1.310000	98.390000	6.690000	0.000000	1.000000	154.000000	58.000000	0.000000	0.000000
1.320000	99.030000	7.920000	0.000000	0.000000	153.000000	58.000000	64.000000	123.000000
1.330000	99.250000	8.640000	0.000000	0.000000	155.000000	58.000000	22.000000	72.000000
1.340000	99.360000	9.270000	0.000000	0.000000	155.000000	58.000000	11.000000	63.000000
1.350000	99.290000	9.900000	0.000000	0.000000	155.000000	58.000000	-7.000000	63.000000
1.360000	99.210000	10.550000	0.000000	0.000000	155.000000	58.000000	-8.000000	65.000000
1.370000	99.210000	10.550000	196.000000	1.000000	154.000000	58.000000	0.000000	0.000000
1.380000	99.130000	12.110000	306.000000	0.000000	154.000000	58.000000	-8.000000	156.000000
1.390000	99.020000	12.760000	366.000000	0.000000	154.000000	58.000000	-11.000000	65.000000
1.400000	98.910000	13.190000	452.000000	0.000000	153.000000	59.000000	-11.000000	43.000000
1.410000	98.910000	13.470000	515.000000	0.000000	153.000000	59.000000	0.000000	28.000000
1.420000	99.010000	13.520000	563.000000	0.000000	153.000000	59.000000	10.000000	5.000000
1.430000	99.090000	13.370000	606.000000	0.000000	153.000000	59.000000	8.000000	-15.000000
1.440000	99.230000	13.100000	650.000000	0.000000	154.000000	60.000000	14.000000	-27.000000
1.450000	99.410000	12.520000	700.000000	0.000000	154.000000	60.000000	18.000000	-58.000000
1.460000	99.610000	11.830000	719.000000	0.000000	154.000000	60.000000	20.000000	-69.000000
1.470000	99.820000	11.070000	721.000000	0.000000	152.000000	60.000000	21.000000	-76.000000
1.480000	100.050000	10.640000	728.000000	0.000000	153.000000	59.000000	23.000000	-43.000000
1.490000	100.390000	10.310000	727.000000	0.000000	153.000000	59.000000	34.000000	-33.000000
1.500000	100.700000	10.050000	720.000000	0.000000	152.000000	59.000000	31.000000	-26.000000
1.510000	100.980000	10.050000	727.000000	0.000000	152.000000	59.000000	28.000000	0.000000
1.520000	101.170000	10.190000	721.000000	0.000000	152.000000	59.000000	19.000000	14.000000
1.530000	101.290000	10.460000	727.000000	0.000000	152.000000	59.000000	12.000000	27.000000
1.540000	101.460000	10.960000	728.000000	0.000000	152.000000	59.000000	17.000000	50.000000
1.550000	101.540000	11.490000	736.000000	0.000000	152.000000	59.000000	8.000000	53.000000
1.560000	101.540000	12.040000	755.000000	0.000000	152.000000	59.000000	0.000000	55.000000
1.570000	101.450000	12.500000	776.000000	0.000000	152.000000	59.000000	-9.000000	46.000000
1.580000	101.400000	12.780000	802.000000	0.000000	152.000000	59.000000	-5.000000	28.000000
1.590000	101.400000	12.940000	822.000000	0.000000	150.000000	58.000000	0.000000	16.000000
1.600000	101.320000	12.940000	834.000000	0.000000	150.000000	58.000000	-8.000000	0.000000
1.610000	101.320000	12.940000	825.000000	0.000000	149.000000	58.000000	0.000000	0.000000
1.620000	101.320000	12.850000	827.000000	0.000000	149.000000	58.000000	0.000000	-9.000000
1.630000	101.380000	12.500000	825.000000	0.000000	147.000000	58.000000	6.000000	-35.000000
1.640000	101.470000	11.960000	818.000000	0.000000	147.000000	58.000000	9.000000	-54.000000
1.650000	101.570000	11.500000	830.000000	0.000000	147.000000	58.000000	10.000000	-46.000000
1.660000	101.750000	11.150000	820.000000	0.000000	147.000000	58.000000	18.000000	-35.000000
1.670000	102.020000	10.870000	812.000000	0.000000	147.000000	58.000000	27.000000	-28.000000
1.680000	102.380000	10.790000	809.000000	0.000000	150.000000	57.000000	36.000000	-8.000000
1.690000	102.790000	10.890000	806.000000	0.000000	150.000000	57.000000	41.000000	10.000000
1.700000	103.130000	11.110000	808.000000	0.000000	150.000000	57.000000	34.000000	22.000000
1.710000	103.390000	11.490000	815.000000	0.000000	150.000000	57.000000	26.000000	38.000000
1.720000	103.600000	12.010000	824.000000	0.000000	150.000000	57.000000	21.000000	52.000000
1.730000	103.660000	12.620000	819.000000	0.000000	150.000000	57.000000	6.000000	61.000000
1.740000	103.660000	13.090000	848.000000	0.000000	150.000000	57.000000	0.000000	47.000000
1.750000	103.570000	13.350000	861.000000	0.000000	150.000000	57.000000	-9.000000	26.000000
1.760000	103.440000	13.480000	878.000000	0.000000	150.000000	57.000000	-13.000000	13.000000
1.770000	103.310000	13.570000	887.000000	0.000000	151.000000	56.000000	-13.000000	9.000000
1.780000	103.190000	13.460000	887.000000	0.000000	151.000000	56.000000	-12.000000	-11.000000
1.790000	103.050000	13.230000	887.000000	0.000000	151.000000	56.000000	-14.000000	-23.000000
1.800000	102.920000	12.730000	890.000000	0.000000	151.000000	56.000000	-13.000000	-50.000000
1.810000	102.780000	12.190000	888.000000	0.000000	151.000000	56.000000	-14.000000	-54.000000
1.820000	102.840000	11.570000	872.000000	0.000000	151.000000	56.000000	6.000000	-62.000000
1.830000	103.050000	10.930000	857.000000	0.000000	152.000000	57.000000	21.000000	-64.000000
1.840000	103.360000	10.590000	822.000000	0.000000	152.000000	57.000000	31.000000	-34.000000
1.850000	103.760000	10.480000	817.000000	0.000000	152.000000	57.000000	40.000000	-11.000000
1.860000	104.220000	10.530000	788.000000	0.000000	152.000000	57.000000	46.000000	5.000000
1.870000	104.780000	10.930000	776.000000	0.000000	152.000000	57.000000	56.000000	40.000000
1.880000	105.380000	11.680000	771.000000	0.000000	152.000000	57.000000	60.000000	75.000000
1.890000	105.690000	12.660000	779.000000	0.000000	152.000000	57.000000	31.000000	98.000000
1.900000	105.810000	13.770000	791.000000	0.000000	154.000000	57.000000	12.000000	111.000000
1.910000	105.810000	14.480000	805.000000	0.000000	154.000000	57.000000	0.000000	71.000000
1.920000	105.610000	14.930000	849.000000	0.000000	154.000000	56.000000	-20.000000	45.000000
1.930000	105.410000	15.060000	867.000000	0.000000	154.000000	56.000000	-20.000000	13.000000
1.940000	105.200000	14.960000	866.000000	0.000000	155.000000	55.000000	-21.000000	-10.000000
1.950000	105.090000	14.710000	869.000000	0.000000	155.000000	55.000000	-11.000000	-25.000000
1.960000	105.010000	14.080000	872.000000	0.000000	155.000000	55.000000	-8.000000	-63.000000
1.970000	105.010000	13.350000	852.000000	0.000000	156.000000	55.000000	0.000000	-73.000000
1.980000	105.120000	12.550000	776.000000	0.000000	155.000000	55.000000	11.000000	-80.000000
1.990000	105.350000	11.820000	666.000000	0.000000	157.000000	56.000000	23.000000	-73.000000
2.000000	105.660000	11.330000	530.000000	0.000000	157.000000	56.000000	31.000000	-49.000000
2.010000	105.920000	11.000000	254.000000	0.000000	156.000000	57.000000	26.000000	-33.000000
2.020000	105.920000	11.000000	0.000000	1.000000	156.000000	57.000000	0.000000	0.000000
2.030000	106.150000	10.880000	0.000000	0.000000	156.000000	57.000000	23.000000	-12.000000
2.040000	105.820000	11.050000	0.000000	0.000000	156.000000	57.000000	-33.000000	17.000000
2.050000	105.270000	11.170000	0.000000	0.000000	156.000000	57.000000	-55.000000	12.000000
2.060000	104.510000	11.380000	0.000000	0.000000	156.000000	57.000000	-76.000000	21.000000
2.070000	103.530000	11.660000	0.000000	0.000000	156.000000	57.000000	-98.000000	28.000000
2.080000	102.390000	11.860000	0.000000	0.000000	157.000000	56.000000	-114.000000	20.000000
2.090000	101.040000	11.860000	0.000000	0.000000	155.000000	55.000000	-135.000000	0.000000
2.100000	99.690000	11.790000	0.000000	0.000000	154.000000	55.000000	-135.000000	-7.000000
2.110000	98.330000	11.660000	0.000000	0.000000	154.000000	55.000000	-136.000000	-13.000000
2.120000	98.330000	11.660000	496.000000	1.000000	153.000000	55.000000	0.000000	0.000000
2.130000	97.100000	12.080000	480.000000	0.000000	152.000000	56.000000	-123.000000	42.000000
2.140000	97.150000	12.690000	460.000000	0.000000	151.000000	56.000000	5.000000	61.000000
2.150000	97.350000	13.300000	473.000000	0.000000	151.000000	56.000000	20.000000	61.000000
2.160000	97.860000	13.730000	485.000000	0.000000	151.000000	58.000000	51.000000	43.000000
2.170000	98.580000	14.030000	491.000000	0.000000	151.000000	58.000000	72.000000	30.000000
2.180000	99.280000	13.950000	514.000000	0.000000	150.000000	58.000000	70.000000	-8.000000
2.190000	100.010000	13.460000	530.000000	0.000000	150.000000	58.000000	73.000000	-49.000000
