t	x	y	pressure	penup	azimuth	inclination	v_x	v_y
0.000000	51.450000	15.290000	65.000000	1.000000	130.000000	55.000000	0.000000	0.000000
0.010000	51.520000	16.070000	109.000000	0.000000	131.000000	55.000000	7.000000	78.000000
0.020000	51.420000	16.240000	146.000000	0.000000	130.000000	54.000000	-10.000000	17.000000
0.030000	51.420000	16.240000	185.000000	0.000000	131.000000	54.000000	0.000000	0.000000
0.040000	51.350000	16.240000	206.000000	0.000000	133.000000	53.000000	-7.000000	0.000000
0.050000	51.350000	16.240000	237.000000	0.000000	133.000000	53.000000	0.000000	0.000000
0.060000	51.290000	16.100000	267.000000	0.000000	133.000000	53.000000	-6.000000	-14.000000
0.070000	51.350000	15.710000	285.000000	0.000000	133.000000	53.000000	6.000000	-39.000000
0.080000	51.420000	15.150000	304.000000	0.000000	133.000000	53.000000	7.000000	-56.000000
0.090000	51.530000	14.240000	322.000000	0.000000	131.000000	54.000000	11.000000	-91.000000
0.100000	51.680000	13.000000	361.000000	0.000000	130.000000	54.000000	15.000000	-124.000000
0.110000	51.860000	11.530000	389.000000	0.000000	129.000000	55.000000	18.000000	-147.000000
0.120000	52.030000	10.270000	412.000000	0.000000	129.000000	56.000000	17.000000	-126.000000
0.130000	52.190000	9.170000	414.000000	0.000000	127.000000	56.000000	16.000000	-110.000000
0.140000	52.350000	8.170000	423.000000	0.000000	127.000000	56.000000	16.000000	-100.000000
0.150000	52.600000	7.280000	420.000000	0.000000	128.000000	57.000000	25.000000	-89.000000
0.160000	52.860000	6.630000	433.000000	0.000000	128.000000	57.000000	26.000000	-65.000000
0.170000	53.110000	6.140000	443.000000	0.000000	130.000000	58.000000	25.000000	-49.000000
0.180000	53.290000	5.740000	446.000000	0.000000	130.000000	58.000000	18.000000	-40.000000
0.190000	53.440000	5.490000	448.000000	0.000000	131.000000	58.000000	15.000000	-25.000000
0.200000	53.500000	5.330000	444.000000	0.000000	131.000000	58.000000	6.000000	-16.000000
0.210000	53.500000	5.330000	441.000000	0.000000	129.000000	59.000000	0.000000	0.000000
0.220000	53.450000	5.330000	436.000000	0.000000	129.000000	59.000000	-5.000000	0.000000
0.230000	53.350000	5.410000	433.000000	0.000000	128.000000	59.000000	-10.000000	8.000000
0.240000	53.180000	5.700000	417.000000	0.000000	126.000000	60.000000	-17.000000	29.000000
0.250000	52.970000	5.970000	407.000000	0.000000	126.000000	60.000000	-21.000000	27.000000
0.260000	52.690000	6.210000	402.000000	0.000000	126.000000	60.000000	-28.000000	24.000000
0.270000	52.350000	6.420000	366.000000	0.000000	128.000000	59.000000	-34.000000	21.000000
0.280000	51.960000	6.610000	361.000000	0.000000	128.000000	59.000000	-39.000000	19.000000
0.290000	51.560000	6.780000	363.000000	0.000000	129.000000	59.000000	-40.000000	17.000000
0.300000	51.140000	6.960000	334.000000	0.000000	129.000000	59.000000	-42.000000	18.000000
0.310000	50.680000	7.140000	307.000000	0.000000	132.000000	59.000000	-46.000000	18.000000
0.320000	50.180000	7.280000	287.000000	0.000000	134.000000	58.000000	-50.000000	14.000000
0.330000	49.600000	7.420000	277.000000	0.000000	134.000000	58.000000	-58.000000	14.000000
0.340000	49.020000	7.540000	247.000000	0.000000	135.000000	58.000000	-58.000000	12.000000
0.350000	48.450000	7.630000	249.000000	0.000000	136.000000	57.000000	-57.000000	9.000000
0.360000	47.880000	7.690000	255.000000	0.000000	136.000000	57.000000	-57.000000	6.000000
0.370000	47.320000	7.690000	264.000000	0.000000	136.000000	57.000000	-56.000000	0.000000
0.380000	46.820000	7.690000	247.000000	0.000000	138.000000	57.000000	-50.000000	0.000000
0.390000	46.360000	7.690000	249.000000	0.000000	138.000000	57.000000	-46.000000	0.000000
0.400000	46.010000	7.630000	256.000000	0.000000	138.000000	57.000000	-35.000000	-6.000000
0.410000	45.730000	7.630000	242.000000	0.000000	139.000000	56.000000	-28.000000	0.000000
0.420000	45.510000	7.630000	244.000000	0.000000	139.000000	56.000000	-22.000000	0.000000
0.430000	45.340000	7.630000	247.000000	0.000000	139.000000	56.000000	-17.000000	0.000000
0.440000	45.290000	7.630000	260.000000	0.000000	138.000000	55.000000	-5.000000	0.000000
0.450000	45.340000	7.680000	270.000000	0.000000	138.000000	55.000000	5.000000	5.000000
0.460000	45.500000	7.770000	273.000000	0.000000	138.000000	55.000000	16.000000	9.000000
0.470000	46.060000	7.890000	302.000000	0.000000	138.000000	55.000000	56.000000	12.000000
0.480000	46.870000	8.100000	309.000000	0.000000	138.000000	55.000000	81.000000	21.000000
0.490000	48.120000	8.410000	307.000000	0.000000	136.000000	56.000000	125.000000	31.000000
0.500000	49.530000	8.800000	309.000000	0.000000	136.000000	56.000000	141.000000	39.000000
0.510000	51.040000	9.130000	314.000000	0.000000	136.000000	56.000000	151.000000	33.000000
0.520000	52.750000	9.460000	314.000000	0.000000	135.000000	57.000000	171.000000	33.000000
0.530000	54.390000	9.800000	325.000000	0.000000	134.000000	57.000000	164.000000	34.000000
0.540000	55.980000	10.150000	310.000000	0.000000	134.000000	58.000000	159.000000	35.000000
0.550000	57.550000	10.530000	311.000000	0.000000	132.000000	59.000000	157.000000	38.000000
0.560000	58.900000	10.930000	285.000000	0.000000	131.000000	60.000000	135.000000	40.000000
0.570000	60.100000	11.300000	244.000000	0.000000	129.000000	60.000000	120.000000	37.000000
0.580000	61.150000	11.700000	173.000000	0.000000	126.000000	60.000000	105.000000	40.000000
0.590000	62.000000	12.120000	101.000000	0.000000	126.000000	60.000000	85.000000	42.000000
0.600000	62.000000	12.120000	0.000000	1.000000	125.000000	60.000000	0.000000	0.000000
0.610000	63.100000	12.430000	0.000000	0.000000	125.000000	60.000000	110.000000	31.000000
0.620000	63.190000	12.430000	0.000000	0.000000	125.000000	60.000000	9.000000	0.000000
0.630000	63.080000	12.430000	0.000000	0.000000	125.000000	60.000000	-11.000000	0.000000
0.640000	62.880000	12.430000	0.000000	0.000000	124.000000	60.000000	-20.000000	0.000000
0.650000	62.740000	12.430000	0.000000	0.000000	125.000000	59.000000	-14.000000	0.000000
0.660000	62.690000	12.530000	0.000000	0.000000	127.000000	59.000000	-5.000000	10.000000
0.670000	62.690000	12.680000	0.000000	0.000000	128.000000	58.000000	0.000000	15.000000
0.680000	62.820000	12.850000	0.000000	0.000000	128.000000	57.000000	13.000000	17.000000
0.690000	63.030000	13.020000	0.000000	0.000000	131.000000	56.000000	21.000000	17.000000
0.700000	63.330000	13.230000	0.000000	0.000000	132.000000	55.000000	30.000000	21.000000
0.710000	63.650000	13.460000	0.000000	0.000000	134.000000	54.000000	32.000000	23.000000
0.720000	63.800000	13.570000	0.000000	0.000000	135.000000	53.000000	15.000000	11.000000
0.730000	63.800000	13.660000	0.000000	0.000000	136.000000	52.000000	0.000000	9.000000
0.740000	63.740000	13.660000	0.000000	0.000000	137.000000	52.000000	-6.000000	0.000000
0.750000	63.530000	13.580000	0.000000	0.000000	137.000000	51.000000	-21.000000	-8.000000
0.760000	63.250000	13.410000	0.000000	0.000000	137.000000	51.000000	-28.000000	-17.000000
0.770000	62.590000	13.190000	0.000000	0.000000	137.000000	51.000000	-66.000000	-22.000000
0.780000	61.750000	12.930000	0.000000	0.000000	137.000000	50.000000	-84.000000	-26.000000
0.790000	60.780000	12.680000	0.000000	0.000000	137.000000	50.000000	-97.000000	-25.000000
0.800000	59.680000	12.400000	0.000000	0.000000	136.000000	49.000000	-110.000000	-28.000000
0.810000	58.580000	12.090000	0.000000	0.000000	136.000000	49.000000	-110.000000	-31.000000
0.820000	57.420000	11.750000	0.000000	0.000000	135.000000	50.000000	-116.000000	-34.000000
0.830000	56.210000	11.390000	0.000000	0.000000	135.000000	50.000000	-121.000000	-36.000000
0.840000	55.290000	11.120000	0.000000	0.000000	136.000000	50.000000	-92.000000	-27.000000
0.850000	54.400000	10.900000	0.000000	0.000000	135.000000	51.000000	-89.000000	-22.000000
0.860000	53.720000	10.700000	0.000000	0.000000	135.000000	52.000000	-68.000000	-20.000000
0.870000	53.170000	10.560000	0.000000	0.000000	134.000000	52.000000	-55.000000	-14.000000
0.880000	52.840000	10.470000	0.000000	0.000000	134.000000	54.000000	-33.000000	-9.000000
0.890000	52.550000	10.470000	0.000000	0.000000	131.000000	55.000000	-29.000000	0.000000
0.900000	52.430000	10.470000	0.000000	0.000000	131.000000	56.000000	-12.000000	0.000000
0.910000	52.430000	10.410000	0.000000	0.000000	129.000000	56.000000	0.000000	-6.000000
0.920000	52.340000	10.410000	0.000000	0.000000	129.000000	56.000000	-9.000000	0.000000
0.930000	52.340000	10.410000	0.000000	0.000000	127.000000	56.000000	0.000000	0.000000
0.940000	52.340000	10.510000	0.000000	0.000000	125.000000	56.000000	0.000000	10.000000
0.950000	52.450000	10.600000	0.000000	0.000000	125.000000	56.000000	11.000000	9.000000
0.960000	52.530000	10.700000	0.000000	0.000000	123.000000	56.000000	8.000000	10.000000
0.970000	52.580000	10.810000	0.000000	0.000000	123.000000	56.000000	5.000000	11.000000
0.980000	52.580000	10.920000	0.000000	0.000000	122.000000	56.000000	0.000000	11.000000
0.990000	52.580000	11.040000	0.000000	0.000000	122.000000	56.000000	0.000000	12.000000
1.000000	52.580000	11.150000	0.000000	0.000000	121.000000	56.000000	0.000000	11.000000
1.010000	52.460000	11.300000	0.000000	0.000000	121.000000	56.000000	-12.000000	15.000000
1.020000	52.360000	11.450000	0.000000	0.000000	121.000000	56.000000	-10.000000	15.000000
1.030000	52.220000	11.600000	0.000000	0.000000	121.000000	56.000000	-14.000000	15.000000
1.040000	52.040000	11.810000	0.000000	0.000000	121.000000	56.000000	-18.000000	21.000000
1.050000	51.890000	12.050000	0.000000	0.000000	121.000000	56.000000	-15.000000	24.000000
1.060000	51.790000	12.320000	0.000000	0.000000	121.000000	56.000000	-10.000000	27.000000
1.070000	51.690000	12.600000	0.000000	0.000000	121.000000	56.000000	-10.000000	28.000000
1.080000	51.570000	12.900000	0.000000	0.000000	121.000000	56.000000	-12.000000	30.000000
1.090000	51.510000	13.150000	0.000000	0.000000	121.000000	56.000000	-6.000000	25.000000
1.100000	51.450000	13.380000	0.000000	0.000000	121.000000	56.000000	-6.000000	23.000000
1.110000	51.400000	13.560000	0.000000	0.000000	121.000000	56.000000	-5.000000	18.000000
1.120000	51.400000	13.690000	0.000000	0.000000	121.000000	56.000000	0.000000	13.000000
1.130000	51.400000	13.800000	0.000000	0.000000	122.000000	56.000000	0.000000	11.000000
1.140000	51.400000	13.890000	0.000000	0.000000	122.000000	56.000000	0.000000	9.000000
1.150000	51.480000	13.990000	0.000000	0.000000	122.000000	56.000000	8.000000	10.000000
1.160000	51.570000	14.130000	0.000000	0.000000	122.000000	56.000000	9.000000	14.000000
1.170000	51.660000	14.290000	0.000000	0.000000	122.000000	56.000000	9.000000	16.000000
1.180000	51.710000	14.430000	0.000000	0.000000	121.000000	56.000000	5.000000	14.000000
1.190000	51.710000	14.540000	0.000000	0.000000	121.000000	56.000000	0.000000	11.000000
1.200000	51.710000	14.540000	30.000000	1.000000	121.000000	56.000000	0.000000	0.000000
1.210000	51.710000	14.540000	63.000000	0.000000	121.000000	56.000000	0.000000	0.000000
1.220000	51.710000	14.540000	76.000000	0.000000	121.000000	56.000000	0.000000	0.000000
1.230000	51.780000	14.790000	109.000000	0.000000	121.000000	56.000000	7.000000	25.000000
1.240000	51.730000	14.840000	124.000000	0.000000	121.000000	56.000000	-5.000000	5.000000
1.250000	51.730000	14.840000	148.000000	0.000000	122.000000	56.000000	0.000000	0.000000
1.260000	51.730000	14.840000	146.000000	0.000000	122.000000	56.000000	0.000000	0.000000
1.270000	51.730000	14.890000	161.000000	0.000000	122.000000	56.000000	0.000000	5.000000
1.280000	51.730000	14.890000	180.000000	0.000000	122.000000	56.000000	0.000000	0.000000
1.290000	51.780000	14.940000	170.000000	0.000000	122.000000	56.000000	5.000000	5.000000
1.300000	51.780000	15.000000	175.000000	0.000000	122.000000	56.000000	0.000000	6.000000
1.310000	51.840000	15.000000	179.000000	0.000000	124.000000	55.000000	6.000000	0.000000
1.320000	51.840000	15.090000	182.000000	0.000000	124.000000	55.000000	0.000000	9.000000
1.330000	51.900000	15.170000	184.000000	0.000000	124.000000	55.000000	6.000000	8.000000
1.340000	51.900000	15.270000	170.000000	0.000000	124.000000	55.000000	0.000000	10.000000
1.350000	51.970000	15.350000	187.000000	0.000000	124.000000	55.000000	7.000000	8.000000
1.360000	51.970000	15.420000	184.000000	0.000000	124.000000	55.000000	0.000000	7.000000
1.370000	51.910000	15.470000	170.000000	0.000000	124.000000	55.000000	-6.000000	5.000000
1.380000	51.910000	15.470000	173.000000	0.000000	124.000000	55.000000	0.000000	0.000000
1.390000	51.910000	15.470000	181.000000	0.000000	124.000000	55.000000	0.000000	0.000000
1.400000	51.910000	15.470000	181.000000	0.000000	125.000000	55.000000	0.000000	0.000000
1.410000	51.910000	15.470000	183.000000	0.000000	125.000000	55.000000	0.000000	0.000000
1.420000	51.910000	15.420000	185.000000	0.000000	125.000000	55.000000	0.000000	-5.000000
1.430000	51.910000	15.350000	190.000000	0.000000	125.000000	55.000000	0.000000	-7.000000
1.440000	51.910000	15.080000	186.000000	0.000000	125.000000	55.000000	0.000000	-27.000000
1.450000	51.960000	14.690000	203.000000	0.000000	124.000000	55.000000	5.000000	-39.000000
1.460000	52.030000	14.160000	209.000000	0.000000	124.000000	55.000000	7.000000	-53.000000
1.470000	52.130000	13.400000	212.000000	0.000000	124.000000	55.000000	10.000000	-76.000000
1.480000	52.230000	12.480000	218.000000	0.000000	123.000000	56.000000	10.000000	-92.000000
1.490000	52.330000	11.490000	223.000000	0.000000	122.000000	57.000000	10.000000	-99.000000
1.500000	52.510000	10.770000	221.000000	0.000000	122.000000	57.000000	18.000000	-72.000000
1.510000	52.700000	10.240000	219.000000	0.000000	120.000000	57.000000	19.000000	-53.000000
1.520000	52.940000	9.910000	221.000000	0.000000	120.000000	57.000000	24.000000	-33.000000
1.530000	53.210000	9.710000	219.000000	0.000000	120.000000	57.000000	27.000000	-20.000000
1.540000	53.500000	9.590000	214.000000	0.000000	121.000000	58.000000	29.000000	-12.000000
1.550000	53.780000	9.590000	212.000000	0.000000	121.000000	58.000000	28.000000	0.000000
1.560000	54.040000	9.750000	222.000000	0.000000	121.000000	58.000000	26.000000	16.000000
1.570000	54.260000	9.920000	218.000000	0.000000	121.000000	58.000000	22.000000	17.000000
1.580000	54.450000	10.140000	193.000000	0.000000	123.000000	58.000000	19.000000	22.000000
1.590000	54.590000	10.420000	180.000000	0.000000	121.000000	58.000000	14.000000	28.000000
1.600000	54.670000	10.730000	148.000000	0.000000	121.000000	58.000000	8.000000	31.000000
1.610000	54.670000	11.010000	129.000000	0.000000	121.000000	58.000000	0.000000	28.000000
1.620000	54.670000	11.310000	101.000000	0.000000	120.000000	58.000000	0.000000	30.000000
1.630000	54.500000	11.670000	86.000000	0.000000	120.000000	58.000000	-17.000000	36.000000
1.640000	54.320000	12.060000	91.000000	0.000000	118.000000	59.000000	-18.000000	39.000000
1.650000	54.200000	12.260000	109.000000	0.000000	118.000000	59.000000	-12.000000	20.000000
1.660000	54.130000	12.260000	98.000000	0.000000	118.000000	59.000000	-7.000000	0.000000
1.670000	54.130000	12.260000	112.000000	0.000000	118.000000	59.000000	0.000000	0.000000
1.680000	54.080000	11.960000	124.000000	0.000000	118.000000	59.000000	-5.000000	-30.000000
1.690000	54.080000	11.580000	139.000000	0.000000	118.000000	59.000000	0.000000	-38.000000
1.700000	54.160000	11.100000	149.000000	0.000000	118.000000	59.000000	8.000000	-48.000000
1.710000	54.280000	10.790000	132.000000	0.000000	118.000000	59.000000	12.000000	-31.000000
1.720000	54.420000	10.540000	137.000000	0.000000	118.000000	59.000000	14.000000	-25.000000
1.730000	54.610000	10.320000	144.000000	0.000000	119.000000	60.000000	19.000000	-22.000000
1.740000	54.840000	10.240000	158.000000	0.000000	121.000000	59.000000	23.000000	-8.000000
1.750000	55.090000	10.240000	160.000000	0.000000	121.000000	59.000000	25.000000	0.000000
1.760000	55.360000	10.320000	158.000000	0.000000	121.000000	59.000000	27.000000	8.000000
1.770000	55.610000	10.470000	148.000000	0.000000	121.000000	59.000000	25.000000	15.000000
1.780000	55.870000	10.670000	149.000000	0.000000	121.000000	59.000000	26.000000	20.000000
1.790000	56.030000	10.900000	132.000000	0.000000	121.000000	59.000000	16.000000	23.000000
1.800000	56.140000	11.140000	113.000000	0.000000	121.000000	59.000000	11.000000	24.000000
1.810000	56.190000	11.380000	110.000000	0.000000	119.000000	60.000000	5.000000	24.000000
1.820000	56.190000	11.630000	108.000000	0.000000	119.000000	60.000000	0.000000	25.000000
1.830000	56.190000	11.790000	108.000000	0.000000	119.000000	60.000000	0.000000	16.000000
1.840000	56.190000	11.920000	119.000000	0.000000	119.000000	60.000000	0.000000	13.000000
1.850000	56.110000	11.920000	129.000000	0.000000	119.000000	60.000000	-8.000000	0.000000
1.860000	56.050000	11.920000	142.000000	0.000000	119.000000	60.000000	-6.000000	0.000000
1.870000	56.050000	11.820000	134.000000	0.000000	119.000000	60.000000	0.000000	-10.000000
1.880000	56.050000	11.660000	149.000000	0.000000	119.000000	60.000000	0.000000	-16.000000
1.890000	56.050000	11.430000	168.000000	0.000000	119.000000	60.000000	0.000000	-23.000000
1.900000	56.050000	11.180000	172.000000	0.000000	119.000000	60.000000	0.000000	-25.000000
1.910000	56.110000	11.050000	182.000000	0.000000	119.000000	60.000000	6.000000	-13.000000
1.920000	56.220000	11.050000	181.000000	0.000000	119.000000	60.000000	11.000000	0.000000
1.930000	56.380000	11.050000	200.000000	0.000000	119.000000	60.000000	16.000000	0.000000
1.940000	56.570000	11.050000	181.000000	0.000000	119.000000	60.000000	19.000000	0.000000
1.950000	56.780000	11.240000	180.000000	0.000000	119.000000	60.000000	21.000000	19.000000
1.960000	56.990000	11.480000	187.000000	0.000000	119.000000	60.000000	21.000000	24.000000
1.970000	57.190000	11.720000	177.000000	0.000000	120.000000	60.000000	20.000000	24.000000
1.980000	57.310000	11.960000	161.000000	0.000000	120.000000	60.000000	12.000000	24.000000
1.990000	57.380000	12.170000	161.000000	0.000000	120.000000	60.000000	7.000000	21.000000
2.000000	57.380000	12.310000	163.000000	0.000000	120.000000	60.000000	0.000000	14.000000
2.010000	57.380000	12.370000	173.000000	0.000000	120.000000	60.000000	0.000000	6.000000
2.020000	57.260000	12.370000	180.000000	0.000000	120.000000	60.000000	-12.000000	0.000000
2.030000	57.260000	12.250000	190.000000	0.000000	120.000000	60.000000	0.000000	-12.000000
2.040000	57.190000	12.080000	208.000000	0.000000	120.000000	60.000000	-7.000000	-17.000000
2.050000	57.190000	11.780000	209.000000	0.000000	120.000000	60.000000	0.000000	-30.000000
2.060000	57.190000	11.410000	211.000000	0.000000	120.000000	60.000000	0.000000	-37.000000
2.070000	57.330000	11.200000	225.000000	0.000000	120.000000	60.000000	14.000000	-21.000000
2.080000	57.510000	11.040000	218.000000	0.000000	120.000000	60.000000	18.000000	-16.000000
2.090000	57.750000	10.920000	206.000000	0.000000	120.000000	60.000000	24.000000	-12.000000
2.100000	58.020000	10.870000	188.000000	0.000000	120.000000	60.000000	27.000000	-5.000000
2.110000	58.320000	10.920000	143.000000	0.000000	120.000000	60.000000	30.000000	5.000000
2.120000	58.600000	11.050000	37.000000	0.000000	120.000000	60.000000	28.000000	13.000000
2.130000	58.600000	11.050000	0.000000	1.000000	119.000000	60.000000	0.000000	0.000000
2.140000	59.060000	11.510000	0.000000	0.000000	119.000000	60.000000	46.000000	46.000000
2.150000	59.060000	11.830000	0.000000	0.000000	119.000000	60.000000	0.000000	32.000000
2.160000	58.960000	12.090000	0.000000	0.000000	119.000000	60.000000	-10.000000	26.000000
2.170000	58.800000	12.360000	0.000000	0.000000	119.000000	60.000000	-16.000000	27.000000
2.180000	58.630000	12.620000	0.000000	0.000000	121.000000	59.000000	-17.000000	26.000000
2.190000	58.460000	12.940000	0.000000	0.000000	121.000000	59.000000	-17.000000	32.000000
2.200000	58.320000	13.310000	0.000000	0.000000	123.000000	59.000000	-14.000000	37.000000
2.210000	58.190000	13.690000	0.000000	0.000000	123.000000	59.000000	-13.000000	38.000000
2.220000	58.080000	14.050000	0.000000	0.000000	124.000000	58.000000	-11.000000	36.000000
