t	x	y	pressure	penup	azimuth	inclination	v_x	v_y
0.000000	56.500000	37.180000	130.000000	1.000000	132.000000	60.000000	0.000000	0.000000
0.010000	56.800000	36.820000	223.000000	0.000000	132.000000	60.000000	30.000000	-36.000000
0.020000	56.730000	36.150000	314.000000	0.000000	132.000000	60.000000	-7.000000	-67.000000
0.030000	56.780000	34.960000	450.000000	0.000000	132.000000	60.000000	5.000000	-119.000000
0.040000	56.830000	33.430000	542.000000	0.000000	132.000000	60.000000	5.000000	-153.000000
0.050000	56.910000	31.820000	611.000000	0.000000	134.000000	61.000000	8.000000	-161.000000
0.060000	57.010000	30.540000	643.000000	0.000000	132.000000	61.000000	10.000000	-128.000000
0.070000	57.250000	29.470000	663.000000	0.000000	132.000000	61.000000	24.000000	-107.000000
0.080000	57.560000	28.750000	675.000000	0.000000	132.000000	61.000000	31.000000	-72.000000
0.090000	57.860000	28.260000	678.000000	0.000000	130.000000	62.000000	30.000000	-49.000000
0.100000	57.980000	27.920000	678.000000	0.000000	130.000000	62.000000	12.000000	-34.000000
0.110000	57.980000	27.920000	685.000000	0.000000	130.000000	62.000000	0.000000	0.000000
0.120000	57.840000	28.060000	700.000000	0.000000	130.000000	62.000000	-14.000000	14.000000
0.130000	57.430000	28.330000	694.000000	0.000000	129.000000	61.000000	-41.000000	27.000000
0.140000	56.830000	28.830000	679.000000	0.000000	129.000000	61.000000	-60.000000	50.000000
0.150000	55.980000	29.260000	671.000000	0.000000	129.000000	61.000000	-85.000000	43.000000
0.160000	54.800000	29.590000	669.000000	0.000000	129.000000	61.000000	-118.000000	33.000000
0.170000	53.400000	29.590000	650.000000	0.000000	129.000000	61.000000	-140.000000	0.000000
0.180000	51.560000	29.440000	666.000000	0.000000	129.000000	61.000000	-184.000000	-15.000000
0.190000	49.680000	29.070000	669.000000	0.000000	129.000000	61.000000	-188.000000	-37.000000
0.200000	47.760000	28.580000	685.000000	0.000000	129.000000	61.000000	-192.000000	-49.000000
0.210000	46.010000	28.010000	690.000000	0.000000	129.000000	61.000000	-175.000000	-57.000000
0.220000	44.940000	27.530000	690.000000	0.000000	127.000000	62.000000	-107.000000	-48.000000
0.230000	44.330000	27.240000	684.000000	0.000000	126.000000	61.000000	-61.000000	-29.000000
0.240000	44.270000	27.090000	667.000000	0.000000	126.000000	61.000000	-6.000000	-15.000000
0.250000	44.790000	27.090000	675.000000	0.000000	124.000000	62.000000	52.000000	0.000000
0.260000	45.700000	27.140000	694.000000	0.000000	124.000000	62.000000	91.000000	5.000000
0.270000	47.540000	27.410000	700.000000	0.000000	123.000000	61.000000	184.000000	27.000000
0.280000	50.160000	27.850000	717.000000	0.000000	123.000000	61.000000	262.000000	44.000000
0.290000	53.310000	28.550000	722.000000	0.000000	124.000000	62.000000	315.000000	70.000000
0.300000	56.980000	29.440000	734.000000	0.000000	124.000000	62.000000	367.000000	89.000000
0.310000	60.670000	30.450000	755.000000	0.000000	124.000000	62.000000	369.000000	101.000000
0.320000	64.410000	31.180000	753.000000	0.000000	127.000000	62.000000	374.000000	73.000000
0.330000	67.670000	31.900000	765.000000	0.000000	129.000000	61.000000	326.000000	72.000000
0.340000	70.610000	32.560000	767.000000	0.000000	131.000000	61.000000	294.000000	66.000000
0.350000	72.930000	33.000000	751.000000	0.000000	132.000000	61.000000	232.000000	44.000000
0.360000	74.430000	33.310000	727.000000	0.000000	135.000000	62.000000	150.000000	31.000000
0.370000	75.390000	33.390000	591.000000	0.000000	135.000000	62.000000	96.000000	8.000000
0.380000	75.460000	33.390000	210.000000	0.000000	137.000000	62.000000	7.000000	0.000000
0.390000	75.460000	33.390000	0.000000	1.000000	138.000000	61.000000	0.000000	0.000000
0.400000	74.180000	33.320000	0.000000	0.000000	140.000000	62.000000	-128.000000	-7.000000
0.410000	72.930000	33.260000	0.000000	0.000000	140.000000	62.000000	-125.000000	-6.000000
0.420000	71.400000	33.180000	0.000000	0.000000	140.000000	62.000000	-153.000000	-8.000000
0.430000	69.690000	33.070000	0.000000	0.000000	140.000000	62.000000	-171.000000	-11.000000
0.440000	67.940000	32.940000	0.000000	0.000000	140.000000	62.000000	-175.000000	-13.000000
0.450000	66.220000	32.800000	0.000000	0.000000	141.000000	61.000000	-172.000000	-14.000000
0.460000	64.510000	32.620000	0.000000	0.000000	141.000000	61.000000	-171.000000	-18.000000
0.470000	62.840000	32.370000	0.000000	0.000000	141.000000	61.000000	-167.000000	-25.000000
0.480000	61.210000	32.110000	0.000000	0.000000	141.000000	60.000000	-163.000000	-26.000000
0.490000	59.880000	31.840000	0.000000	0.000000	138.000000	59.000000	-133.000000	-27.000000
0.500000	58.740000	31.690000	0.000000	0.000000	136.000000	58.000000	-114.000000	-15.000000
0.510000	57.850000	31.610000	0.000000	0.000000	134.000000	58.000000	-89.000000	-8.000000
0.520000	57.190000	31.610000	0.000000	0.000000	132.000000	58.000000	-66.000000	0.000000
0.530000	56.690000	31.700000	0.000000	0.000000	132.000000	58.000000	-50.000000	9.000000
0.540000	56.430000	31.770000	0.000000	0.000000	131.000000	58.000000	-26.000000	7.000000
0.550000	56.220000	31.770000	0.000000	0.000000	131.000000	58.000000	-21.000000	0.000000
0.560000	56.100000	31.840000	0.000000	0.000000	131.000000	60.000000	-12.000000	7.000000
0.570000	56.050000	31.840000	0.000000	0.000000	131.000000	60.000000	-5.000000	0.000000
0.580000	56.120000	31.840000	0.000000	0.000000	132.000000	60.000000	7.000000	0.000000
0.590000	56.250000	31.900000	0.000000	0.000000	134.000000	61.000000	13.000000	6.000000
0.600000	56.400000	31.950000	0.000000	0.000000	134.000000	61.000000	15.000000	5.000000
0.610000	56.550000	32.030000	0.000000	0.000000	134.000000	61.000000	15.000000	8.000000
0.620000	56.720000	32.140000	0.000000	0.000000	132.000000	61.000000	17.000000	11.000000
0.630000	56.870000	32.290000	0.000000	0.000000	132.000000	61.000000	15.000000	15.000000
0.640000	56.870000	32.480000	0.000000	0.000000	131.000000	61.000000	0.000000	19.000000
0.650000	56.870000	32.640000	0.000000	0.000000	131.000000	61.000000	0.000000	16.000000
0.660000	56.730000	32.880000	0.000000	0.000000	131.000000	61.000000	-14.000000	24.000000
0.670000	56.600000	33.180000	0.000000	0.000000	131.000000	61.000000	-13.000000	30.000000
0.680000	56.470000	33.600000	0.000000	0.000000	129.000000	61.000000	-13.000000	42.000000
0.690000	56.330000	34.260000	0.000000	0.000000	129.000000	61.000000	-14.000000	66.000000
0.700000	56.330000	34.260000	17.000000	1.000000	129.000000	61.000000	0.000000	0.000000
0.710000	56.330000	35.940000	105.000000	0.000000	129.000000	61.000000	0.000000	168.000000
0.720000	56.330000	36.720000	183.000000	0.000000	128.000000	61.000000	0.000000	78.000000
0.730000	56.400000	37.200000	250.000000	0.000000	128.000000	61.000000	7.000000	48.000000
0.740000	56.510000	37.510000	339.000000	0.000000	128.000000	61.000000	11.000000	31.000000
0.750000	56.610000	37.590000	407.000000	0.000000	128.000000	61.000000	10.000000	8.000000
0.760000	56.680000	37.400000	465.000000	0.000000	128.000000	61.000000	7.000000	-19.000000
0.770000	56.780000	37.020000	512.000000	0.000000	129.000000	60.000000	10.000000	-38.000000
0.780000	56.870000	36.180000	586.000000	0.000000	129.000000	60.000000	9.000000	-84.000000
0.790000	56.870000	35.010000	671.000000	0.000000	131.000000	60.000000	0.000000	-117.000000
0.800000	56.870000	33.630000	716.000000	0.000000	129.000000	60.000000	0.000000	-138.000000
0.810000	56.930000	32.400000	743.000000	0.000000	129.000000	60.000000	6.000000	-123.000000
0.820000	57.020000	31.450000	757.000000	0.000000	131.000000	61.000000	9.000000	-95.000000
0.830000	57.220000	30.700000	761.000000	0.000000	129.000000	61.000000	20.000000	-75.000000
0.840000	57.490000	30.270000	757.000000	0.000000	129.000000	61.000000	27.000000	-43.000000
0.850000	57.810000	30.040000	746.000000	0.000000	129.000000	61.000000	32.000000	-23.000000
0.860000	58.140000	29.950000	725.000000	0.000000	129.000000	61.000000	33.000000	-9.000000
0.870000	58.410000	30.140000	733.000000	0.000000	129.000000	61.000000	27.000000	19.000000
0.880000	58.650000	30.680000	725.000000	0.000000	128.000000	61.000000	24.000000	54.000000
0.890000	58.800000	31.450000	731.000000	0.000000	128.000000	61.000000	15.000000	77.000000
0.900000	58.850000	32.200000	754.000000	0.000000	126.000000	60.000000	5.000000	75.000000
0.910000	58.850000	32.900000	770.000000	0.000000	126.000000	60.000000	0.000000	70.000000
0.920000	58.760000	33.240000	787.000000	0.000000	126.000000	60.000000	-9.000000	34.000000
0.930000	58.710000	33.360000	800.000000	0.000000	125.000000	59.000000	-5.000000	12.000000
0.940000	58.710000	33.360000	796.000000	0.000000	125.000000	59.000000	0.000000	0.000000
0.950000	58.710000	33.250000	803.000000	0.000000	125.000000	59.000000	0.000000	-11.000000
0.960000	58.710000	32.840000	806.000000	0.000000	125.000000	59.000000	0.000000	-41.000000
0.970000	58.800000	32.220000	808.000000	0.000000	125.000000	59.000000	9.000000	-62.000000
0.980000	58.870000	31.620000	815.000000	0.000000	125.000000	59.000000	7.000000	-60.000000
0.990000	58.950000	31.050000	815.000000	0.000000	125.000000	59.000000	8.000000	-57.000000
1.000000	59.120000	30.670000	815.000000	0.000000	125.000000	59.000000	17.000000	-38.000000
1.010000	59.350000	30.400000	820.000000	0.000000	125.000000	59.000000	23.000000	-27.000000
1.020000	59.620000	30.280000	815.000000	0.000000	127.000000	59.000000	27.000000	-12.000000
1.030000	59.890000	30.360000	808.000000	0.000000	127.000000	59.000000	27.000000	8.000000
1.040000	60.160000	30.580000	803.000000	0.000000	127.000000	59.000000	27.000000	22.000000
1.050000	60.360000	31.090000	809.000000	0.000000	125.000000	59.000000	20.000000	51.000000
1.060000	60.530000	31.670000	815.000000	0.000000	125.000000	59.000000	17.000000	58.000000
1.070000	60.590000	32.300000	818.000000	0.000000	125.000000	59.000000	6.000000	63.000000
1.080000	60.590000	32.810000	821.000000	0.000000	125.000000	59.000000	0.000000	51.000000
1.090000	60.490000	33.060000	824.000000	0.000000	125.000000	59.000000	-10.000000	25.000000
1.100000	60.490000	33.060000	834.000000	0.000000	125.000000	59.000000	0.000000	0.000000
1.110000	60.490000	33.060000	828.000000	0.000000	125.000000	59.000000	0.000000	0.000000
1.120000	60.490000	33.060000	834.000000	0.000000	125.000000	59.000000	0.000000	0.000000
1.130000	60.420000	32.590000	837.000000	0.000000	125.000000	59.000000	-7.000000	-47.000000
1.140000	60.420000	32.110000	833.000000	0.000000	125.000000	59.000000	0.000000	-48.000000
1.150000	60.630000	31.710000	828.000000	0.000000	125.000000	59.000000	21.000000	-40.000000
1.160000	60.890000	31.360000	825.000000	0.000000	125.000000	59.000000	26.000000	-35.000000
1.170000	61.250000	31.180000	823.000000	0.000000	125.000000	59.000000	36.000000	-18.000000
1.180000	61.650000	31.250000	809.000000	0.000000	125.000000	59.000000	40.000000	7.000000
1.190000	62.100000	31.480000	796.000000	0.000000	126.000000	60.000000	45.000000	23.000000
1.200000	62.570000	31.930000	784.000000	0.000000	128.000000	59.000000	47.000000	45.000000
1.210000	62.860000	32.460000	788.000000	0.000000	126.000000	60.000000	29.000000	53.000000
1.220000	62.970000	33.040000	790.000000	0.000000	126.000000	60.000000	11.000000	58.000000
1.230000	62.970000	33.410000	803.000000	0.000000	126.000000	60.000000	0.000000	37.000000
1.240000	62.840000	33.550000	829.000000	0.000000	126.000000	60.000000	-13.000000	14.000000
1.250000	62.670000	33.550000	822.000000	0.000000	126.000000	60.000000	-17.000000	0.000000
1.260000	62.460000	33.290000	839.000000	0.000000	126.000000	60.000000	-21.000000	-26.000000
1.270000	62.240000	32.550000	869.000000	0.000000	126.000000	60.000000	-22.000000	-74.000000
1.280000	62.040000	31.470000	900.000000	0.000000	126.000000	60.000000	-20.000000	-108.000000
1.290000	61.860000	30.260000	944.000000	0.000000	126.000000	60.000000	-18.000000	-121.000000
1.300000	61.750000	29.030000	959.000000	0.000000	125.000000	60.000000	-11.000000	-123.000000
1.310000	61.670000	28.030000	943.000000	0.000000	125.000000	60.000000	-8.000000	-100.000000
1.320000	61.770000	27.210000	891.000000	0.000000	125.000000	60.000000	10.000000	-82.000000
1.330000	61.970000	26.690000	724.000000	0.000000	123.000000	61.000000	20.000000	-52.000000
1.340000	62.260000	26.690000	368.000000	0.000000	122.000000	61.000000	29.000000	0.000000
1.350000	62.260000	26.690000	0.000000	1.000000	122.000000	61.000000	0.000000	0.000000
1.360000	63.020000	27.860000	0.000000	0.000000	120.000000	62.000000	76.000000	117.000000
1.370000	63.280000	28.720000	0.000000	0.000000	120.000000	62.000000	26.000000	86.000000
1.380000	63.420000	29.590000	0.000000	0.000000	120.000000	62.000000	14.000000	87.000000
1.390000	63.420000	30.410000	0.000000	0.000000	120.000000	62.000000	0.000000	82.000000
1.400000	63.480000	31.210000	0.000000	0.000000	120.000000	62.000000	6.000000	80.000000
1.410000	63.480000	31.950000	0.000000	0.000000	122.000000	61.000000	0.000000	74.000000
1.420000	63.480000	31.950000	120.000000	1.000000	122.000000	61.000000	0.000000	0.000000
1.430000	63.540000	33.280000	304.000000	0.000000	123.000000	61.000000	6.000000	133.000000
1.440000	63.420000	33.720000	460.000000	0.000000	123.000000	61.000000	-12.000000	44.000000
1.450000	63.420000	34.010000	566.000000	0.000000	125.000000	60.000000	0.000000	29.000000
1.460000	63.420000	34.010000	643.000000	0.000000	126.000000	61.000000	0.000000	0.000000
1.470000	63.420000	33.950000	685.000000	0.000000	126.000000	61.000000	0.000000	-6.000000
1.480000	63.490000	33.700000	728.000000	0.000000	126.000000	61.000000	7.000000	-25.000000
1.490000	63.620000	33.320000	754.000000	0.000000	126.000000	61.000000	13.000000	-38.000000
1.500000	63.760000	32.710000	773.000000	0.000000	127.000000	62.000000	14.000000	-61.000000
1.510000	63.870000	32.060000	788.000000	0.000000	127.000000	62.000000	11.000000	-65.000000
1.520000	64.140000	31.590000	791.000000	0.000000	127.000000	62.000000	27.000000	-47.000000
1.530000	64.410000	31.250000	791.000000	0.000000	127.000000	62.000000	27.000000	-34.000000
1.540000	64.690000	31.080000	788.000000	0.000000	129.000000	61.000000	28.000000	-17.000000
1.550000	64.930000	31.080000	788.000000	0.000000	129.000000	61.000000	24.000000	0.000000
1.560000	65.160000	31.140000	787.000000	0.000000	129.000000	61.000000	23.000000	6.000000
1.570000	65.330000	31.420000	805.000000	0.000000	131.000000	61.000000	17.000000	28.000000
1.580000	65.480000	31.800000	820.000000	0.000000	131.000000	61.000000	15.000000	38.000000
1.590000	65.620000	32.240000	836.000000	0.000000	131.000000	61.000000	14.000000	44.000000
1.600000	65.710000	32.730000	860.000000	0.000000	129.000000	61.000000	9.000000	49.000000
1.610000	65.710000	33.200000	902.000000	0.000000	129.000000	61.000000	0.000000	47.000000
1.620000	65.650000	33.610000	947.000000	0.000000	129.000000	61.000000	-6.000000	41.000000
1.630000	65.580000	33.900000	984.000000	0.000000	127.000000	62.000000	-7.000000	29.000000
1.640000	65.470000	34.020000	1023.000000	0.000000	127.000000	62.000000	-11.000000	12.000000
1.650000	65.330000	34.020000	1023.000000	0.000000	127.000000	62.000000	-14.000000	0.000000
1.660000	65.280000	34.020000	1023.000000	0.000000	127.000000	62.000000	-5.000000	0.000000
1.670000	65.280000	33.940000	1005.000000	0.000000	127.000000	62.000000	0.000000	-8.000000
1.680000	65.280000	33.940000	997.000000	0.000000	127.000000	62.000000	0.000000	0.000000
1.690000	65.280000	33.440000	987.000000	0.000000	129.000000	63.000000	0.000000	-50.000000
1.700000	65.420000	32.920000	981.000000	0.000000	129.000000	63.000000	14.000000	-52.000000
1.710000	65.660000	32.570000	988.000000	0.000000	129.000000	63.000000	24.000000	-35.000000
1.720000	65.840000	32.280000	983.000000	0.000000	130.000000	62.000000	18.000000	-29.000000
1.730000	66.060000	32.040000	983.000000	0.000000	130.000000	62.000000	22.000000	-24.000000
1.740000	66.340000	31.920000	980.000000	0.000000	130.000000	62.000000	28.000000	-12.000000
1.750000	66.600000	31.920000	985.000000	0.000000	132.000000	61.000000	26.000000	0.000000
1.760000	66.820000	32.030000	989.000000	0.000000	132.000000	61.000000	22.000000	11.000000
1.770000	67.020000	32.310000	979.000000	0.000000	132.000000	61.000000	20.000000	28.000000
1.780000	67.210000	32.690000	981.000000	0.000000	132.000000	61.000000	19.000000	38.000000
1.790000	67.340000	33.140000	991.000000	0.000000	132.000000	61.000000	13.000000	45.000000
1.800000	67.420000	33.560000	991.000000	0.000000	130.000000	62.000000	8.000000	42.000000
1.810000	67.420000	34.000000	999.000000	0.000000	130.000000	62.000000	0.000000	44.000000
1.820000	67.420000	34.280000	1008.000000	0.000000	130.000000	62.000000	0.000000	28.000000
1.830000	67.420000	34.440000	1021.000000	0.000000	129.000000	63.000000	0.000000	16.000000
1.840000	67.350000	34.490000	1023.000000	0.000000	129.000000	63.000000	-7.000000	5.000000
1.850000	67.300000	34.490000	1008.000000	0.000000	129.000000	63.000000	-5.000000	0.000000
1.860000	67.250000	34.420000	988.000000	0.000000	129.000000	63.000000	-5.000000	-7.000000
1.870000	67.130000	34.140000	977.000000	0.000000	129.000000	63.000000	-12.000000	-28.000000
1.880000	66.970000	33.730000	992.000000	0.000000	129.000000	63.000000	-16.000000	-41.000000
1.890000	66.970000	33.200000	983.000000	0.000000	129.000000	63.000000	0.000000	-53.000000
1.900000	67.030000	32.660000	971.000000	0.000000	129.000000	63.000000	6.000000	-54.000000
1.910000	67.260000	32.130000	976.000000	0.000000	129.000000	63.000000	23.000000	-53.000000
1.920000	67.580000	31.840000	976.000000	0.000000	130.000000	62.000000	32.000000	-29.000000
1.930000	67.990000	31.690000	983.000000	0.000000	130.000000	62.000000	41.000000	-15.000000
1.940000	68.450000	31.780000	982.000000	0.000000	130.000000	62.000000	46.000000	9.000000
1.950000	68.900000	32.140000	977.000000	0.000000	132.000000	61.000000	45.000000	36.000000
1.960000	69.320000	32.680000	965.000000	0.000000	132.000000	61.000000	42.000000	54.000000
1.970000	69.680000	33.550000	961.000000	0.000000	132.000000	61.000000	36.000000	87.000000
1.980000	69.880000	34.490000	967.000000	0.000000	129.000000	61.000000	20.000000	94.000000
1.990000	69.960000	35.490000	974.000000	0.000000	129.000000	61.000000	8.000000	100.000000
2.000000	69.840000	36.180000	995.000000	0.000000	129.000000	61.000000	-12.000000	69.000000
2.010000	69.650000	36.490000	1006.000000	0.000000	128.000000	61.000000	-19.000000	31.000000
2.020000	69.410000	36.540000	1023.000000	0.000000	128.000000	61.000000	-24.000000	5.000000
2.030000	69.180000	36.430000	1023.000000	0.000000	126.000000	61.000000	-23.000000	-11.000000
2.040000	69.030000	36.020000	1023.000000	0.000000	126.000000	61.000000	-15.000000	-41.000000
2.050000	68.940000	35.400000	1023.000000	0.000000	126.000000	61.000000	-9.000000	-62.000000
2.060000	69.040000	34.700000	996.000000	0.000000	126.000000	61.000000	10.000000	-70.000000
2.070000	69.200000	33.990000	939.000000	0.000000	126.000000	61.000000	16.000000	-71.000000
2.080000	69.460000	33.390000	787.000000	0.000000	126.000000	61.000000	26.000000	-60.000000
2.090000	69.750000	32.860000	498.000000	0.000000	128.000000	61.000000	29.000000	-53.000000
2.100000	69.750000	32.860000	0.000000	1.000000	128.000000	61.000000	0.000000	0.000000
2.110000	70.140000	32.470000	0.000000	0.000000	129.000000	61.000000	39.000000	-39.000000
2.120000	70.090000	32.470000	0.000000	0.000000	129.000000	61.000000	-5.000000	0.000000
2.130000	69.620000	32.470000	0.000000	0.000000	129.000000	61.000000	-47.000000	0.000000
2.140000	68.870000	32.470000	0.000000	0.000000	130.000000	62.000000	-75.000000	0.000000
2.150000	67.940000	32.470000	0.000000	0.000000	130.000000	62.000000	-93.000000	0.000000
2.160000	66.530000	32.400000	0.000000	0.000000	132.000000	63.000000	-141.000000	-7.000000
2.170000	64.910000	32.170000	0.000000	0.000000	133.000000	62.000000	-162.000000	-23.000000
2.180000	63.150000	31.850000	0.000000	0.000000	133.000000	62.000000	-176.000000	-32.000000
2.190000	61.340000	31.500000	0.000000	0.000000	133.000000	62.000000	-181.000000	-35.000000
2.200000	61.340000	31.500000	438.000000	1.000000	132.000000	61.000000	0.000000	0.000000
