t	x	y	pressure	penup	azimuth	inclination	v_x	v_y
0.000000	92.100000	84.870000	1.000000	1.000000	155.000000	54.000000	0.000000	0.000000
0.010000	92.270000	85.700000	233.000000	1.000000	158.000000	54.000000	0.000000	0.000000
0.020000	92.340000	85.960000	279.000000	0.000000	160.000000	54.000000	7.000000	26.000000
0.030000	92.340000	85.870000	302.000000	0.000000	163.000000	55.000000	0.000000	-9.000000
0.040000	92.400000	85.570000	387.000000	0.000000	164.000000	55.000000	6.000000	-30.000000
0.050000	92.400000	84.680000	464.000000	0.000000	164.000000	55.000000	0.000000	-89.000000
0.060000	92.400000	83.490000	518.000000	0.000000	165.000000	55.000000	0.000000	-119.000000
0.070000	92.540000	82.110000	536.000000	0.000000	165.000000	55.000000	14.000000	-138.000000
0.080000	92.680000	80.110000	556.000000	0.000000	165.000000	55.000000	14.000000	-200.000000
0.090000	92.830000	78.100000	567.000000	0.000000	164.000000	55.000000	15.000000	-201.000000
0.100000	93.020000	76.090000	561.000000	0.000000	164.000000	55.000000	19.000000	-201.000000
0.110000	93.320000	74.500000	556.000000	0.000000	164.000000	55.000000	30.000000	-159.000000
0.120000	93.690000	73.430000	545.000000	0.000000	163.000000	55.000000	37.000000	-107.000000
0.130000	94.050000	72.700000	543.000000	0.000000	163.000000	55.000000	36.000000	-73.000000
0.140000	94.360000	72.320000	537.000000	0.000000	162.000000	56.000000	31.000000	-38.000000
0.150000	94.410000	72.250000	545.000000	0.000000	162.000000	56.000000	5.000000	-7.000000
0.160000	94.300000	72.390000	515.000000	0.000000	162.000000	56.000000	-11.000000	14.000000
0.170000	93.790000	73.030000	519.000000	0.000000	162.000000	56.000000	-51.000000	64.000000
0.180000	92.960000	74.130000	504.000000	0.000000	163.000000	55.000000	-83.000000	110.000000
0.190000	91.920000	75.530000	561.000000	0.000000	163.000000	55.000000	-104.000000	140.000000
0.200000	90.650000	76.910000	645.000000	0.000000	163.000000	55.000000	-127.000000	138.000000
0.210000	89.330000	77.790000	699.000000	0.000000	163.000000	55.000000	-132.000000	88.000000
0.220000	87.980000	78.350000	728.000000	0.000000	163.000000	55.000000	-135.000000	56.000000
0.230000	87.050000	78.470000	731.000000	0.000000	163.000000	55.000000	-93.000000	12.000000
0.240000	86.390000	78.360000	731.000000	0.000000	163.000000	54.000000	-66.000000	-11.000000
0.250000	85.910000	78.100000	707.000000	0.000000	163.000000	54.000000	-48.000000	-26.000000
0.260000	85.840000	77.870000	702.000000	0.000000	163.000000	54.000000	-7.000000	-23.000000
0.270000	86.340000	77.630000	708.000000	0.000000	164.000000	53.000000	50.000000	-24.000000
0.280000	87.220000	77.360000	691.000000	0.000000	165.000000	53.000000	88.000000	-27.000000
0.290000	89.030000	77.360000	707.000000	0.000000	165.000000	53.000000	181.000000	0.000000
0.300000	91.720000	77.630000	711.000000	0.000000	165.000000	53.000000	269.000000	27.000000
0.310000	94.990000	78.030000	691.000000	0.000000	164.000000	54.000000	327.000000	40.000000
0.320000	98.620000	78.400000	662.000000	0.000000	164.000000	54.000000	363.000000	37.000000
0.330000	102.250000	78.590000	620.000000	0.000000	166.000000	54.000000	363.000000	19.000000
0.340000	105.490000	78.680000	589.000000	0.000000	165.000000	55.000000	324.000000	9.000000
0.350000	108.460000	78.740000	620.000000	0.000000	165.000000	55.000000	297.000000	6.000000
0.360000	110.650000	78.890000	644.000000	0.000000	165.000000	56.000000	219.000000	15.000000
0.370000	111.910000	79.110000	653.000000	0.000000	166.000000	56.000000	126.000000	22.000000
0.380000	112.550000	79.320000	636.000000	0.000000	166.000000	57.000000	64.000000	21.000000
0.390000	112.850000	79.520000	520.000000	0.000000	165.000000	58.000000	30.000000	20.000000
0.400000	112.850000	79.520000	0.000000	1.000000	166.000000	59.000000	0.000000	0.000000
0.410000	112.420000	80.100000	0.000000	0.000000	166.000000	60.000000	-43.000000	58.000000
0.420000	111.490000	80.230000	0.000000	0.000000	165.000000	61.000000	-93.000000	13.000000
0.430000	110.200000	80.130000	0.000000	0.000000	165.000000	61.000000	-129.000000	-10.000000
0.440000	108.660000	79.880000	0.000000	0.000000	165.000000	62.000000	-154.000000	-25.000000
0.450000	107.350000	79.360000	0.000000	0.000000	165.000000	62.000000	-131.000000	-52.000000
0.460000	106.040000	78.820000	0.000000	0.000000	165.000000	61.000000	-131.000000	-54.000000
0.470000	104.720000	78.240000	0.000000	0.000000	164.000000	60.000000	-132.000000	-58.000000
0.480000	103.340000	77.880000	0.000000	0.000000	163.000000	59.000000	-138.000000	-36.000000
0.490000	101.980000	77.670000	0.000000	0.000000	161.000000	57.000000	-136.000000	-21.000000
0.500000	100.770000	77.670000	0.000000	0.000000	161.000000	55.000000	-121.000000	0.000000
0.510000	99.640000	77.880000	0.000000	0.000000	161.000000	52.000000	-113.000000	21.000000
0.520000	98.380000	78.230000	0.000000	0.000000	161.000000	50.000000	-126.000000	35.000000
0.530000	97.300000	78.820000	0.000000	0.000000	162.000000	49.000000	-108.000000	59.000000
0.540000	96.340000	79.640000	0.000000	0.000000	162.000000	48.000000	-96.000000	82.000000
0.550000	95.560000	80.620000	0.000000	0.000000	162.000000	48.000000	-78.000000	98.000000
0.560000	94.970000	81.520000	0.000000	0.000000	161.000000	48.000000	-59.000000	90.000000
0.570000	94.510000	82.180000	0.000000	0.000000	162.000000	50.000000	-46.000000	66.000000
0.580000	94.270000	82.690000	0.000000	0.000000	161.000000	50.000000	-24.000000	51.000000
0.590000	94.060000	83.120000	0.000000	0.000000	160.000000	51.000000	-21.000000	43.000000
0.600000	93.910000	83.390000	0.000000	0.000000	160.000000	52.000000	-15.000000	27.000000
0.610000	93.820000	83.550000	0.000000	0.000000	158.000000	53.000000	-9.000000	16.000000
0.620000	93.760000	83.700000	0.000000	0.000000	156.000000	53.000000	-6.000000	15.000000
0.630000	93.640000	83.940000	0.000000	0.000000	156.000000	53.000000	-12.000000	24.000000
0.640000	93.560000	84.240000	0.000000	0.000000	156.000000	53.000000	-8.000000	30.000000
0.650000	93.500000	84.470000	0.000000	0.000000	156.000000	53.000000	-6.000000	23.000000
0.660000	93.450000	84.280000	0.000000	0.000000	156.000000	53.000000	-5.000000	-19.000000
0.670000	93.450000	83.820000	0.000000	0.000000	156.000000	53.000000	0.000000	-46.000000
0.680000	93.320000	84.160000	0.000000	0.000000	158.000000	53.000000	-13.000000	34.000000
0.690000	93.200000	84.020000	0.000000	0.000000	158.000000	53.000000	-12.000000	-14.000000
0.700000	93.030000	83.550000	0.000000	0.000000	158.000000	53.000000	-17.000000	-47.000000
0.710000	92.950000	83.350000	0.000000	0.000000	158.000000	53.000000	-8.000000	-20.000000
0.720000	92.950000	83.290000	0.000000	0.000000	158.000000	53.000000	0.000000	-6.000000
0.730000	92.890000	83.290000	0.000000	0.000000	159.000000	53.000000	-6.000000	0.000000
0.740000	92.820000	83.470000	0.000000	0.000000	159.000000	53.000000	-7.000000	18.000000
0.750000	92.710000	83.660000	0.000000	0.000000	159.000000	53.000000	-11.000000	19.000000
0.760000	92.530000	83.880000	0.000000	0.000000	159.000000	53.000000	-18.000000	22.000000
0.770000	92.360000	83.950000	0.000000	0.000000	159.000000	53.000000	-17.000000	7.000000
0.780000	92.220000	84.000000	0.000000	0.000000	159.000000	53.000000	-14.000000	5.000000
0.790000	92.130000	84.000000	0.000000	0.000000	159.000000	53.000000	-9.000000	0.000000
0.800000	92.130000	84.110000	0.000000	0.000000	159.000000	53.000000	0.000000	11.000000
0.810000	92.130000	84.270000	0.000000	0.000000	159.000000	53.000000	0.000000	16.000000
0.820000	92.180000	84.570000	0.000000	0.000000	160.000000	53.000000	5.000000	30.000000
0.830000	92.180000	84.570000	55.000000	1.000000	160.000000	53.000000	0.000000	0.000000
0.840000	92.390000	85.600000	163.000000	0.000000	162.000000	54.000000	21.000000	103.000000
0.850000	92.460000	86.110000	241.000000	0.000000	161.000000	55.000000	7.000000	51.000000
0.860000	92.520000	86.600000	332.000000	0.000000	163.000000	55.000000	6.000000	49.000000
0.870000	92.520000	86.870000	396.000000	0.000000	163.000000	55.000000	0.000000	27.000000
0.880000	92.520000	87.000000	427.000000	0.000000	162.000000	56.000000	0.000000	13.000000
0.890000	92.400000	87.000000	430.000000	0.000000	162.000000	56.000000	-12.000000	0.000000
0.900000	92.310000	86.660000	446.000000	0.000000	162.000000	56.000000	-9.000000	-34.000000
0.910000	92.250000	86.150000	490.000000	0.000000	162.000000	56.000000	-6.000000	-51.000000
0.920000	92.250000	85.110000	521.000000	0.000000	160.000000	55.000000	0.000000	-104.000000
0.930000	92.250000	83.930000	560.000000	0.000000	159.000000	55.000000	0.000000	-118.000000
0.940000	92.450000	82.670000	580.000000	0.000000	159.000000	55.000000	20.000000	-126.000000
0.950000	92.670000	81.660000	588.000000	0.000000	160.000000	54.000000	22.000000	-101.000000
0.960000	93.000000	80.900000	599.000000	0.000000	158.000000	54.000000	33.000000	-76.000000
0.970000	93.390000	80.300000	602.000000	0.000000	160.000000	54.000000	39.000000	-60.000000
0.980000	93.880000	80.030000	606.000000	0.000000	160.000000	53.000000	49.000000	-27.000000
0.990000	94.390000	80.080000	620.000000	0.000000	160.000000	54.000000	51.000000	5.000000
1.000000	94.860000	80.340000	614.000000	0.000000	160.000000	54.000000	47.000000	26.000000
1.010000	95.130000	80.980000	628.000000	0.000000	160.000000	54.000000	27.000000	64.000000
1.020000	95.280000	81.750000	652.000000	0.000000	161.000000	55.000000	15.000000	77.000000
1.030000	95.280000	82.600000	688.000000	0.000000	161.000000	55.000000	0.000000	85.000000
1.040000	95.280000	83.160000	731.000000	0.000000	161.000000	55.000000	0.000000	56.000000
1.050000	95.160000	83.350000	722.000000	0.000000	161.000000	55.000000	-12.000000	19.000000
1.060000	95.070000	83.300000	719.000000	0.000000	163.000000	55.000000	-9.000000	-5.000000
1.070000	95.070000	83.300000	716.000000	0.000000	163.000000	55.000000	0.000000	0.000000
1.080000	94.830000	82.610000	714.000000	0.000000	163.000000	54.000000	-24.000000	-69.000000
1.090000	94.770000	81.950000	697.000000	0.000000	163.000000	54.000000	-6.000000	-66.000000
1.100000	94.700000	81.310000	696.000000	0.000000	163.000000	54.000000	-7.000000	-64.000000
1.110000	94.770000	80.670000	691.000000	0.000000	163.000000	54.000000	7.000000	-64.000000
1.120000	94.940000	80.000000	696.000000	0.000000	163.000000	54.000000	17.000000	-67.000000
1.130000	95.150000	79.300000	702.000000	0.000000	163.000000	54.000000	21.000000	-70.000000
1.140000	95.330000	78.840000	697.000000	0.000000	163.000000	54.000000	18.000000	-46.000000
1.150000	95.490000	78.550000	716.000000	0.000000	163.000000	54.000000	16.000000	-29.000000
1.160000	95.690000	78.490000	725.000000	0.000000	163.000000	55.000000	20.000000	-6.000000
1.170000	95.860000	78.550000	736.000000	0.000000	161.000000	55.000000	17.000000	6.000000
1.180000	96.000000	78.700000	733.000000	0.000000	161.000000	55.000000	14.000000	15.000000
1.190000	96.120000	79.100000	737.000000	0.000000	161.000000	55.000000	12.000000	40.000000
1.200000	96.210000	79.570000	740.000000	0.000000	160.000000	53.000000	9.000000	47.000000
1.210000	96.210000	80.090000	737.000000	0.000000	160.000000	53.000000	0.000000	52.000000
1.220000	96.210000	80.470000	752.000000	0.000000	160.000000	54.000000	0.000000	38.000000
1.230000	96.140000	80.620000	748.000000	0.000000	161.000000	55.000000	-7.000000	15.000000
1.240000	96.090000	80.620000	734.000000	0.000000	161.000000	55.000000	-5.000000	0.000000
1.250000	96.090000	80.550000	730.000000	0.000000	161.000000	55.000000	0.000000	-7.000000
1.260000	96.090000	80.240000	731.000000	0.000000	161.000000	55.000000	0.000000	-31.000000
1.270000	96.170000	79.770000	721.000000	0.000000	161.000000	55.000000	8.000000	-47.000000
1.280000	96.170000	79.160000	731.000000	0.000000	161.000000	55.000000	0.000000	-61.000000
1.290000	96.340000	78.790000	722.000000	0.000000	161.000000	55.000000	17.000000	-37.000000
1.300000	96.590000	78.570000	691.000000	0.000000	161.000000	55.000000	25.000000	-22.000000
1.310000	96.850000	78.490000	622.000000	0.000000	161.000000	55.000000	26.000000	-8.000000
1.320000	97.120000	78.650000	366.000000	0.000000	161.000000	55.000000	27.000000	16.000000
1.330000	97.120000	78.650000	0.000000	1.000000	161.000000	55.000000	0.000000	0.000000
1.340000	97.440000	79.440000	0.000000	0.000000	161.000000	55.000000	32.000000	79.000000
1.350000	97.440000	79.980000	0.000000	0.000000	160.000000	54.000000	0.000000	54.000000
1.360000	97.180000	80.570000	0.000000	0.000000	159.000000	55.000000	-26.000000	59.000000
1.370000	96.980000	80.720000	0.000000	0.000000	159.000000	55.000000	-20.000000	15.000000
1.380000	96.980000	80.720000	32.000000	1.000000	159.000000	55.000000	0.000000	0.000000
1.390000	96.980000	80.720000	289.000000	0.000000	159.000000	55.000000	0.000000	0.000000
1.400000	96.980000	80.720000	353.000000	0.000000	159.000000	55.000000	0.000000	0.000000
1.410000	96.980000	80.720000	339.000000	0.000000	160.000000	55.000000	0.000000	0.000000
1.420000	96.980000	80.720000	304.000000	0.000000	160.000000	55.000000	0.000000	0.000000
1.430000	97.380000	80.950000	129.000000	0.000000	160.000000	55.000000	40.000000	23.000000
1.440000	97.380000	80.950000	0.000000	1.000000	162.000000	56.000000	0.000000	0.000000
1.450000	98.210000	80.930000	0.000000	0.000000	162.000000	56.000000	83.000000	-2.000000
1.460000	98.410000	80.780000	0.000000	0.000000	162.000000	56.000000	20.000000	-15.000000
1.470000	98.470000	80.640000	0.000000	0.000000	161.000000	57.000000	6.000000	-14.000000
1.480000	98.620000	80.530000	0.000000	0.000000	163.000000	57.000000	15.000000	-11.000000
1.490000	98.910000	80.430000	0.000000	0.000000	163.000000	57.000000	29.000000	-10.000000
1.500000	99.300000	80.330000	0.000000	0.000000	162.000000	58.000000	39.000000	-10.000000
1.510000	99.620000	80.130000	0.000000	0.000000	161.000000	59.000000	32.000000	-20.000000
1.520000	99.620000	80.130000	423.000000	1.000000	161.000000	59.000000	0.000000	0.000000
1.530000	99.620000	80.130000	643.000000	0.000000	161.000000	59.000000	0.000000	0.000000
1.540000	99.620000	80.130000	667.000000	0.000000	161.000000	59.000000	0.000000	0.000000
1.550000	99.090000	80.500000	711.000000	0.000000	161.000000	59.000000	-53.000000	37.000000
1.560000	98.830000	80.620000	716.000000	0.000000	161.000000	59.000000	-26.000000	12.000000
1.570000	98.680000	80.620000	700.000000	0.000000	161.000000	59.000000	-15.000000	0.000000
1.580000	98.420000	80.420000	699.000000	0.000000	161.000000	59.000000	-26.000000	-20.000000
1.590000	98.090000	80.000000	672.000000	0.000000	161.000000	59.000000	-33.000000	-42.000000
1.600000	97.860000	79.410000	645.000000	0.000000	162.000000	58.000000	-23.000000	-59.000000
1.610000	97.670000	78.900000	613.000000	0.000000	162.000000	58.000000	-19.000000	-51.000000
1.620000	97.720000	78.660000	611.000000	0.000000	162.000000	58.000000	5.000000	-24.000000
1.630000	97.910000	78.600000	620.000000	0.000000	163.000000	57.000000	19.000000	-6.000000
1.640000	98.360000	78.720000	611.000000	0.000000	163.000000	57.000000	45.000000	12.000000
1.650000	98.870000	79.020000	627.000000	0.000000	161.000000	57.000000	51.000000	30.000000
1.660000	99.340000	79.440000	637.000000	0.000000	161.000000	57.000000	47.000000	42.000000
1.670000	99.750000	79.840000	667.000000	0.000000	161.000000	57.000000	41.000000	40.000000
1.680000	99.910000	79.940000	693.000000	0.000000	161.000000	57.000000	16.000000	10.000000
1.690000	100.020000	79.850000	707.000000	0.000000	161.000000	57.000000	11.000000	-9.000000
1.700000	100.090000	79.480000	737.000000	0.000000	161.000000	57.000000	7.000000	-37.000000
1.710000	100.090000	78.840000	758.000000	0.000000	161.000000	57.000000	0.000000	-64.000000
1.720000	100.090000	78.010000	750.000000	0.000000	161.000000	57.000000	0.000000	-83.000000
1.730000	99.980000	77.060000	760.000000	0.000000	161.000000	57.000000	-11.000000	-95.000000
1.740000	99.860000	76.110000	737.000000	0.000000	161.000000	57.000000	-12.000000	-95.000000
1.750000	99.770000	75.390000	705.000000	0.000000	159.000000	57.000000	-9.000000	-72.000000
1.760000	99.770000	74.820000	636.000000	0.000000	159.000000	57.000000	0.000000	-57.000000
1.770000	99.770000	74.550000	515.000000	0.000000	159.000000	57.000000	0.000000	-27.000000
1.780000	99.770000	74.550000	256.000000	0.000000	158.000000	56.000000	0.000000	0.000000
1.790000	99.770000	74.550000	0.000000	1.000000	158.000000	56.000000	0.000000	0.000000
1.800000	99.820000	75.110000	0.000000	0.000000	158.000000	56.000000	5.000000	56.000000
1.810000	99.920000	75.630000	0.000000	0.000000	160.000000	56.000000	10.000000	52.000000
1.820000	100.010000	76.220000	0.000000	0.000000	160.000000	56.000000	9.000000	59.000000
1.830000	100.130000	76.700000	0.000000	0.000000	160.000000	56.000000	12.000000	48.000000
1.840000	100.130000	76.700000	51.000000	1.000000	161.000000	57.000000	0.000000	0.000000
1.850000	100.580000	77.790000	200.000000	0.000000	163.000000	57.000000	45.000000	109.000000
1.860000	100.800000	78.450000	237.000000	0.000000	163.000000	57.000000	22.000000	66.000000
1.870000	100.970000	79.230000	287.000000	0.000000	164.000000	57.000000	17.000000	78.000000
1.880000	101.120000	80.010000	335.000000	0.000000	164.000000	57.000000	15.000000	78.000000
1.890000	101.300000	80.580000	468.000000	0.000000	164.000000	57.000000	18.000000	57.000000
1.900000	101.380000	81.010000	537.000000	0.000000	164.000000	57.000000	8.000000	43.000000
1.910000	101.380000	81.010000	542.000000	0.000000	164.000000	57.000000	0.000000	0.000000
1.920000	101.380000	81.010000	561.000000	0.000000	164.000000	57.000000	0.000000	0.000000
1.930000	101.230000	80.600000	559.000000	0.000000	164.000000	57.000000	-15.000000	-41.000000
1.940000	101.080000	80.040000	561.000000	0.000000	163.000000	57.000000	-15.000000	-56.000000
1.950000	100.900000	79.360000	577.000000	0.000000	163.000000	57.000000	-18.000000	-68.000000
1.960000	100.900000	78.810000	589.000000	0.000000	161.000000	57.000000	0.000000	-55.000000
1.970000	100.900000	78.460000	606.000000	0.000000	161.000000	57.000000	0.000000	-35.000000
1.980000	101.070000	78.210000	611.000000	0.000000	162.000000	56.000000	17.000000	-25.000000
1.990000	101.320000	78.080000	617.000000	0.000000	160.000000	55.000000	25.000000	-13.000000
2.000000	101.630000	78.080000	616.000000	0.000000	160.000000	55.000000	31.000000	0.000000
2.010000	102.020000	78.240000	611.000000	0.000000	160.000000	55.000000	39.000000	16.000000
2.020000	102.410000	78.650000	608.000000	0.000000	160.000000	55.000000	39.000000	41.000000
2.030000	102.650000	79.220000	605.000000	0.000000	160.000000	55.000000	24.000000	57.000000
2.040000	102.790000	79.890000	628.000000	0.000000	160.000000	55.000000	14.000000	67.000000
2.050000	102.790000	80.380000	691.000000	0.000000	161.000000	57.000000	0.000000	49.000000
2.060000	102.710000	80.670000	733.000000	0.000000	161.000000	57.000000	-8.000000	29.000000
2.070000	102.660000	80.830000	720.000000	0.000000	161.000000	57.000000	-5.000000	16.000000
2.080000	102.660000	80.830000	724.000000	0.000000	163.000000	57.000000	0.000000	0.000000
2.090000	102.660000	80.630000	717.000000	0.000000	163.000000	57.000000	0.000000	-20.000000
2.100000	102.660000	80.310000	705.000000	0.000000	163.000000	57.000000	0.000000	-32.000000
2.110000	102.720000	79.920000	672.000000	0.000000	163.000000	57.000000	6.000000	-39.000000
2.120000	102.790000	79.540000	664.000000	0.000000	163.000000	57.000000	7.000000	-38.000000
2.130000	102.920000	79.280000	647.000000	0.000000	163.000000	57.000000	13.000000	-26.000000
2.140000	103.150000	79.090000	646.000000	0.000000	163.000000	57.000000	23.000000	-19.000000
2.150000	103.440000	78.940000	650.000000	0.000000	163.000000	57.000000	29.000000	-15.000000
2.160000	103.730000	78.870000	655.000000	0.000000	163.000000	57.000000	29.000000	-7.000000
2.170000	104.020000	78.870000	673.000000	0.000000	163.000000	57.000000	29.000000	0.000000
2.180000	104.380000	78.870000	678.000000	0.000000	163.000000	56.000000	36.000000	0.000000
2.190000	104.700000	78.970000	684.000000	0.000000	163.000000	56.000000	32.000000	10.000000
2.200000	104.960000	79.150000	690.000000	0.000000	165.000000	56.000000	26.000000	18.000000
