t	x	y	pressure	penup	azimuth	inclination	v_x	v_y
0.000000	14.000000	31.500000	56.000000	1.000000	355.000000	67.000000	0.000000	0.000000
0.010000	14.000000	31.500000	100.000000	0.000000	355.000000	68.000000	0.000000	0.000000
0.020000	14.000000	31.500000	165.000000	0.000000	355.000000	68.000000	0.000000	0.000000
0.030000	14.000000	31.500000	206.000000	0.000000	355.000000	69.000000	0.000000	0.000000
0.040000	14.000000	31.500000	247.000000	0.000000	355.000000	69.000000	0.000000	0.000000
0.050000	14.000000	31.500000	294.000000	0.000000	355.000000	70.000000	0.000000	0.000000
0.060000	14.000000	31.500000	334.000000	0.000000	355.000000	70.000000	0.000000	0.000000
0.070000	14.000000	31.500000	399.000000	0.000000	355.000000	70.000000	0.000000	0.000000
0.080000	14.000000	31.500000	446.000000	0.000000	355.000000	70.000000	0.000000	0.000000
0.090000	14.000000	31.500000	488.000000	0.000000	357.000000	70.000000	0.000000	0.000000
0.100000	14.000000	31.500000	537.000000	0.000000	357.000000	70.000000	0.000000	0.000000
0.110000	14.000000	31.500000	565.000000	0.000000	357.000000	70.000000	0.000000	0.000000
0.120000	14.000000	31.500000	581.000000	0.000000	357.000000	70.000000	0.000000	0.000000
0.130000	14.000000	31.500000	597.000000	0.000000	355.000000	70.000000	0.000000	0.000000
0.140000	14.000000	31.500000	616.000000	0.000000	355.000000	70.000000	0.000000	0.000000
0.150000	14.050000	31.150000	622.000000	0.000000	355.000000	69.000000	5.000000	-35.000000
0.160000	13.950000	30.810000	646.000000	0.000000	352.000000	69.000000	-10.000000	-34.000000
0.170000	13.850000	30.370000	661.000000	0.000000	352.000000	69.000000	-10.000000	-44.000000
0.180000	13.730000	29.870000	663.000000	0.000000	353.000000	68.000000	-12.000000	-50.000000
0.190000	13.590000	29.220000	676.000000	0.000000	353.000000	68.000000	-14.000000	-65.000000
0.200000	13.590000	28.600000	697.000000	0.000000	353.000000	68.000000	0.000000	-62.000000
0.210000	13.590000	28.030000	707.000000	0.000000	355.000000	68.000000	0.000000	-57.000000
0.220000	13.790000	27.520000	733.000000	0.000000	355.000000	68.000000	20.000000	-51.000000
0.230000	14.030000	26.990000	757.000000	0.000000	355.000000	68.000000	24.000000	-53.000000
0.240000	14.300000	26.550000	756.000000	0.000000	355.000000	68.000000	27.000000	-44.000000
0.250000	14.540000	26.190000	753.000000	0.000000	355.000000	68.000000	24.000000	-36.000000
0.260000	14.720000	26.050000	753.000000	0.000000	353.000000	68.000000	18.000000	-14.000000
0.270000	14.850000	25.950000	756.000000	0.000000	353.000000	68.000000	13.000000	-10.000000
0.280000	14.970000	25.880000	750.000000	0.000000	350.000000	69.000000	12.000000	-7.000000
0.290000	15.060000	25.880000	760.000000	0.000000	350.000000	69.000000	9.000000	0.000000
0.300000	15.140000	25.950000	757.000000	0.000000	350.000000	69.000000	8.000000	7.000000
0.310000	15.270000	26.220000	758.000000	0.000000	346.000000	69.000000	13.000000	27.000000
0.320000	15.390000	26.630000	758.000000	0.000000	346.000000	69.000000	12.000000	41.000000
0.330000	15.500000	27.150000	757.000000	0.000000	346.000000	69.000000	11.000000	52.000000
0.340000	15.560000	27.690000	755.000000	0.000000	346.000000	69.000000	6.000000	54.000000
0.350000	15.610000	28.240000	746.000000	0.000000	347.000000	69.000000	5.000000	55.000000
0.360000	15.610000	28.730000	737.000000	0.000000	347.000000	69.000000	0.000000	49.000000
0.370000	15.720000	29.180000	727.000000	0.000000	347.000000	69.000000	11.000000	45.000000
0.380000	15.720000	29.650000	720.000000	0.000000	347.000000	69.000000	0.000000	47.000000
0.390000	15.810000	30.150000	716.000000	0.000000	348.000000	68.000000	9.000000	50.000000
0.400000	15.810000	30.560000	696.000000	0.000000	348.000000	68.000000	0.000000	41.000000
0.410000	15.810000	30.900000	700.000000	0.000000	348.000000	68.000000	0.000000	34.000000
0.420000	15.810000	31.130000	696.000000	0.000000	348.000000	68.000000	0.000000	23.000000
0.430000	15.750000	31.270000	700.000000	0.000000	348.000000	68.000000	-6.000000	14.000000
0.440000	15.690000	31.340000	693.000000	0.000000	348.000000	68.000000	-6.000000	7.000000
0.450000	15.630000	31.340000	705.000000	0.000000	348.000000	68.000000	-6.000000	0.000000
0.460000	15.540000	31.210000	710.000000	0.000000	348.000000	68.000000	-9.000000	-13.000000
0.470000	15.450000	31.060000	721.000000	0.000000	348.000000	68.000000	-9.000000	-15.000000
0.480000	15.360000	30.800000	722.000000	0.000000	348.000000	68.000000	-9.000000	-26.000000
0.490000	15.270000	30.370000	728.000000	0.000000	348.000000	68.000000	-9.000000	-43.000000
0.500000	15.210000	29.830000	722.000000	0.000000	348.000000	68.000000	-6.000000	-54.000000
0.510000	15.210000	29.330000	725.000000	0.000000	348.000000	68.000000	0.000000	-50.000000
0.520000	15.310000	28.830000	737.000000	0.000000	348.000000	68.000000	10.000000	-50.000000
0.530000	15.470000	28.350000	736.000000	0.000000	348.000000	68.000000	16.000000	-48.000000
0.540000	15.640000	27.940000	751.000000	0.000000	348.000000	68.000000	17.000000	-41.000000
0.550000	15.810000	27.580000	754.000000	0.000000	350.000000	68.000000	17.000000	-36.000000
0.560000	15.940000	27.350000	755.000000	0.000000	350.000000	68.000000	13.000000	-23.000000
0.570000	16.030000	27.210000	757.000000	0.000000	350.000000	68.000000	9.000000	-14.000000
0.580000	16.260000	27.020000	763.000000	0.000000	351.000000	67.000000	23.000000	-19.000000
0.590000	16.380000	26.960000	753.000000	0.000000	351.000000	67.000000	12.000000	-6.000000
0.600000	16.560000	26.960000	753.000000	0.000000	351.000000	67.000000	18.000000	0.000000
0.610000	16.820000	27.010000	753.000000	0.000000	353.000000	67.000000	26.000000	5.000000
0.620000	16.940000	27.010000	754.000000	0.000000	353.000000	68.000000	12.000000	0.000000
0.630000	17.070000	27.110000	753.000000	0.000000	353.000000	68.000000	13.000000	10.000000
0.640000	17.210000	27.220000	751.000000	0.000000	355.000000	68.000000	14.000000	11.000000
0.650000	17.280000	27.330000	753.000000	0.000000	355.000000	69.000000	7.000000	11.000000
0.660000	17.340000	27.470000	750.000000	0.000000	355.000000	69.000000	6.000000	14.000000
0.670000	17.340000	27.640000	755.000000	0.000000	355.000000	69.000000	0.000000	17.000000
0.680000	17.430000	27.830000	754.000000	0.000000	355.000000	70.000000	9.000000	19.000000
0.690000	17.510000	28.010000	745.000000	0.000000	355.000000	70.000000	8.000000	18.000000
0.700000	17.510000	28.240000	745.000000	0.000000	355.000000	70.000000	0.000000	23.000000
0.710000	17.580000	28.490000	727.000000	0.000000	355.000000	70.000000	7.000000	25.000000
0.720000	17.660000	28.760000	731.000000	0.000000	352.000000	70.000000	8.000000	27.000000
0.730000	17.660000	29.010000	705.000000	0.000000	352.000000	70.000000	0.000000	25.000000
0.740000	17.660000	29.190000	690.000000	0.000000	352.000000	70.000000	0.000000	18.000000
0.750000	17.660000	29.330000	696.000000	0.000000	352.000000	70.000000	0.000000	14.000000
0.760000	17.610000	29.330000	707.000000	0.000000	352.000000	70.000000	-5.000000	0.000000
0.770000	17.550000	29.260000	728.000000	0.000000	352.000000	70.000000	-6.000000	-7.000000
0.780000	17.460000	29.110000	728.000000	0.000000	352.000000	70.000000	-9.000000	-15.000000
0.790000	17.330000	28.830000	742.000000	0.000000	352.000000	70.000000	-13.000000	-28.000000
0.800000	17.280000	28.490000	742.000000	0.000000	352.000000	70.000000	-5.000000	-34.000000
0.810000	17.280000	28.120000	739.000000	0.000000	352.000000	70.000000	0.000000	-37.000000
0.820000	17.470000	27.740000	736.000000	0.000000	352.000000	70.000000	19.000000	-38.000000
0.830000	17.630000	27.450000	722.000000	0.000000	352.000000	70.000000	16.000000	-29.000000
0.840000	17.730000	27.230000	733.000000	0.000000	352.000000	70.000000	10.000000	-22.000000
0.850000	17.910000	27.020000	714.000000	0.000000	352.000000	70.000000	18.000000	-21.000000
0.860000	18.140000	26.900000	703.000000	0.000000	355.000000	70.000000	23.000000	-12.000000
0.870000	18.240000	26.900000	702.000000	0.000000	355.000000	70.000000	10.000000	0.000000
0.880000	18.370000	26.970000	676.000000	0.000000	355.000000	70.000000	13.000000	7.000000
0.890000	18.530000	27.070000	664.000000	0.000000	355.000000	69.000000	16.000000	10.000000
0.900000	18.680000	27.210000	650.000000	0.000000	355.000000	69.000000	15.000000	14.000000
0.910000	18.840000	27.420000	644.000000	0.000000	355.000000	69.000000	16.000000	21.000000
0.920000	18.930000	27.670000	637.000000	0.000000	355.000000	69.000000	9.000000	25.000000
0.930000	19.030000	27.960000	639.000000	0.000000	355.000000	69.000000	10.000000	29.000000
0.940000	19.140000	28.260000	617.000000	0.000000	355.000000	69.000000	11.000000	30.000000
0.950000	19.140000	28.550000	605.000000	0.000000	352.000000	69.000000	0.000000	29.000000
0.960000	19.140000	28.770000	594.000000	0.000000	352.000000	70.000000	0.000000	22.000000
0.970000	19.090000	29.000000	580.000000	0.000000	352.000000	70.000000	-5.000000	23.000000
0.980000	19.030000	29.130000	580.000000	0.000000	352.000000	70.000000	-6.000000	13.000000
0.990000	18.970000	29.210000	594.000000	0.000000	352.000000	70.000000	-6.000000	8.000000
1.000000	18.910000	29.210000	611.000000	0.000000	352.000000	70.000000	-6.000000	0.000000
1.010000	18.860000	29.160000	630.000000	0.000000	352.000000	70.000000	-5.000000	-5.000000
1.020000	18.800000	29.090000	643.000000	0.000000	352.000000	70.000000	-6.000000	-7.000000
1.030000	18.800000	28.920000	661.000000	0.000000	352.000000	70.000000	0.000000	-17.000000
1.040000	18.740000	28.690000	670.000000	0.000000	352.000000	70.000000	-6.000000	-23.000000
1.050000	18.740000	28.430000	669.000000	0.000000	352.000000	70.000000	0.000000	-26.000000
1.060000	18.830000	28.200000	670.000000	0.000000	352.000000	70.000000	9.000000	-23.000000
1.070000	18.880000	27.950000	675.000000	0.000000	352.000000	70.000000	5.000000	-25.000000
1.080000	18.940000	27.710000	676.000000	0.000000	352.000000	70.000000	6.000000	-24.000000
1.090000	19.020000	27.490000	672.000000	0.000000	352.000000	70.000000	8.000000	-22.000000
1.100000	19.070000	27.290000	670.000000	0.000000	352.000000	70.000000	5.000000	-20.000000
1.110000	19.150000	27.120000	673.000000	0.000000	355.000000	70.000000	8.000000	-17.000000
1.120000	19.250000	26.990000	673.000000	0.000000	355.000000	70.000000	10.000000	-13.000000
1.130000	19.370000	26.890000	665.000000	0.000000	355.000000	69.000000	12.000000	-10.000000
1.140000	19.370000	26.890000	650.000000	0.000000	355.000000	69.000000	0.000000	0.000000
1.150000	19.470000	26.830000	622.000000	0.000000	355.000000	69.000000	10.000000	-6.000000
1.160000	19.550000	26.830000	578.000000	0.000000	355.000000	69.000000	8.000000	0.000000
1.170000	19.550000	26.830000	516.000000	0.000000	355.000000	68.000000	0.000000	0.000000
1.180000	19.550000	26.830000	414.000000	0.000000	355.000000	68.000000	0.000000	0.000000
1.190000	19.550000	26.830000	316.000000	0.000000	355.000000	68.000000	0.000000	0.000000
1.200000	19.550000	26.830000	200.000000	0.000000	355.000000	68.000000	0.000000	0.000000
1.210000	19.910000	27.170000	141.000000	0.000000	355.000000	68.000000	36.000000	34.000000
1.220000	19.970000	27.290000	80.000000	0.000000	353.000000	68.000000	6.000000	12.000000
1.230000	20.020000	27.410000	41.000000	0.000000	353.000000	68.000000	5.000000	12.000000
1.240000	20.020000	27.520000	1.000000	1.000000	353.000000	68.000000	0.000000	0.000000
1.250000	20.020000	27.520000	0.000000	0.000000	353.000000	68.000000	0.000000	0.000000
1.260000	20.020000	27.670000	0.000000	0.000000	353.000000	68.000000	0.000000	15.000000
1.270000	20.070000	27.750000	0.000000	0.000000	353.000000	68.000000	5.000000	8.000000
1.280000	20.070000	27.830000	0.000000	0.000000	353.000000	68.000000	0.000000	8.000000
1.290000	20.070000	27.910000	0.000000	0.000000	350.000000	68.000000	0.000000	8.000000
1.300000	20.120000	28.010000	0.000000	0.000000	350.000000	68.000000	5.000000	10.000000
1.310000	20.120000	28.100000	0.000000	0.000000	350.000000	68.000000	0.000000	9.000000
1.320000	20.120000	28.200000	0.000000	0.000000	350.000000	68.000000	0.000000	10.000000
1.330000	20.120000	28.200000	20.000000	1.000000	350.000000	68.000000	0.000000	0.000000
1.340000	20.120000	28.200000	55.000000	0.000000	350.000000	68.000000	0.000000	0.000000
1.350000	20.120000	28.200000	101.000000	0.000000	350.000000	68.000000	0.000000	0.000000
1.360000	20.180000	28.520000	115.000000	0.000000	350.000000	68.000000	6.000000	32.000000
1.370000	20.180000	28.620000	131.000000	0.000000	350.000000	68.000000	0.000000	10.000000
1.380000	20.180000	28.730000	165.000000	0.000000	350.000000	69.000000	0.000000	11.000000
1.390000	20.180000	28.840000	190.000000	0.000000	350.000000	69.000000	0.000000	11.000000
1.400000	20.180000	28.940000	240.000000	0.000000	350.000000	69.000000	0.000000	10.000000
1.410000	20.120000	29.020000	267.000000	0.000000	350.000000	69.000000	-6.000000	8.000000
1.420000	20.120000	29.100000	289.000000	0.000000	350.000000	69.000000	0.000000	8.000000
1.430000	20.070000	29.100000	307.000000	0.000000	350.000000	69.000000	-5.000000	0.000000
1.440000	20.070000	29.160000	344.000000	0.000000	350.000000	69.000000	0.000000	6.000000
1.450000	20.070000	29.160000	364.000000	0.000000	350.000000	69.000000	0.000000	0.000000
1.460000	20.070000	29.210000	407.000000	0.000000	350.000000	69.000000	0.000000	5.000000
1.470000	20.070000	29.210000	440.000000	0.000000	350.000000	69.000000	0.000000	0.000000
1.480000	20.070000	29.210000	463.000000	0.000000	350.000000	69.000000	0.000000	0.000000
1.490000	20.070000	29.210000	477.000000	0.000000	352.000000	69.000000	0.000000	0.000000
1.500000	20.070000	29.210000	494.000000	0.000000	352.000000	69.000000	0.000000	0.000000
1.510000	20.070000	29.210000	519.000000	0.000000	352.000000	69.000000	0.000000	0.000000
1.520000	20.070000	29.210000	542.000000	0.000000	352.000000	69.000000	0.000000	0.000000
1.530000	20.070000	29.160000	564.000000	0.000000	352.000000	69.000000	0.000000	-5.000000
1.540000	20.010000	29.160000	591.000000	0.000000	352.000000	69.000000	-6.000000	0.000000
1.550000	20.010000	29.080000	602.000000	0.000000	352.000000	69.000000	0.000000	-8.000000
1.560000	20.010000	28.960000	611.000000	0.000000	352.000000	69.000000	0.000000	-12.000000
1.570000	20.010000	28.790000	627.000000	0.000000	352.000000	69.000000	0.000000	-17.000000
1.580000	20.010000	28.600000	636.000000	0.000000	352.000000	69.000000	0.000000	-19.000000
1.590000	19.930000	28.350000	670.000000	0.000000	352.000000	69.000000	-8.000000	-25.000000
1.600000	19.930000	28.060000	694.000000	0.000000	352.000000	69.000000	0.000000	-29.000000
1.610000	20.030000	27.830000	697.000000	0.000000	352.000000	69.000000	10.000000	-23.000000
1.620000	20.200000	27.600000	700.000000	0.000000	352.000000	69.000000	17.000000	-23.000000
1.630000	20.390000	27.380000	691.000000	0.000000	352.000000	69.000000	19.000000	-22.000000
1.640000	20.590000	27.180000	694.000000	0.000000	352.000000	69.000000	20.000000	-20.000000
1.650000	20.740000	27.090000	696.000000	0.000000	352.000000	69.000000	15.000000	-9.000000
1.660000	20.900000	27.030000	696.000000	0.000000	352.000000	69.000000	16.000000	-6.000000
1.670000	21.090000	27.030000	691.000000	0.000000	352.000000	69.000000	19.000000	0.000000
1.680000	21.260000	27.030000	693.000000	0.000000	352.000000	69.000000	17.000000	0.000000
1.690000	21.470000	27.120000	702.000000	0.000000	353.000000	68.000000	21.000000	9.000000
1.700000	21.700000	27.240000	696.000000	0.000000	353.000000	68.000000	23.000000	12.000000
1.710000	21.870000	27.380000	679.000000	0.000000	353.000000	68.000000	17.000000	14.000000
1.720000	22.040000	27.570000	664.000000	0.000000	353.000000	68.000000	17.000000	19.000000
1.730000	22.210000	27.840000	659.000000	0.000000	353.000000	68.000000	17.000000	27.000000
1.740000	22.380000	28.160000	645.000000	0.000000	350.000000	69.000000	17.000000	32.000000
1.750000	22.480000	28.530000	613.000000	0.000000	350.000000	69.000000	10.000000	37.000000
1.760000	22.550000	28.900000	586.000000	0.000000	350.000000	69.000000	7.000000	37.000000
1.770000	22.550000	29.260000	565.000000	0.000000	350.000000	69.000000	0.000000	36.000000
1.780000	22.550000	29.540000	537.000000	0.000000	350.000000	69.000000	0.000000	28.000000
1.790000	22.470000	29.700000	546.000000	0.000000	350.000000	69.000000	-8.000000	16.000000
1.800000	22.360000	29.790000	545.000000	0.000000	350.000000	69.000000	-11.000000	9.000000
1.810000	22.240000	29.740000	566.000000	0.000000	350.000000	69.000000	-12.000000	-5.000000
1.820000	22.080000	29.530000	597.000000	0.000000	350.000000	69.000000	-16.000000	-21.000000
1.830000	21.860000	29.220000	644.000000	0.000000	350.000000	69.000000	-22.000000	-31.000000
1.840000	21.580000	28.720000	670.000000	0.000000	350.000000	69.000000	-28.000000	-50.000000
1.850000	21.300000	27.980000	681.000000	0.000000	350.000000	69.000000	-28.000000	-74.000000
1.860000	21.190000	27.080000	696.000000	0.000000	350.000000	69.000000	-11.000000	-90.000000
1.870000	21.190000	26.130000	685.000000	0.000000	350.000000	69.000000	0.000000	-95.000000
1.880000	21.250000	25.180000	662.000000	0.000000	350.000000	69.000000	6.000000	-95.000000
1.890000	21.310000	24.530000	602.000000	0.000000	350.000000	68.000000	6.000000	-65.000000
1.900000	21.450000	24.080000	515.000000	0.000000	350.000000	68.000000	14.000000	-45.000000
1.910000	21.640000	23.840000	279.000000	0.000000	351.000000	67.000000	19.000000	-24.000000
1.920000	21.640000	23.840000	0.000000	1.000000	351.000000	67.000000	0.000000	0.000000
1.930000	22.170000	23.900000	0.000000	0.000000	351.000000	66.000000	53.000000	6.000000
1.940000	22.530000	24.190000	0.000000	0.000000	351.000000	66.000000	36.000000	29.000000
1.950000	22.880000	24.510000	0.000000	0.000000	351.000000	66.000000	35.000000	32.000000
1.960000	23.230000	25.000000	0.000000	0.000000	349.000000	65.000000	35.000000	49.000000
1.970000	23.550000	25.600000	0.000000	0.000000	349.000000	65.000000	32.000000	60.000000
1.980000	23.830000	26.260000	0.000000	0.000000	349.000000	65.000000	28.000000	66.000000
1.990000	23.990000	26.930000	0.000000	0.000000	349.000000	65.000000	16.000000	67.000000
2.000000	24.080000	27.430000	0.000000	0.000000	349.000000	66.000000	9.000000	50.000000
2.010000	24.080000	27.810000	0.000000	0.000000	349.000000	66.000000	0.000000	38.000000
2.020000	24.000000	28.130000	0.000000	0.000000	349.000000	66.000000	-8.000000	32.000000
2.030000	23.880000	28.380000	0.000000	0.000000	347.000000	65.000000	-12.000000	25.000000
2.040000	23.740000	28.590000	0.000000	0.000000	349.000000	66.000000	-14.000000	21.000000
2.050000	23.590000	28.720000	0.000000	0.000000	349.000000	66.000000	-15.000000	13.000000
2.060000	23.460000	28.800000	0.000000	0.000000	349.000000	66.000000	-13.000000	8.000000
2.070000	23.360000	28.850000	0.000000	0.000000	349.000000	65.000000	-10.000000	5.000000
2.080000	23.250000	28.850000	0.000000	0.000000	349.000000	65.000000	-11.000000	0.000000
2.090000	23.170000	28.920000	0.000000	0.000000	349.000000	65.000000	-8.000000	7.000000
2.100000	23.170000	28.920000	0.000000	0.000000	349.000000	66.000000	0.000000	0.000000
2.110000	23.090000	28.920000	0.000000	0.000000	351.000000	66.000000	-8.000000	0.000000
2.120000	23.040000	28.920000	0.000000	0.000000	351.000000	66.000000	-5.000000	0.000000
2.130000	23.040000	28.920000	0.000000	0.000000	351.000000	66.000000	0.000000	0.000000
2.140000	22.960000	28.920000	0.000000	0.000000	351.000000	66.000000	-8.000000	0.000000
2.150000	22.910000	28.920000	0.000000	0.000000	351.000000	66.000000	-5.000000	0.000000
2.160000	22.910000	28.920000	0.000000	0.000000	351.000000	66.000000	0.000000	0.000000
2.170000	22.910000	28.920000	0.000000	0.000000	351.000000	66.000000	0.000000	0.000000
2.180000	22.910000	28.920000	0.000000	0.000000	351.000000	66.000000	0.000000	0.000000
2.190000	22.910000	28.920000	0.000000	0.000000	351.000000	66.000000	0.000000	0.000000
2.200000	22.910000	28.920000	0.000000	0.000000	351.000000	66.000000	0.000000	0.000000
2.210000	22.910000	28.920000	0.000000	0.000000	351.000000	66.000000	0.000000	0.000000
2.220000	22.860000	28.920000	0.000000	0.000000	351.000000	66.000000	-5.000000	0.000000
