t	x	y	pressure	penup	azimuth	inclination	v_x	v_y
0.000000	21.750000	17.600000	287.000000	1.000000	147.000000	53.000000	0.000000	0.000000
0.010000	21.700000	18.350000	319.000000	0.000000	146.000000	54.000000	-5.000000	75.000000
0.020000	21.800000	18.160000	389.000000	0.000000	144.000000	56.000000	10.000000	-19.000000
0.030000	21.950000	17.380000	504.000000	0.000000	143.000000	56.000000	15.000000	-78.000000
0.040000	22.130000	15.950000	591.000000	0.000000	143.000000	56.000000	18.000000	-143.000000
0.050000	22.130000	14.090000	668.000000	0.000000	143.000000	57.000000	0.000000	-186.000000
0.060000	22.020000	11.990000	724.000000	0.000000	143.000000	57.000000	-11.000000	-210.000000
0.070000	21.970000	10.370000	757.000000	0.000000	144.000000	58.000000	-5.000000	-162.000000
0.080000	21.970000	9.080000	750.000000	0.000000	146.000000	57.000000	0.000000	-129.000000
0.090000	22.020000	8.220000	750.000000	0.000000	148.000000	57.000000	5.000000	-86.000000
0.100000	22.170000	7.670000	755.000000	0.000000	149.000000	56.000000	15.000000	-55.000000
0.110000	22.270000	7.320000	746.000000	0.000000	149.000000	56.000000	10.000000	-35.000000
0.120000	22.270000	7.320000	758.000000	0.000000	150.000000	55.000000	0.000000	0.000000
0.130000	22.130000	7.410000	754.000000	0.000000	150.000000	55.000000	-14.000000	9.000000
0.140000	21.720000	7.640000	740.000000	0.000000	150.000000	55.000000	-41.000000	23.000000
0.150000	20.950000	8.050000	748.000000	0.000000	150.000000	55.000000	-77.000000	41.000000
0.160000	19.940000	8.450000	743.000000	0.000000	150.000000	55.000000	-101.000000	40.000000
0.170000	18.830000	8.850000	746.000000	0.000000	150.000000	54.000000	-111.000000	40.000000
0.180000	17.570000	8.950000	751.000000	0.000000	150.000000	54.000000	-126.000000	10.000000
0.190000	16.200000	8.860000	754.000000	0.000000	151.000000	54.000000	-137.000000	-9.000000
0.200000	14.800000	8.640000	761.000000	0.000000	154.000000	55.000000	-140.000000	-22.000000
0.210000	13.720000	8.430000	762.000000	0.000000	157.000000	56.000000	-108.000000	-21.000000
0.220000	12.860000	8.350000	771.000000	0.000000	160.000000	55.000000	-86.000000	-8.000000
0.230000	12.590000	8.350000	757.000000	0.000000	164.000000	55.000000	-27.000000	0.000000
0.240000	12.800000	8.350000	737.000000	0.000000	168.000000	55.000000	21.000000	0.000000
0.250000	13.340000	8.350000	731.000000	0.000000	171.000000	55.000000	54.000000	0.000000
0.260000	14.340000	8.600000	755.000000	0.000000	174.000000	55.000000	100.000000	25.000000
0.270000	16.320000	8.920000	759.000000	0.000000	174.000000	55.000000	198.000000	32.000000
0.280000	18.950000	9.400000	770.000000	0.000000	173.000000	55.000000	263.000000	48.000000
0.290000	22.250000	10.050000	777.000000	0.000000	171.000000	56.000000	330.000000	65.000000
0.300000	25.390000	10.810000	793.000000	0.000000	168.000000	56.000000	314.000000	76.000000
0.310000	28.430000	11.510000	814.000000	0.000000	162.000000	58.000000	304.000000	70.000000
0.320000	31.190000	12.180000	808.000000	0.000000	158.000000	58.000000	276.000000	67.000000
0.330000	33.500000	12.620000	811.000000	0.000000	153.000000	59.000000	231.000000	44.000000
0.340000	35.500000	12.930000	799.000000	0.000000	148.000000	60.000000	200.000000	31.000000
0.350000	36.900000	13.110000	787.000000	0.000000	142.000000	61.000000	140.000000	18.000000
0.360000	37.730000	13.270000	743.000000	0.000000	138.000000	61.000000	83.000000	16.000000
0.370000	38.190000	13.270000	639.000000	0.000000	137.000000	62.000000	46.000000	0.000000
0.380000	38.250000	13.270000	472.000000	0.000000	133.000000	62.000000	6.000000	0.000000
0.390000	38.130000	13.270000	51.000000	0.000000	130.000000	62.000000	-12.000000	0.000000
0.400000	38.130000	13.270000	0.000000	1.000000	130.000000	62.000000	0.000000	0.000000
0.410000	37.380000	13.270000	0.000000	0.000000	130.000000	62.000000	-75.000000	0.000000
0.420000	36.370000	13.330000	0.000000	0.000000	129.000000	61.000000	-101.000000	6.000000
0.430000	35.020000	13.330000	0.000000	0.000000	132.000000	61.000000	-135.000000	0.000000
0.440000	33.400000	13.150000	0.000000	0.000000	134.000000	61.000000	-162.000000	-18.000000
0.450000	31.680000	12.900000	0.000000	0.000000	136.000000	60.000000	-172.000000	-25.000000
0.460000	29.900000	12.600000	0.000000	0.000000	139.000000	58.000000	-178.000000	-30.000000
0.470000	27.900000	12.300000	0.000000	0.000000	142.000000	57.000000	-200.000000	-30.000000
0.480000	26.340000	11.960000	0.000000	0.000000	144.000000	56.000000	-156.000000	-34.000000
0.490000	25.060000	11.710000	0.000000	0.000000	146.000000	54.000000	-128.000000	-25.000000
0.500000	24.240000	11.520000	0.000000	0.000000	147.000000	53.000000	-82.000000	-19.000000
0.510000	23.720000	11.460000	0.000000	0.000000	149.000000	52.000000	-52.000000	-6.000000
0.520000	23.390000	11.460000	0.000000	0.000000	149.000000	52.000000	-33.000000	0.000000
0.530000	23.100000	11.530000	0.000000	0.000000	150.000000	51.000000	-29.000000	7.000000
0.540000	22.830000	11.530000	0.000000	0.000000	150.000000	51.000000	-27.000000	0.000000
0.550000	22.600000	11.530000	0.000000	0.000000	150.000000	52.000000	-23.000000	0.000000
0.560000	22.440000	11.530000	0.000000	0.000000	150.000000	52.000000	-16.000000	0.000000
0.570000	22.380000	11.580000	0.000000	0.000000	149.000000	53.000000	-6.000000	5.000000
0.580000	22.380000	11.670000	0.000000	0.000000	148.000000	53.000000	0.000000	9.000000
0.590000	22.380000	11.800000	0.000000	0.000000	147.000000	53.000000	0.000000	13.000000
0.600000	22.310000	12.010000	0.000000	0.000000	145.000000	54.000000	-7.000000	21.000000
0.610000	22.250000	12.260000	0.000000	0.000000	145.000000	54.000000	-6.000000	25.000000
0.620000	22.250000	12.540000	0.000000	0.000000	145.000000	54.000000	0.000000	28.000000
0.630000	22.170000	12.880000	0.000000	0.000000	145.000000	54.000000	-8.000000	34.000000
0.640000	22.170000	13.430000	0.000000	0.000000	145.000000	54.000000	0.000000	55.000000
0.650000	22.050000	14.120000	0.000000	0.000000	143.000000	53.000000	-12.000000	69.000000
0.660000	21.960000	15.060000	0.000000	0.000000	143.000000	53.000000	-9.000000	94.000000
0.670000	21.960000	16.220000	0.000000	0.000000	142.000000	54.000000	0.000000	116.000000
0.680000	21.960000	16.220000	161.000000	1.000000	142.000000	54.000000	0.000000	0.000000
0.690000	21.900000	18.650000	274.000000	0.000000	141.000000	55.000000	-6.000000	243.000000
0.700000	21.830000	19.230000	334.000000	0.000000	140.000000	55.000000	-7.000000	58.000000
0.710000	21.830000	19.470000	388.000000	0.000000	139.000000	56.000000	0.000000	24.000000
0.720000	21.830000	19.470000	435.000000	0.000000	138.000000	57.000000	0.000000	0.000000
0.730000	21.910000	19.160000	467.000000	0.000000	136.000000	57.000000	8.000000	-31.000000
0.740000	22.050000	18.630000	521.000000	0.000000	136.000000	58.000000	14.000000	-53.000000
0.750000	22.240000	17.430000	577.000000	0.000000	136.000000	58.000000	19.000000	-120.000000
0.760000	22.340000	15.920000	642.000000	0.000000	136.000000	58.000000	10.000000	-151.000000
0.770000	22.340000	14.200000	690.000000	0.000000	138.000000	58.000000	0.000000	-172.000000
0.780000	22.440000	12.920000	724.000000	0.000000	139.000000	58.000000	10.000000	-128.000000
0.790000	22.580000	11.930000	725.000000	0.000000	140.000000	58.000000	14.000000	-99.000000
0.800000	22.850000	11.140000	725.000000	0.000000	140.000000	58.000000	27.000000	-79.000000
0.810000	23.090000	10.700000	728.000000	0.000000	142.000000	58.000000	24.000000	-44.000000
0.820000	23.290000	10.520000	697.000000	0.000000	142.000000	58.000000	20.000000	-18.000000
0.830000	23.550000	10.520000	690.000000	0.000000	142.000000	58.000000	26.000000	0.000000
0.840000	23.810000	10.830000	666.000000	0.000000	141.000000	59.000000	26.000000	31.000000
0.850000	24.030000	11.660000	671.000000	0.000000	139.000000	60.000000	22.000000	83.000000
0.860000	24.220000	12.830000	666.000000	0.000000	139.000000	60.000000	19.000000	117.000000
0.870000	24.360000	13.690000	678.000000	0.000000	139.000000	60.000000	14.000000	86.000000
0.880000	24.360000	14.190000	691.000000	0.000000	139.000000	60.000000	0.000000	50.000000
0.890000	24.360000	14.460000	727.000000	0.000000	139.000000	60.000000	0.000000	27.000000
0.900000	24.290000	14.410000	734.000000	0.000000	139.000000	60.000000	-7.000000	-5.000000
0.910000	24.290000	14.350000	748.000000	0.000000	139.000000	60.000000	0.000000	-6.000000
0.920000	24.220000	13.960000	760.000000	0.000000	139.000000	60.000000	-7.000000	-39.000000
0.930000	24.220000	13.350000	776.000000	0.000000	139.000000	60.000000	0.000000	-61.000000
0.940000	24.140000	12.490000	777.000000	0.000000	141.000000	59.000000	-8.000000	-86.000000
0.950000	24.140000	11.780000	776.000000	0.000000	141.000000	59.000000	0.000000	-71.000000
0.960000	24.360000	11.170000	771.000000	0.000000	139.000000	60.000000	22.000000	-61.000000
0.970000	24.620000	10.830000	750.000000	0.000000	139.000000	60.000000	26.000000	-34.000000
0.980000	25.040000	10.730000	728.000000	0.000000	141.000000	60.000000	42.000000	-10.000000
0.990000	25.450000	10.790000	728.000000	0.000000	139.000000	61.000000	41.000000	6.000000
1.000000	25.840000	11.130000	728.000000	0.000000	138.000000	61.000000	39.000000	34.000000
1.010000	26.210000	11.750000	727.000000	0.000000	138.000000	61.000000	37.000000	62.000000
1.020000	26.450000	12.570000	720.000000	0.000000	138.000000	61.000000	24.000000	82.000000
1.030000	26.590000	13.220000	727.000000	0.000000	138.000000	61.000000	14.000000	65.000000
1.040000	26.590000	13.600000	754.000000	0.000000	138.000000	61.000000	0.000000	38.000000
1.050000	26.470000	13.810000	785.000000	0.000000	138.000000	61.000000	-12.000000	21.000000
1.060000	26.350000	13.880000	790.000000	0.000000	138.000000	61.000000	-12.000000	7.000000
1.070000	26.250000	13.880000	797.000000	0.000000	138.000000	61.000000	-10.000000	0.000000
1.080000	26.170000	13.820000	797.000000	0.000000	138.000000	61.000000	-8.000000	-6.000000
1.090000	26.170000	13.520000	799.000000	0.000000	138.000000	61.000000	0.000000	-30.000000
1.100000	26.170000	13.100000	794.000000	0.000000	138.000000	61.000000	0.000000	-42.000000
1.110000	26.280000	12.690000	793.000000	0.000000	138.000000	61.000000	11.000000	-41.000000
1.120000	26.510000	12.370000	767.000000	0.000000	138.000000	61.000000	23.000000	-32.000000
1.130000	26.840000	12.120000	760.000000	0.000000	138.000000	61.000000	33.000000	-25.000000
1.140000	27.220000	12.020000	748.000000	0.000000	137.000000	62.000000	38.000000	-10.000000
1.150000	27.600000	12.160000	748.000000	0.000000	135.000000	62.000000	38.000000	14.000000
1.160000	28.010000	12.470000	751.000000	0.000000	134.000000	61.000000	41.000000	31.000000
1.170000	28.280000	12.930000	754.000000	0.000000	134.000000	61.000000	27.000000	46.000000
1.180000	28.450000	13.410000	751.000000	0.000000	131.000000	61.000000	17.000000	48.000000
1.190000	28.500000	13.900000	779.000000	0.000000	129.000000	60.000000	5.000000	49.000000
1.200000	28.430000	14.220000	796.000000	0.000000	128.000000	59.000000	-7.000000	32.000000
1.210000	28.280000	14.370000	822.000000	0.000000	128.000000	59.000000	-15.000000	15.000000
1.220000	28.100000	14.420000	836.000000	0.000000	128.000000	59.000000	-18.000000	5.000000
1.230000	27.880000	14.210000	863.000000	0.000000	128.000000	58.000000	-22.000000	-21.000000
1.240000	27.620000	13.590000	864.000000	0.000000	129.000000	59.000000	-26.000000	-62.000000
1.250000	27.410000	12.710000	900.000000	0.000000	129.000000	59.000000	-21.000000	-88.000000
1.260000	27.220000	11.260000	915.000000	0.000000	129.000000	59.000000	-19.000000	-145.000000
1.270000	27.080000	10.020000	939.000000	0.000000	131.000000	58.000000	-14.000000	-124.000000
1.280000	27.030000	8.930000	936.000000	0.000000	132.000000	59.000000	-5.000000	-109.000000
1.290000	27.100000	7.940000	899.000000	0.000000	132.000000	59.000000	7.000000	-99.000000
1.300000	27.260000	7.310000	758.000000	0.000000	134.000000	58.000000	16.000000	-63.000000
1.310000	27.530000	6.930000	392.000000	0.000000	135.000000	59.000000	27.000000	-38.000000
1.320000	27.530000	6.930000	0.000000	1.000000	138.000000	59.000000	0.000000	0.000000
1.330000	28.150000	7.440000	0.000000	0.000000	138.000000	59.000000	62.000000	51.000000
1.340000	28.540000	8.390000	0.000000	0.000000	141.000000	59.000000	39.000000	95.000000
1.350000	28.910000	9.330000	0.000000	0.000000	141.000000	59.000000	37.000000	94.000000
1.360000	29.150000	10.140000	0.000000	0.000000	139.000000	60.000000	24.000000	81.000000
1.370000	29.290000	10.860000	0.000000	0.000000	139.000000	60.000000	14.000000	72.000000
1.380000	29.290000	11.580000	0.000000	0.000000	136.000000	60.000000	0.000000	72.000000
1.390000	29.210000	12.340000	0.000000	0.000000	136.000000	60.000000	-8.000000	76.000000
1.400000	29.160000	13.120000	0.000000	0.000000	134.000000	60.000000	-5.000000	78.000000
1.410000	29.160000	13.120000	208.000000	1.000000	134.000000	60.000000	0.000000	0.000000
1.420000	29.050000	14.200000	423.000000	0.000000	132.000000	59.000000	-11.000000	108.000000
1.430000	28.900000	14.510000	492.000000	0.000000	132.000000	59.000000	-15.000000	31.000000
1.440000	28.820000	14.630000	592.000000	0.000000	132.000000	59.000000	-8.000000	12.000000
1.450000	28.770000	14.630000	664.000000	0.000000	132.000000	59.000000	-5.000000	0.000000
1.460000	28.770000	14.570000	730.000000	0.000000	132.000000	59.000000	0.000000	-6.000000
1.470000	28.770000	14.400000	749.000000	0.000000	134.000000	58.000000	0.000000	-17.000000
1.480000	28.770000	13.990000	797.000000	0.000000	132.000000	59.000000	0.000000	-41.000000
1.490000	28.770000	13.410000	791.000000	0.000000	132.000000	59.000000	0.000000	-58.000000
1.500000	28.860000	12.850000	797.000000	0.000000	132.000000	59.000000	9.000000	-56.000000
1.510000	29.040000	12.410000	800.000000	0.000000	131.000000	60.000000	18.000000	-44.000000
1.520000	29.280000	12.060000	783.000000	0.000000	131.000000	60.000000	24.000000	-35.000000
1.530000	29.570000	11.820000	773.000000	0.000000	131.000000	60.000000	29.000000	-24.000000
1.540000	29.860000	11.820000	756.000000	0.000000	129.000000	60.000000	29.000000	0.000000
1.550000	30.160000	11.940000	759.000000	0.000000	129.000000	60.000000	30.000000	12.000000
1.560000	30.450000	12.270000	757.000000	0.000000	128.000000	61.000000	29.000000	33.000000
1.570000	30.730000	12.730000	759.000000	0.000000	128.000000	61.000000	28.000000	46.000000
1.580000	30.970000	13.270000	770.000000	0.000000	128.000000	61.000000	24.000000	54.000000
1.590000	31.120000	13.720000	796.000000	0.000000	128.000000	61.000000	15.000000	45.000000
1.600000	31.190000	14.130000	796.000000	0.000000	128.000000	61.000000	7.000000	41.000000
1.610000	31.190000	14.430000	827.000000	0.000000	128.000000	61.000000	0.000000	30.000000
1.620000	31.110000	14.640000	872.000000	0.000000	128.000000	61.000000	-8.000000	21.000000
1.630000	31.040000	14.710000	908.000000	0.000000	129.000000	61.000000	-7.000000	7.000000
1.640000	30.960000	14.710000	894.000000	0.000000	129.000000	61.000000	-8.000000	0.000000
1.650000	30.870000	14.640000	894.000000	0.000000	129.000000	61.000000	-9.000000	-7.000000
1.660000	30.790000	14.540000	896.000000	0.000000	131.000000	61.000000	-8.000000	-10.000000
1.670000	30.790000	14.240000	896.000000	0.000000	129.000000	60.000000	0.000000	-30.000000
1.680000	30.790000	13.820000	896.000000	0.000000	129.000000	60.000000	0.000000	-42.000000
1.690000	30.870000	13.390000	899.000000	0.000000	131.000000	61.000000	8.000000	-43.000000
1.700000	31.050000	12.980000	891.000000	0.000000	131.000000	61.000000	18.000000	-41.000000
1.710000	31.300000	12.720000	881.000000	0.000000	129.000000	61.000000	25.000000	-26.000000
1.720000	31.670000	12.570000	873.000000	0.000000	129.000000	61.000000	37.000000	-15.000000
1.730000	32.080000	12.520000	872.000000	0.000000	127.000000	62.000000	41.000000	-5.000000
1.740000	32.490000	12.700000	861.000000	0.000000	129.000000	63.000000	41.000000	18.000000
1.750000	32.790000	13.040000	863.000000	0.000000	127.000000	63.000000	30.000000	34.000000
1.760000	33.040000	13.510000	864.000000	0.000000	127.000000	63.000000	25.000000	47.000000
1.770000	33.260000	14.090000	863.000000	0.000000	127.000000	63.000000	22.000000	58.000000
1.780000	33.350000	14.750000	879.000000	0.000000	127.000000	63.000000	9.000000	66.000000
1.790000	33.350000	15.180000	891.000000	0.000000	127.000000	63.000000	0.000000	43.000000
1.800000	33.220000	15.460000	894.000000	0.000000	127.000000	63.000000	-13.000000	28.000000
1.810000	33.100000	15.640000	930.000000	0.000000	129.000000	63.000000	-12.000000	18.000000
1.820000	33.000000	15.640000	932.000000	0.000000	130.000000	62.000000	-10.000000	0.000000
1.830000	32.910000	15.640000	935.000000	0.000000	132.000000	63.000000	-9.000000	0.000000
1.840000	32.760000	15.440000	933.000000	0.000000	133.000000	62.000000	-15.000000	-20.000000
1.850000	32.570000	15.100000	933.000000	0.000000	135.000000	62.000000	-19.000000	-34.000000
1.860000	32.570000	14.540000	930.000000	0.000000	135.000000	62.000000	0.000000	-56.000000
1.870000	32.740000	13.980000	926.000000	0.000000	135.000000	62.000000	17.000000	-56.000000
1.880000	33.050000	13.420000	914.000000	0.000000	135.000000	62.000000	31.000000	-56.000000
1.890000	33.390000	13.000000	892.000000	0.000000	133.000000	62.000000	34.000000	-42.000000
1.900000	33.760000	12.660000	872.000000	0.000000	132.000000	63.000000	37.000000	-34.000000
1.910000	34.190000	12.600000	861.000000	0.000000	130.000000	63.000000	43.000000	-6.000000
1.920000	34.680000	12.870000	846.000000	0.000000	129.000000	64.000000	49.000000	27.000000
1.930000	35.100000	13.360000	824.000000	0.000000	129.000000	64.000000	42.000000	49.000000
1.940000	35.450000	14.050000	828.000000	0.000000	127.000000	64.000000	35.000000	69.000000
1.950000	35.720000	14.950000	837.000000	0.000000	127.000000	64.000000	27.000000	90.000000
1.960000	35.790000	16.000000	860.000000	0.000000	127.000000	64.000000	7.000000	105.000000
1.970000	35.720000	16.810000	890.000000	0.000000	127.000000	64.000000	-7.000000	81.000000
1.980000	35.550000	17.240000	915.000000	0.000000	129.000000	64.000000	-17.000000	43.000000
1.990000	35.370000	17.410000	941.000000	0.000000	129.000000	64.000000	-18.000000	17.000000
2.000000	35.190000	17.340000	940.000000	0.000000	130.000000	63.000000	-18.000000	-7.000000
2.010000	35.080000	16.850000	964.000000	0.000000	130.000000	63.000000	-11.000000	-49.000000
2.020000	34.980000	16.080000	991.000000	0.000000	132.000000	63.000000	-10.000000	-77.000000
2.030000	34.890000	15.050000	990.000000	0.000000	132.000000	63.000000	-9.000000	-103.000000
2.040000	34.960000	14.050000	982.000000	0.000000	132.000000	63.000000	7.000000	-100.000000
2.050000	35.150000	13.150000	938.000000	0.000000	132.000000	63.000000	19.000000	-90.000000
2.060000	35.390000	12.310000	808.000000	0.000000	132.000000	64.000000	24.000000	-84.000000
2.070000	35.670000	11.930000	567.000000	0.000000	130.000000	65.000000	28.000000	-38.000000
2.080000	36.050000	12.020000	58.000000	0.000000	128.000000	65.000000	38.000000	9.000000
2.090000	36.050000	12.020000	0.000000	1.000000	126.000000	66.000000	0.000000	0.000000
2.100000	36.810000	13.280000	0.000000	0.000000	124.000000	66.000000	76.000000	126.000000
2.110000	37.040000	13.890000	0.000000	0.000000	124.000000	66.000000	23.000000	61.000000
2.120000	36.730000	14.330000	0.000000	0.000000	124.000000	66.000000	-31.000000	44.000000
2.130000	35.980000	14.600000	0.000000	0.000000	126.000000	66.000000	-75.000000	27.000000
2.140000	34.940000	14.850000	0.000000	0.000000	128.000000	65.000000	-104.000000	25.000000
2.150000	33.620000	14.910000	0.000000	0.000000	132.000000	64.000000	-132.000000	6.000000
2.160000	31.980000	14.860000	0.000000	0.000000	135.000000	63.000000	-164.000000	-5.000000
2.170000	30.130000	14.620000	0.000000	0.000000	136.000000	61.000000	-185.000000	-24.000000
2.180000	28.260000	14.210000	0.000000	0.000000	139.000000	58.000000	-187.000000	-41.000000
2.190000	26.470000	13.700000	0.000000	0.000000	140.000000	58.000000	-179.000000	-51.000000
2.200000	24.720000	13.250000	0.000000	0.000000	141.000000	56.000000	-175.000000	-45.000000
