t	x	y	pressure	penup	azimuth	inclination	v_x	v_y
0.000000	68.080000	51.340000	70.000000	1.000000	135.000000	63.000000	0.000000	0.000000
0.010000	69.080000	51.340000	127.000000	0.000000	137.000000	62.000000	100.000000	0.000000
0.020000	69.280000	51.340000	168.000000	0.000000	138.000000	63.000000	20.000000	0.000000
0.030000	69.420000	51.340000	203.000000	0.000000	138.000000	63.000000	14.000000	0.000000
0.040000	69.510000	51.340000	262.000000	0.000000	138.000000	63.000000	9.000000	0.000000
0.050000	69.590000	51.340000	324.000000	0.000000	138.000000	63.000000	8.000000	0.000000
0.060000	69.640000	51.390000	382.000000	0.000000	138.000000	63.000000	5.000000	5.000000
0.070000	69.640000	51.460000	449.000000	0.000000	140.000000	63.000000	0.000000	7.000000
0.080000	69.640000	51.540000	488.000000	0.000000	141.000000	63.000000	0.000000	8.000000
0.090000	69.470000	51.750000	519.000000	0.000000	141.000000	63.000000	-17.000000	21.000000
0.100000	69.270000	52.050000	542.000000	0.000000	141.000000	63.000000	-20.000000	30.000000
0.110000	68.770000	52.270000	577.000000	0.000000	141.000000	63.000000	-50.000000	22.000000
0.120000	67.880000	52.450000	599.000000	0.000000	141.000000	63.000000	-89.000000	18.000000
0.130000	66.720000	52.580000	613.000000	0.000000	141.000000	63.000000	-116.000000	13.000000
0.140000	65.330000	52.420000	639.000000	0.000000	140.000000	62.000000	-139.000000	-16.000000
0.150000	63.570000	52.070000	673.000000	0.000000	140.000000	62.000000	-176.000000	-35.000000
0.160000	61.550000	51.280000	693.000000	0.000000	138.000000	61.000000	-202.000000	-79.000000
0.170000	59.310000	50.190000	745.000000	0.000000	138.000000	61.000000	-224.000000	-109.000000
0.180000	57.020000	48.890000	793.000000	0.000000	135.000000	62.000000	-229.000000	-130.000000
0.190000	54.700000	47.250000	787.000000	0.000000	135.000000	62.000000	-232.000000	-164.000000
0.200000	52.950000	45.750000	791.000000	0.000000	132.000000	61.000000	-175.000000	-150.000000
0.210000	51.700000	44.350000	788.000000	0.000000	130.000000	62.000000	-125.000000	-140.000000
0.220000	50.790000	43.170000	777.000000	0.000000	127.000000	62.000000	-91.000000	-118.000000
0.230000	50.550000	42.380000	754.000000	0.000000	126.000000	62.000000	-24.000000	-79.000000
0.240000	50.800000	41.860000	748.000000	0.000000	123.000000	62.000000	25.000000	-52.000000
0.250000	51.370000	41.430000	742.000000	0.000000	121.000000	63.000000	57.000000	-43.000000
0.260000	52.250000	41.270000	745.000000	0.000000	119.000000	63.000000	88.000000	-16.000000
0.270000	53.510000	41.270000	746.000000	0.000000	118.000000	62.000000	126.000000	0.000000
0.280000	55.020000	41.670000	748.000000	0.000000	118.000000	62.000000	151.000000	40.000000
0.290000	56.910000	42.370000	748.000000	0.000000	119.000000	63.000000	189.000000	70.000000
0.300000	59.010000	43.290000	743.000000	0.000000	119.000000	63.000000	210.000000	92.000000
0.310000	61.240000	44.430000	739.000000	0.000000	117.000000	63.000000	223.000000	114.000000
0.320000	63.490000	45.610000	731.000000	0.000000	119.000000	64.000000	225.000000	118.000000
0.330000	65.490000	46.820000	730.000000	0.000000	119.000000	64.000000	200.000000	121.000000
0.340000	67.330000	48.080000	716.000000	0.000000	122.000000	65.000000	184.000000	126.000000
0.350000	68.800000	49.330000	714.000000	0.000000	123.000000	65.000000	147.000000	125.000000
0.360000	69.570000	50.210000	717.000000	0.000000	125.000000	65.000000	77.000000	88.000000
0.370000	69.860000	50.850000	727.000000	0.000000	128.000000	65.000000	29.000000	64.000000
0.380000	69.530000	51.210000	746.000000	0.000000	132.000000	65.000000	-33.000000	36.000000
0.390000	68.410000	51.320000	760.000000	0.000000	133.000000	65.000000	-112.000000	11.000000
0.400000	66.770000	51.270000	797.000000	0.000000	135.000000	64.000000	-164.000000	-5.000000
0.410000	64.780000	50.880000	796.000000	0.000000	135.000000	64.000000	-199.000000	-39.000000
0.420000	62.660000	50.230000	824.000000	0.000000	137.000000	63.000000	-212.000000	-65.000000
0.430000	60.440000	49.410000	823.000000	0.000000	137.000000	63.000000	-222.000000	-82.000000
0.440000	58.640000	48.430000	815.000000	0.000000	137.000000	63.000000	-180.000000	-98.000000
0.450000	57.370000	47.420000	808.000000	0.000000	133.000000	63.000000	-127.000000	-101.000000
0.460000	56.450000	46.660000	770.000000	0.000000	133.000000	63.000000	-92.000000	-76.000000
0.470000	56.370000	46.070000	730.000000	0.000000	130.000000	63.000000	-8.000000	-59.000000
0.480000	56.930000	45.680000	721.000000	0.000000	127.000000	64.000000	56.000000	-39.000000
0.490000	57.910000	45.280000	722.000000	0.000000	125.000000	65.000000	98.000000	-40.000000
0.500000	59.270000	45.170000	721.000000	0.000000	122.000000	65.000000	136.000000	-11.000000
0.510000	60.920000	45.270000	733.000000	0.000000	122.000000	65.000000	165.000000	10.000000
0.520000	62.760000	45.640000	716.000000	0.000000	120.000000	65.000000	184.000000	37.000000
0.530000	64.620000	46.170000	700.000000	0.000000	120.000000	65.000000	186.000000	53.000000
0.540000	66.110000	46.820000	662.000000	0.000000	118.000000	65.000000	149.000000	65.000000
0.550000	67.360000	47.350000	650.000000	0.000000	118.000000	65.000000	125.000000	53.000000
0.560000	67.870000	47.850000	652.000000	0.000000	120.000000	65.000000	51.000000	50.000000
0.570000	67.710000	48.260000	659.000000	0.000000	120.000000	65.000000	-16.000000	41.000000
0.580000	67.100000	48.660000	670.000000	0.000000	122.000000	65.000000	-61.000000	40.000000
0.590000	65.940000	48.770000	682.000000	0.000000	124.000000	64.000000	-116.000000	11.000000
0.600000	64.340000	48.690000	687.000000	0.000000	127.000000	64.000000	-160.000000	-8.000000
0.610000	62.440000	48.100000	702.000000	0.000000	127.000000	64.000000	-190.000000	-59.000000
0.620000	60.210000	47.190000	694.000000	0.000000	129.000000	64.000000	-223.000000	-91.000000
0.630000	58.040000	46.070000	699.000000	0.000000	127.000000	64.000000	-217.000000	-112.000000
0.640000	55.980000	44.940000	691.000000	0.000000	127.000000	64.000000	-206.000000	-113.000000
0.650000	54.500000	43.810000	710.000000	0.000000	124.000000	64.000000	-148.000000	-113.000000
0.660000	53.410000	42.700000	707.000000	0.000000	124.000000	64.000000	-109.000000	-111.000000
0.670000	53.040000	42.110000	693.000000	0.000000	120.000000	64.000000	-37.000000	-59.000000
0.680000	53.260000	41.830000	688.000000	0.000000	120.000000	64.000000	22.000000	-28.000000
0.690000	53.880000	41.580000	693.000000	0.000000	117.000000	63.000000	62.000000	-25.000000
0.700000	54.750000	41.700000	679.000000	0.000000	117.000000	63.000000	87.000000	12.000000
0.710000	55.840000	42.060000	647.000000	0.000000	117.000000	63.000000	109.000000	36.000000
0.720000	57.080000	42.630000	588.000000	0.000000	117.000000	63.000000	124.000000	57.000000
0.730000	58.130000	43.360000	520.000000	0.000000	117.000000	63.000000	105.000000	73.000000
0.740000	58.580000	44.200000	449.000000	0.000000	119.000000	64.000000	45.000000	84.000000
0.750000	58.640000	44.970000	450.000000	0.000000	119.000000	64.000000	6.000000	77.000000
0.760000	58.100000	45.420000	520.000000	0.000000	119.000000	64.000000	-54.000000	45.000000
0.770000	57.300000	45.660000	613.000000	0.000000	119.000000	64.000000	-80.000000	24.000000
0.780000	56.330000	45.550000	664.000000	0.000000	119.000000	64.000000	-97.000000	-11.000000
0.790000	55.660000	45.440000	714.000000	0.000000	117.000000	65.000000	-67.000000	-11.000000
0.800000	55.500000	45.330000	724.000000	0.000000	117.000000	65.000000	-16.000000	-11.000000
0.810000	55.690000	45.330000	721.000000	0.000000	117.000000	65.000000	19.000000	0.000000
0.820000	56.520000	45.400000	737.000000	0.000000	117.000000	65.000000	83.000000	7.000000
0.830000	58.110000	45.530000	749.000000	0.000000	117.000000	65.000000	159.000000	13.000000
0.840000	60.210000	45.970000	740.000000	0.000000	117.000000	65.000000	210.000000	44.000000
0.850000	62.810000	46.620000	710.000000	0.000000	117.000000	65.000000	260.000000	65.000000
0.860000	65.440000	47.240000	676.000000	0.000000	118.000000	65.000000	263.000000	62.000000
0.870000	68.140000	47.850000	614.000000	0.000000	118.000000	65.000000	270.000000	61.000000
0.880000	70.600000	48.310000	346.000000	0.000000	121.000000	66.000000	246.000000	46.000000
0.890000	70.600000	48.310000	0.000000	1.000000	123.000000	65.000000	0.000000	0.000000
0.900000	74.960000	49.020000	0.000000	0.000000	124.000000	66.000000	436.000000	71.000000
0.910000	76.460000	49.470000	0.000000	0.000000	126.000000	66.000000	150.000000	45.000000
0.920000	77.580000	50.000000	0.000000	0.000000	128.000000	66.000000	112.000000	53.000000
0.930000	78.150000	50.380000	0.000000	0.000000	131.000000	67.000000	57.000000	38.000000
0.940000	78.060000	50.560000	0.000000	0.000000	133.000000	67.000000	-9.000000	18.000000
0.950000	77.520000	50.610000	0.000000	0.000000	135.000000	68.000000	-54.000000	5.000000
0.960000	76.420000	50.680000	0.000000	0.000000	139.000000	69.000000	-110.000000	7.000000
0.970000	74.900000	50.590000	0.000000	0.000000	139.000000	69.000000	-152.000000	-9.000000
0.980000	73.100000	50.400000	0.000000	0.000000	141.000000	70.000000	-180.000000	-19.000000
0.990000	70.550000	50.060000	0.000000	0.000000	143.000000	70.000000	-255.000000	-34.000000
1.000000	67.910000	49.520000	0.000000	0.000000	144.000000	72.000000	-264.000000	-54.000000
1.010000	65.210000	48.860000	0.000000	0.000000	144.000000	72.000000	-270.000000	-66.000000
1.020000	63.360000	48.150000	0.000000	0.000000	142.000000	71.000000	-185.000000	-71.000000
1.030000	61.400000	47.320000	0.000000	0.000000	137.000000	69.000000	-196.000000	-83.000000
1.040000	59.370000	46.410000	0.000000	0.000000	132.000000	64.000000	-203.000000	-91.000000
1.050000	57.910000	45.720000	0.000000	0.000000	128.000000	61.000000	-146.000000	-69.000000
1.060000	56.970000	45.230000	0.000000	0.000000	126.000000	58.000000	-94.000000	-49.000000
1.070000	56.380000	44.880000	0.000000	0.000000	123.000000	56.000000	-59.000000	-35.000000
1.080000	56.330000	44.760000	0.000000	0.000000	118.000000	53.000000	-5.000000	-12.000000
1.090000	56.610000	44.850000	0.000000	0.000000	117.000000	47.000000	28.000000	9.000000
1.100000	57.120000	45.070000	0.000000	0.000000	116.000000	43.000000	51.000000	22.000000
1.110000	57.200000	45.370000	0.000000	0.000000	115.000000	39.000000	8.000000	30.000000
1.120000	57.200000	45.590000	0.000000	0.000000	118.000000	41.000000	0.000000	22.000000
1.130000	57.090000	45.700000	0.000000	0.000000	118.000000	44.000000	-11.000000	11.000000
1.140000	57.090000	45.810000	0.000000	0.000000	120.000000	48.000000	0.000000	11.000000
1.150000	57.020000	45.810000	0.000000	0.000000	121.000000	52.000000	-7.000000	0.000000
1.160000	57.020000	45.700000	0.000000	0.000000	122.000000	56.000000	0.000000	-11.000000
1.170000	57.020000	45.700000	0.000000	0.000000	125.000000	59.000000	0.000000	0.000000
1.180000	57.090000	45.700000	0.000000	0.000000	126.000000	61.000000	7.000000	0.000000
1.190000	57.140000	45.700000	0.000000	0.000000	126.000000	62.000000	5.000000	0.000000
1.200000	57.060000	45.650000	0.000000	0.000000	124.000000	63.000000	-8.000000	-5.000000
1.210000	56.900000	45.720000	0.000000	0.000000	124.000000	63.000000	-16.000000	7.000000
1.220000	56.800000	45.890000	0.000000	0.000000	124.000000	63.000000	-10.000000	17.000000
1.230000	56.730000	46.040000	0.000000	0.000000	122.000000	63.000000	-7.000000	15.000000
1.240000	56.730000	46.260000	0.000000	0.000000	121.000000	63.000000	0.000000	22.000000
1.250000	56.840000	46.530000	0.000000	0.000000	121.000000	63.000000	11.000000	27.000000
1.260000	56.960000	46.860000	0.000000	0.000000	121.000000	63.000000	12.000000	33.000000
1.270000	57.100000	47.190000	0.000000	0.000000	121.000000	63.000000	14.000000	33.000000
1.280000	57.230000	47.530000	0.000000	0.000000	121.000000	63.000000	13.000000	34.000000
1.290000	57.370000	47.670000	0.000000	0.000000	121.000000	63.000000	14.000000	14.000000
1.300000	57.430000	47.800000	0.000000	0.000000	120.000000	62.000000	6.000000	13.000000
1.310000	57.430000	47.910000	0.000000	0.000000	122.000000	61.000000	0.000000	11.000000
1.320000	57.430000	48.010000	0.000000	0.000000	122.000000	61.000000	0.000000	10.000000
1.330000	57.430000	48.010000	15.000000	1.000000	123.000000	62.000000	0.000000	0.000000
1.340000	57.370000	48.320000	96.000000	0.000000	124.000000	62.000000	-6.000000	31.000000
1.350000	57.270000	48.500000	186.000000	0.000000	124.000000	62.000000	-10.000000	18.000000
1.360000	57.270000	48.680000	314.000000	0.000000	124.000000	62.000000	0.000000	18.000000
1.370000	57.270000	48.860000	420.000000	0.000000	124.000000	62.000000	0.000000	18.000000
1.380000	57.270000	48.860000	494.000000	0.000000	124.000000	62.000000	0.000000	0.000000
1.390000	57.270000	48.860000	544.000000	0.000000	126.000000	61.000000	0.000000	0.000000
1.400000	57.210000	48.860000	567.000000	0.000000	126.000000	61.000000	-6.000000	0.000000
1.410000	57.150000	48.630000	577.000000	0.000000	126.000000	61.000000	-6.000000	-23.000000
1.420000	57.100000	48.170000	591.000000	0.000000	126.000000	61.000000	-5.000000	-46.000000
1.430000	57.100000	47.540000	589.000000	0.000000	126.000000	61.000000	0.000000	-63.000000
1.440000	57.180000	47.040000	594.000000	0.000000	126.000000	61.000000	8.000000	-50.000000
1.450000	57.350000	46.530000	592.000000	0.000000	124.000000	62.000000	17.000000	-51.000000
1.460000	57.590000	46.080000	591.000000	0.000000	123.000000	62.000000	24.000000	-45.000000
1.470000	57.850000	45.670000	583.000000	0.000000	123.000000	62.000000	26.000000	-41.000000
1.480000	58.010000	45.310000	577.000000	0.000000	121.000000	63.000000	16.000000	-36.000000
1.490000	58.080000	45.050000	577.000000	0.000000	119.000000	63.000000	7.000000	-26.000000
1.500000	58.080000	44.850000	578.000000	0.000000	118.000000	62.000000	0.000000	-20.000000
1.510000	57.790000	44.620000	583.000000	0.000000	116.000000	63.000000	-29.000000	-23.000000
1.520000	57.390000	44.380000	586.000000	0.000000	116.000000	63.000000	-40.000000	-24.000000
1.530000	56.820000	44.260000	619.000000	0.000000	116.000000	63.000000	-57.000000	-12.000000
1.540000	56.200000	44.260000	638.000000	0.000000	116.000000	63.000000	-62.000000	0.000000
1.550000	55.550000	44.190000	641.000000	0.000000	116.000000	63.000000	-65.000000	-7.000000
1.560000	55.070000	44.190000	655.000000	0.000000	115.000000	62.000000	-48.000000	0.000000
1.570000	54.830000	44.330000	653.000000	0.000000	115.000000	62.000000	-24.000000	14.000000
1.580000	54.750000	44.410000	613.000000	0.000000	115.000000	62.000000	-8.000000	8.000000
1.590000	54.750000	44.410000	519.000000	0.000000	115.000000	62.000000	0.000000	0.000000
1.600000	54.980000	44.530000	344.000000	0.000000	114.000000	61.000000	23.000000	12.000000
1.610000	55.310000	44.670000	39.000000	0.000000	114.000000	61.000000	33.000000	14.000000
1.620000	55.310000	44.670000	0.000000	1.000000	114.000000	61.000000	0.000000	0.000000
1.630000	56.620000	44.930000	0.000000	0.000000	114.000000	61.000000	131.000000	26.000000
1.640000	57.260000	45.110000	0.000000	0.000000	115.000000	62.000000	64.000000	18.000000
1.650000	57.880000	45.330000	0.000000	0.000000	115.000000	62.000000	62.000000	22.000000
1.660000	58.410000	45.590000	0.000000	0.000000	115.000000	62.000000	53.000000	26.000000
1.670000	58.860000	45.840000	0.000000	0.000000	115.000000	62.000000	45.000000	25.000000
1.680000	59.220000	46.070000	0.000000	0.000000	116.000000	63.000000	36.000000	23.000000
1.690000	59.540000	46.230000	0.000000	0.000000	116.000000	63.000000	32.000000	16.000000
1.700000	59.820000	46.300000	0.000000	0.000000	116.000000	63.000000	28.000000	7.000000
1.710000	59.820000	46.300000	91.000000	1.000000	116.000000	63.000000	0.000000	0.000000
1.720000	60.110000	46.420000	96.000000	0.000000	116.000000	63.000000	29.000000	12.000000
1.730000	60.110000	46.580000	101.000000	0.000000	116.000000	63.000000	0.000000	16.000000
1.740000	60.110000	46.580000	144.000000	0.000000	116.000000	63.000000	0.000000	0.000000
1.750000	60.110000	46.580000	213.000000	0.000000	117.000000	63.000000	0.000000	0.000000
1.760000	60.160000	46.920000	267.000000	0.000000	117.000000	63.000000	5.000000	34.000000
1.770000	60.160000	47.030000	358.000000	0.000000	117.000000	63.000000	0.000000	11.000000
1.780000	60.030000	47.110000	415.000000	0.000000	117.000000	63.000000	-13.000000	8.000000
1.790000	59.910000	47.110000	449.000000	0.000000	119.000000	63.000000	-12.000000	0.000000
1.800000	59.660000	46.950000	468.000000	0.000000	119.000000	63.000000	-25.000000	-16.000000
1.810000	59.320000	46.680000	499.000000	0.000000	119.000000	63.000000	-34.000000	-27.000000
1.820000	58.910000	46.370000	539.000000	0.000000	119.000000	63.000000	-41.000000	-31.000000
1.830000	58.650000	46.000000	554.000000	0.000000	119.000000	63.000000	-26.000000	-37.000000
1.840000	58.450000	45.640000	556.000000	0.000000	119.000000	63.000000	-20.000000	-36.000000
1.850000	58.450000	45.460000	557.000000	0.000000	117.000000	63.000000	0.000000	-18.000000
1.860000	58.600000	45.390000	556.000000	0.000000	117.000000	63.000000	15.000000	-7.000000
1.870000	58.890000	45.310000	548.000000	0.000000	117.000000	63.000000	29.000000	-8.000000
1.880000	59.290000	45.310000	537.000000	0.000000	116.000000	64.000000	40.000000	0.000000
1.890000	59.760000	45.400000	530.000000	0.000000	116.000000	64.000000	47.000000	9.000000
1.900000	60.190000	45.680000	519.000000	0.000000	116.000000	64.000000	43.000000	28.000000
1.910000	60.450000	45.960000	519.000000	0.000000	115.000000	63.000000	26.000000	28.000000
1.920000	60.590000	46.230000	514.000000	0.000000	116.000000	64.000000	14.000000	27.000000
1.930000	60.530000	46.490000	510.000000	0.000000	116.000000	64.000000	-6.000000	26.000000
1.940000	60.320000	46.610000	512.000000	0.000000	116.000000	64.000000	-21.000000	12.000000
1.950000	60.000000	46.690000	507.000000	0.000000	116.000000	64.000000	-32.000000	8.000000
1.960000	59.670000	46.690000	509.000000	0.000000	116.000000	64.000000	-33.000000	0.000000
1.970000	59.410000	46.690000	489.000000	0.000000	117.000000	63.000000	-26.000000	0.000000
1.980000	59.330000	46.620000	428.000000	0.000000	119.000000	64.000000	-8.000000	-7.000000
1.990000	59.330000	46.620000	367.000000	0.000000	119.000000	64.000000	0.000000	0.000000
2.000000	59.580000	46.620000	339.000000	0.000000	119.000000	64.000000	25.000000	0.000000
2.010000	59.970000	46.730000	265.000000	0.000000	120.000000	64.000000	39.000000	11.000000
2.020000	60.470000	46.850000	183.000000	0.000000	120.000000	64.000000	50.000000	12.000000
2.030000	60.970000	46.990000	127.000000	0.000000	120.000000	64.000000	50.000000	14.000000
2.040000	61.450000	47.100000	78.000000	0.000000	120.000000	64.000000	48.000000	11.000000
2.050000	61.920000	47.210000	54.000000	0.000000	119.000000	63.000000	47.000000	11.000000
2.060000	62.380000	47.320000	67.000000	0.000000	119.000000	63.000000	46.000000	11.000000
2.070000	62.740000	47.420000	68.000000	0.000000	118.000000	62.000000	36.000000	10.000000
2.080000	62.940000	47.510000	112.000000	0.000000	118.000000	62.000000	20.000000	9.000000
2.090000	63.030000	47.590000	171.000000	0.000000	120.000000	62.000000	9.000000	8.000000
2.100000	63.030000	47.670000	251.000000	0.000000	119.000000	61.000000	0.000000	8.000000
2.110000	62.950000	47.800000	275.000000	0.000000	119.000000	61.000000	-8.000000	13.000000
2.120000	62.810000	47.900000	317.000000	0.000000	119.000000	61.000000	-14.000000	10.000000
2.130000	62.550000	47.960000	353.000000	0.000000	119.000000	61.000000	-26.000000	6.000000
2.140000	62.230000	47.960000	387.000000	0.000000	120.000000	60.000000	-32.000000	0.000000
2.150000	61.880000	47.910000	440.000000	0.000000	120.000000	60.000000	-35.000000	-5.000000
2.160000	61.570000	47.780000	447.000000	0.000000	120.000000	60.000000	-31.000000	-13.000000
2.170000	61.270000	47.630000	456.000000	0.000000	122.000000	61.000000	-30.000000	-15.000000
2.180000	61.020000	47.440000	468.000000	0.000000	122.000000	61.000000	-25.000000	-19.000000
2.190000	60.880000	47.240000	469.000000	0.000000	120.000000	62.000000	-14.000000	-20.000000
2.200000	60.880000	47.010000	473.000000	0.000000	120.000000	62.000000	0.000000	-23.000000
