t	x	y	pressure	penup	azimuth	inclination	v_x	v_y
0.000000	69.920000	17.000000	73.000000	1.000000	133.000000	62.000000	0.000000	0.000000
0.010000	70.000000	17.270000	101.000000	0.000000	132.000000	63.000000	8.000000	27.000000
0.020000	70.050000	17.420000	104.000000	0.000000	130.000000	63.000000	5.000000	15.000000
0.030000	70.260000	17.610000	89.000000	0.000000	127.000000	63.000000	21.000000	19.000000
0.040000	70.570000	17.790000	86.000000	0.000000	127.000000	63.000000	31.000000	18.000000
0.050000	70.860000	17.950000	89.000000	0.000000	127.000000	63.000000	29.000000	16.000000
0.060000	71.150000	18.100000	107.000000	0.000000	127.000000	63.000000	29.000000	15.000000
0.070000	71.330000	18.230000	172.000000	0.000000	127.000000	63.000000	18.000000	13.000000
0.080000	71.430000	18.330000	251.000000	0.000000	127.000000	63.000000	10.000000	10.000000
0.090000	71.430000	18.430000	273.000000	0.000000	127.000000	63.000000	0.000000	10.000000
0.100000	71.320000	18.580000	291.000000	0.000000	129.000000	63.000000	-11.000000	15.000000
0.110000	71.130000	18.780000	314.000000	0.000000	129.000000	63.000000	-19.000000	20.000000
0.120000	70.670000	19.030000	345.000000	0.000000	130.000000	63.000000	-46.000000	25.000000
0.130000	69.810000	19.150000	341.000000	0.000000	132.000000	63.000000	-86.000000	12.000000
0.140000	68.690000	19.220000	356.000000	0.000000	132.000000	63.000000	-112.000000	7.000000
0.150000	66.880000	19.050000	388.000000	0.000000	132.000000	63.000000	-181.000000	-17.000000
0.160000	64.750000	18.750000	431.000000	0.000000	129.000000	63.000000	-213.000000	-30.000000
0.170000	62.400000	18.130000	488.000000	0.000000	129.000000	63.000000	-235.000000	-62.000000
0.180000	59.850000	17.200000	536.000000	0.000000	129.000000	63.000000	-255.000000	-93.000000
0.190000	57.530000	16.070000	591.000000	0.000000	127.000000	63.000000	-232.000000	-113.000000
0.200000	55.350000	14.900000	586.000000	0.000000	127.000000	63.000000	-218.000000	-117.000000
0.210000	53.740000	13.790000	591.000000	0.000000	125.000000	64.000000	-161.000000	-111.000000
0.220000	52.710000	12.720000	595.000000	0.000000	122.000000	63.000000	-103.000000	-107.000000
0.230000	52.070000	11.860000	585.000000	0.000000	120.000000	64.000000	-64.000000	-86.000000
0.240000	52.070000	11.190000	594.000000	0.000000	117.000000	65.000000	0.000000	-67.000000
0.250000	52.660000	10.640000	594.000000	0.000000	115.000000	65.000000	59.000000	-55.000000
0.260000	53.570000	10.140000	589.000000	0.000000	113.000000	65.000000	91.000000	-50.000000
0.270000	54.900000	9.730000	597.000000	0.000000	110.000000	66.000000	133.000000	-41.000000
0.280000	56.760000	9.650000	602.000000	0.000000	108.000000	66.000000	186.000000	-8.000000
0.290000	58.960000	9.750000	614.000000	0.000000	108.000000	66.000000	220.000000	10.000000
0.300000	61.150000	10.130000	614.000000	0.000000	108.000000	66.000000	219.000000	38.000000
0.310000	63.450000	10.760000	606.000000	0.000000	108.000000	66.000000	230.000000	63.000000
0.320000	65.810000	11.550000	585.000000	0.000000	109.000000	67.000000	236.000000	79.000000
0.330000	68.000000	12.530000	578.000000	0.000000	109.000000	67.000000	219.000000	98.000000
0.340000	69.630000	13.580000	556.000000	0.000000	109.000000	67.000000	163.000000	105.000000
0.350000	70.890000	14.690000	540.000000	0.000000	109.000000	67.000000	126.000000	111.000000
0.360000	71.400000	15.650000	542.000000	0.000000	111.000000	67.000000	51.000000	96.000000
0.370000	71.180000	16.400000	548.000000	0.000000	112.000000	67.000000	-22.000000	75.000000
0.380000	70.470000	17.020000	568.000000	0.000000	117.000000	67.000000	-71.000000	62.000000
0.390000	68.980000	17.320000	581.000000	0.000000	119.000000	66.000000	-149.000000	30.000000
0.400000	66.970000	17.320000	622.000000	0.000000	121.000000	66.000000	-201.000000	0.000000
0.410000	64.610000	17.050000	640.000000	0.000000	123.000000	65.000000	-236.000000	-27.000000
0.420000	62.360000	16.580000	671.000000	0.000000	125.000000	65.000000	-225.000000	-47.000000
0.430000	60.520000	16.100000	665.000000	0.000000	124.000000	64.000000	-184.000000	-48.000000
0.440000	58.940000	15.590000	665.000000	0.000000	124.000000	64.000000	-158.000000	-51.000000
0.450000	58.040000	15.170000	639.000000	0.000000	124.000000	64.000000	-90.000000	-42.000000
0.460000	57.940000	14.790000	605.000000	0.000000	122.000000	63.000000	-10.000000	-38.000000
0.470000	58.370000	14.390000	594.000000	0.000000	120.000000	64.000000	43.000000	-40.000000
0.480000	59.330000	14.030000	603.000000	0.000000	119.000000	64.000000	96.000000	-36.000000
0.490000	60.720000	13.780000	608.000000	0.000000	117.000000	65.000000	139.000000	-25.000000
0.500000	62.400000	13.610000	613.000000	0.000000	115.000000	65.000000	168.000000	-17.000000
0.510000	64.320000	13.610000	614.000000	0.000000	113.000000	65.000000	192.000000	0.000000
0.520000	66.170000	13.740000	613.000000	0.000000	113.000000	65.000000	185.000000	13.000000
0.530000	67.980000	13.930000	611.000000	0.000000	111.000000	67.000000	181.000000	19.000000
0.540000	69.430000	14.250000	608.000000	0.000000	111.000000	67.000000	145.000000	32.000000
0.550000	70.130000	14.560000	606.000000	0.000000	111.000000	67.000000	70.000000	31.000000
0.560000	70.340000	14.850000	611.000000	0.000000	112.000000	67.000000	21.000000	29.000000
0.570000	69.930000	15.140000	594.000000	0.000000	115.000000	67.000000	-41.000000	29.000000
0.580000	68.640000	15.400000	570.000000	0.000000	115.000000	67.000000	-129.000000	26.000000
0.590000	66.750000	15.620000	559.000000	0.000000	117.000000	67.000000	-189.000000	22.000000
0.600000	64.320000	15.480000	565.000000	0.000000	119.000000	66.000000	-243.000000	-14.000000
0.610000	61.460000	15.050000	575.000000	0.000000	119.000000	66.000000	-286.000000	-43.000000
0.620000	58.320000	14.430000	570.000000	0.000000	121.000000	66.000000	-314.000000	-62.000000
0.630000	55.220000	13.620000	586.000000	0.000000	119.000000	66.000000	-310.000000	-81.000000
0.640000	52.640000	12.840000	591.000000	0.000000	118.000000	65.000000	-258.000000	-78.000000
0.650000	50.400000	12.070000	602.000000	0.000000	116.000000	66.000000	-224.000000	-77.000000
0.660000	48.880000	11.520000	602.000000	0.000000	114.000000	66.000000	-152.000000	-55.000000
0.670000	48.260000	11.220000	592.000000	0.000000	110.000000	66.000000	-62.000000	-30.000000
0.680000	48.260000	11.100000	610.000000	0.000000	108.000000	66.000000	0.000000	-12.000000
0.690000	49.110000	11.150000	658.000000	0.000000	108.000000	66.000000	85.000000	5.000000
0.700000	51.060000	11.340000	719.000000	0.000000	107.000000	67.000000	195.000000	19.000000
0.710000	53.730000	11.630000	760.000000	0.000000	107.000000	67.000000	267.000000	29.000000
0.720000	57.250000	12.010000	790.000000	0.000000	107.000000	67.000000	352.000000	38.000000
0.730000	61.150000	12.430000	805.000000	0.000000	107.000000	67.000000	390.000000	42.000000
0.740000	65.300000	12.890000	806.000000	0.000000	108.000000	68.000000	415.000000	46.000000
0.750000	69.440000	13.300000	776.000000	0.000000	108.000000	68.000000	414.000000	41.000000
0.760000	72.970000	13.640000	716.000000	0.000000	108.000000	68.000000	353.000000	34.000000
0.770000	76.100000	13.880000	527.000000	0.000000	108.000000	68.000000	313.000000	24.000000
0.780000	76.100000	13.880000	0.000000	1.000000	109.000000	69.000000	0.000000	0.000000
0.790000	80.990000	14.220000	0.000000	0.000000	111.000000	69.000000	489.000000	34.000000
0.800000	82.550000	14.440000	0.000000	0.000000	116.000000	68.000000	156.000000	22.000000
0.810000	83.130000	14.710000	0.000000	0.000000	120.000000	67.000000	58.000000	27.000000
0.820000	82.940000	14.980000	0.000000	0.000000	124.000000	66.000000	-19.000000	27.000000
0.830000	82.240000	14.980000	0.000000	0.000000	128.000000	65.000000	-70.000000	0.000000
0.840000	81.330000	15.060000	0.000000	0.000000	132.000000	63.000000	-91.000000	8.000000
0.850000	79.730000	15.060000	0.000000	0.000000	134.000000	61.000000	-160.000000	0.000000
0.860000	77.680000	15.060000	0.000000	0.000000	136.000000	58.000000	-205.000000	0.000000
0.870000	75.810000	15.130000	0.000000	0.000000	138.000000	57.000000	-187.000000	7.000000
0.880000	73.990000	15.130000	0.000000	0.000000	140.000000	55.000000	-182.000000	0.000000
0.890000	72.210000	15.200000	0.000000	0.000000	141.000000	53.000000	-178.000000	7.000000
0.900000	70.370000	15.260000	0.000000	0.000000	138.000000	51.000000	-184.000000	6.000000
0.910000	68.550000	15.310000	0.000000	0.000000	137.000000	50.000000	-182.000000	5.000000
0.920000	67.160000	15.310000	0.000000	0.000000	137.000000	48.000000	-139.000000	0.000000
0.930000	66.040000	15.310000	0.000000	0.000000	136.000000	48.000000	-112.000000	0.000000
0.940000	65.010000	15.240000	0.000000	0.000000	136.000000	48.000000	-103.000000	-7.000000
0.950000	64.000000	15.120000	0.000000	0.000000	136.000000	48.000000	-101.000000	-12.000000
0.960000	62.870000	14.990000	0.000000	0.000000	134.000000	48.000000	-113.000000	-13.000000
0.970000	61.650000	14.800000	0.000000	0.000000	132.000000	49.000000	-122.000000	-19.000000
0.980000	60.130000	14.600000	0.000000	0.000000	129.000000	50.000000	-152.000000	-20.000000
0.990000	59.120000	14.360000	0.000000	0.000000	129.000000	51.000000	-101.000000	-24.000000
1.000000	58.450000	14.220000	0.000000	0.000000	127.000000	52.000000	-67.000000	-14.000000
1.010000	57.990000	14.140000	0.000000	0.000000	124.000000	53.000000	-46.000000	-8.000000
1.020000	57.730000	14.230000	0.000000	0.000000	122.000000	53.000000	-26.000000	9.000000
1.030000	57.590000	14.300000	0.000000	0.000000	120.000000	52.000000	-14.000000	7.000000
1.040000	57.320000	14.370000	0.000000	0.000000	118.000000	53.000000	-27.000000	7.000000
1.050000	56.960000	14.370000	0.000000	0.000000	118.000000	54.000000	-36.000000	0.000000
1.060000	56.540000	14.290000	0.000000	0.000000	120.000000	55.000000	-42.000000	-8.000000
1.070000	56.200000	14.150000	0.000000	0.000000	120.000000	57.000000	-34.000000	-14.000000
1.080000	55.730000	14.010000	0.000000	0.000000	123.000000	59.000000	-47.000000	-14.000000
1.090000	55.450000	14.010000	0.000000	0.000000	124.000000	60.000000	-28.000000	0.000000
1.100000	55.330000	14.010000	0.000000	0.000000	124.000000	62.000000	-12.000000	0.000000
1.110000	55.170000	14.110000	0.000000	0.000000	126.000000	62.000000	-16.000000	10.000000
1.120000	54.980000	14.110000	0.000000	0.000000	124.000000	63.000000	-19.000000	0.000000
1.130000	54.770000	14.180000	0.000000	0.000000	124.000000	63.000000	-21.000000	7.000000
1.140000	54.550000	14.050000	0.000000	0.000000	121.000000	63.000000	-22.000000	-13.000000
1.150000	54.400000	13.900000	0.000000	0.000000	121.000000	63.000000	-15.000000	-15.000000
1.160000	54.290000	13.740000	0.000000	0.000000	118.000000	62.000000	-11.000000	-16.000000
1.170000	54.180000	13.600000	0.000000	0.000000	116.000000	63.000000	-11.000000	-14.000000
1.180000	54.090000	13.500000	0.000000	0.000000	116.000000	63.000000	-9.000000	-10.000000
1.190000	54.010000	13.400000	0.000000	0.000000	114.000000	62.000000	-8.000000	-10.000000
1.200000	54.010000	13.400000	0.000000	0.000000	112.000000	62.000000	0.000000	0.000000
1.210000	54.010000	13.400000	0.000000	0.000000	112.000000	62.000000	0.000000	0.000000
1.220000	54.010000	13.490000	0.000000	0.000000	110.000000	63.000000	0.000000	9.000000
1.230000	54.010000	13.610000	0.000000	0.000000	110.000000	63.000000	0.000000	12.000000
1.240000	54.010000	13.710000	0.000000	0.000000	110.000000	63.000000	0.000000	10.000000
1.250000	54.010000	13.820000	0.000000	0.000000	112.000000	62.000000	0.000000	11.000000
1.260000	53.930000	13.950000	0.000000	0.000000	111.000000	61.000000	-8.000000	13.000000
1.270000	53.840000	14.140000	0.000000	0.000000	113.000000	61.000000	-9.000000	19.000000
1.280000	53.920000	14.370000	0.000000	0.000000	113.000000	61.000000	8.000000	23.000000
1.290000	54.110000	14.640000	0.000000	0.000000	113.000000	61.000000	19.000000	27.000000
1.300000	53.720000	14.880000	0.000000	0.000000	114.000000	61.000000	-39.000000	24.000000
1.310000	53.720000	14.880000	215.000000	1.000000	114.000000	61.000000	0.000000	0.000000
1.320000	53.810000	15.360000	270.000000	0.000000	113.000000	61.000000	9.000000	48.000000
1.330000	53.730000	15.540000	306.000000	0.000000	113.000000	61.000000	-8.000000	18.000000
1.340000	53.670000	15.670000	344.000000	0.000000	113.000000	61.000000	-6.000000	13.000000
1.350000	53.670000	15.670000	398.000000	0.000000	113.000000	61.000000	0.000000	0.000000
1.360000	53.600000	15.670000	400.000000	0.000000	113.000000	61.000000	-7.000000	0.000000
1.370000	53.600000	15.590000	407.000000	0.000000	113.000000	61.000000	0.000000	-8.000000
1.380000	53.600000	15.270000	422.000000	0.000000	111.000000	61.000000	0.000000	-32.000000
1.390000	53.600000	14.790000	423.000000	0.000000	111.000000	61.000000	0.000000	-48.000000
1.400000	53.760000	14.250000	423.000000	0.000000	111.000000	61.000000	16.000000	-54.000000
1.410000	53.950000	13.700000	415.000000	0.000000	109.000000	62.000000	19.000000	-55.000000
1.420000	54.150000	13.230000	418.000000	0.000000	107.000000	62.000000	20.000000	-47.000000
1.430000	54.270000	12.810000	420.000000	0.000000	105.000000	62.000000	12.000000	-42.000000
1.440000	54.330000	12.480000	420.000000	0.000000	104.000000	63.000000	6.000000	-33.000000
1.450000	54.330000	12.100000	428.000000	0.000000	102.000000	63.000000	0.000000	-38.000000
1.460000	54.190000	11.880000	430.000000	0.000000	102.000000	63.000000	-14.000000	-22.000000
1.470000	54.030000	11.780000	440.000000	0.000000	100.000000	64.000000	-16.000000	-10.000000
1.480000	53.710000	11.680000	474.000000	0.000000	100.000000	64.000000	-32.000000	-10.000000
1.490000	53.280000	11.680000	489.000000	0.000000	98.000000	64.000000	-43.000000	0.000000
1.500000	52.770000	11.680000	518.000000	0.000000	98.000000	64.000000	-51.000000	0.000000
1.510000	52.300000	11.680000	539.000000	0.000000	98.000000	64.000000	-47.000000	0.000000
1.520000	51.980000	11.730000	546.000000	0.000000	98.000000	64.000000	-32.000000	5.000000
1.530000	51.980000	11.730000	527.000000	0.000000	98.000000	64.000000	0.000000	0.000000
1.540000	51.980000	11.730000	469.000000	0.000000	98.000000	64.000000	0.000000	0.000000
1.550000	51.980000	11.730000	381.000000	0.000000	98.000000	64.000000	0.000000	0.000000
1.560000	52.330000	12.010000	226.000000	0.000000	98.000000	64.000000	35.000000	28.000000
1.570000	52.940000	12.170000	36.000000	0.000000	98.000000	64.000000	61.000000	16.000000
1.580000	52.940000	12.170000	0.000000	1.000000	98.000000	64.000000	0.000000	0.000000
1.590000	54.400000	12.470000	0.000000	0.000000	99.000000	65.000000	146.000000	30.000000
1.600000	55.060000	12.590000	0.000000	0.000000	99.000000	65.000000	66.000000	12.000000
1.610000	55.640000	12.710000	0.000000	0.000000	101.000000	65.000000	58.000000	12.000000
1.620000	56.150000	12.830000	0.000000	0.000000	101.000000	65.000000	51.000000	12.000000
1.630000	56.620000	12.910000	0.000000	0.000000	101.000000	65.000000	47.000000	8.000000
1.640000	56.620000	12.910000	53.000000	1.000000	101.000000	66.000000	0.000000	0.000000
1.650000	56.990000	13.110000	70.000000	0.000000	101.000000	66.000000	37.000000	20.000000
1.660000	56.990000	13.230000	94.000000	0.000000	101.000000	66.000000	0.000000	12.000000
1.670000	56.990000	13.390000	110.000000	0.000000	101.000000	66.000000	0.000000	16.000000
1.680000	56.900000	13.550000	212.000000	0.000000	102.000000	67.000000	-9.000000	16.000000
1.690000	56.740000	13.720000	259.000000	0.000000	102.000000	67.000000	-16.000000	17.000000
1.700000	56.500000	13.770000	354.000000	0.000000	102.000000	67.000000	-24.000000	5.000000
1.710000	56.210000	13.770000	394.000000	0.000000	104.000000	66.000000	-29.000000	0.000000
1.720000	55.880000	13.670000	441.000000	0.000000	104.000000	66.000000	-33.000000	-10.000000
1.730000	55.560000	13.390000	467.000000	0.000000	104.000000	66.000000	-32.000000	-28.000000
1.740000	55.280000	12.990000	499.000000	0.000000	103.000000	65.000000	-28.000000	-40.000000
1.750000	55.050000	12.610000	522.000000	0.000000	103.000000	65.000000	-23.000000	-38.000000
1.760000	55.050000	12.350000	519.000000	0.000000	101.000000	66.000000	0.000000	-26.000000
1.770000	55.160000	12.160000	526.000000	0.000000	101.000000	66.000000	11.000000	-19.000000
1.780000	55.430000	11.970000	522.000000	0.000000	101.000000	66.000000	27.000000	-19.000000
1.790000	55.840000	11.970000	522.000000	0.000000	99.000000	65.000000	41.000000	0.000000
1.800000	56.350000	12.040000	512.000000	0.000000	99.000000	65.000000	51.000000	7.000000
1.810000	56.810000	12.280000	510.000000	0.000000	99.000000	66.000000	46.000000	24.000000
1.820000	57.150000	12.590000	493.000000	0.000000	99.000000	66.000000	34.000000	31.000000
1.830000	57.410000	12.940000	491.000000	0.000000	99.000000	66.000000	26.000000	35.000000
1.840000	57.410000	13.190000	490.000000	0.000000	99.000000	67.000000	0.000000	25.000000
1.850000	57.270000	13.410000	467.000000	0.000000	99.000000	67.000000	-14.000000	22.000000
1.860000	56.980000	13.540000	469.000000	0.000000	99.000000	67.000000	-29.000000	13.000000
1.870000	56.670000	13.540000	439.000000	0.000000	99.000000	67.000000	-31.000000	0.000000
1.880000	56.380000	13.540000	413.000000	0.000000	99.000000	67.000000	-29.000000	0.000000
1.890000	56.290000	13.470000	272.000000	0.000000	102.000000	67.000000	-9.000000	-7.000000
1.900000	56.290000	13.470000	146.000000	0.000000	102.000000	67.000000	0.000000	0.000000
1.910000	56.580000	13.470000	56.000000	0.000000	102.000000	67.000000	29.000000	0.000000
1.920000	56.580000	13.470000	0.000000	1.000000	104.000000	66.000000	0.000000	0.000000
1.930000	57.610000	13.570000	0.000000	0.000000	104.000000	66.000000	103.000000	10.000000
1.940000	58.220000	13.650000	0.000000	0.000000	104.000000	66.000000	61.000000	8.000000
1.950000	58.790000	13.720000	0.000000	0.000000	104.000000	66.000000	57.000000	7.000000
1.960000	59.260000	13.770000	0.000000	0.000000	106.000000	66.000000	47.000000	5.000000
1.970000	59.260000	13.770000	15.000000	1.000000	106.000000	66.000000	0.000000	0.000000
1.980000	59.920000	13.900000	91.000000	0.000000	106.000000	66.000000	66.000000	13.000000
1.990000	60.050000	13.990000	136.000000	0.000000	105.000000	65.000000	13.000000	9.000000
2.000000	60.110000	14.040000	173.000000	0.000000	105.000000	65.000000	6.000000	5.000000
2.010000	60.110000	14.110000	179.000000	0.000000	105.000000	65.000000	0.000000	7.000000
2.020000	60.010000	14.230000	170.000000	0.000000	105.000000	64.000000	-10.000000	12.000000
2.030000	59.920000	14.390000	209.000000	0.000000	105.000000	64.000000	-9.000000	16.000000
2.040000	59.750000	14.440000	235.000000	0.000000	105.000000	64.000000	-17.000000	5.000000
2.050000	59.520000	14.440000	264.000000	0.000000	105.000000	64.000000	-23.000000	0.000000
2.060000	59.250000	14.440000	287.000000	0.000000	105.000000	64.000000	-27.000000	0.000000
2.070000	58.950000	14.390000	351.000000	0.000000	107.000000	64.000000	-30.000000	-5.000000
2.080000	58.680000	14.300000	389.000000	0.000000	107.000000	64.000000	-27.000000	-9.000000
2.090000	58.450000	14.200000	399.000000	0.000000	107.000000	64.000000	-23.000000	-10.000000
2.100000	58.360000	14.050000	391.000000	0.000000	107.000000	64.000000	-9.000000	-15.000000
2.110000	58.360000	13.900000	388.000000	0.000000	107.000000	64.000000	0.000000	-15.000000
2.120000	58.540000	13.680000	392.000000	0.000000	105.000000	64.000000	18.000000	-22.000000
2.130000	58.760000	13.430000	389.000000	0.000000	105.000000	64.000000	22.000000	-25.000000
2.140000	59.050000	13.200000	396.000000	0.000000	105.000000	64.000000	29.000000	-23.000000
2.150000	59.360000	12.950000	369.000000	0.000000	103.000000	64.000000	31.000000	-25.000000
2.160000	59.580000	12.700000	353.000000	0.000000	103.000000	64.000000	22.000000	-25.000000
2.170000	59.740000	12.500000	334.000000	0.000000	103.000000	64.000000	16.000000	-20.000000
2.180000	59.740000	12.340000	339.000000	0.000000	101.000000	65.000000	0.000000	-16.000000
2.190000	59.580000	12.260000	337.000000	0.000000	101.000000	65.000000	-16.000000	-8.000000
2.200000	59.310000	12.260000	342.000000	0.000000	101.000000	65.000000	-27.000000	0.000000
