t	x	y	pressure	penup	azimuth	inclination	v_x	v_y
0.000000	64.280000	51.810000	20.000000	1.000000	126.000000	61.000000	0.000000	0.000000
0.010000	64.860000	51.960000	36.000000	0.000000	126.000000	61.000000	58.000000	15.000000
0.020000	65.130000	52.030000	44.000000	0.000000	126.000000	61.000000	27.000000	7.000000
0.030000	65.430000	52.110000	46.000000	0.000000	127.000000	62.000000	30.000000	8.000000
0.040000	65.940000	52.180000	44.000000	0.000000	127.000000	62.000000	51.000000	7.000000
0.050000	66.480000	52.240000	46.000000	0.000000	127.000000	62.000000	54.000000	6.000000
0.060000	67.090000	52.300000	63.000000	0.000000	130.000000	62.000000	61.000000	6.000000
0.070000	67.720000	52.300000	104.000000	0.000000	130.000000	62.000000	63.000000	0.000000
0.080000	68.380000	52.370000	134.000000	0.000000	130.000000	62.000000	66.000000	7.000000
0.090000	68.910000	52.370000	148.000000	0.000000	132.000000	63.000000	53.000000	0.000000
0.100000	69.350000	52.370000	180.000000	0.000000	132.000000	63.000000	44.000000	0.000000
0.110000	69.660000	52.370000	173.000000	0.000000	133.000000	63.000000	31.000000	0.000000
0.120000	69.830000	52.480000	230.000000	0.000000	133.000000	63.000000	17.000000	11.000000
0.130000	69.900000	52.600000	274.000000	0.000000	135.000000	64.000000	7.000000	12.000000
0.140000	69.900000	52.780000	292.000000	0.000000	135.000000	64.000000	0.000000	18.000000
0.150000	69.730000	53.100000	325.000000	0.000000	135.000000	64.000000	-17.000000	32.000000
0.160000	69.460000	53.510000	344.000000	0.000000	137.000000	65.000000	-27.000000	41.000000
0.170000	68.960000	53.800000	351.000000	0.000000	137.000000	65.000000	-50.000000	29.000000
0.180000	68.160000	54.030000	371.000000	0.000000	137.000000	65.000000	-80.000000	23.000000
0.190000	67.150000	54.030000	367.000000	0.000000	137.000000	65.000000	-101.000000	0.000000
0.200000	65.860000	53.920000	427.000000	0.000000	135.000000	64.000000	-129.000000	-11.000000
0.210000	64.200000	53.450000	465.000000	0.000000	135.000000	64.000000	-166.000000	-47.000000
0.220000	62.300000	52.670000	524.000000	0.000000	133.000000	63.000000	-190.000000	-78.000000
0.230000	60.200000	51.690000	572.000000	0.000000	133.000000	63.000000	-210.000000	-98.000000
0.240000	58.110000	50.570000	616.000000	0.000000	130.000000	63.000000	-209.000000	-112.000000
0.250000	56.380000	49.250000	628.000000	0.000000	130.000000	63.000000	-173.000000	-132.000000
0.260000	54.890000	47.810000	627.000000	0.000000	127.000000	63.000000	-149.000000	-144.000000
0.270000	54.160000	46.620000	622.000000	0.000000	124.000000	63.000000	-73.000000	-119.000000
0.280000	53.990000	45.660000	613.000000	0.000000	122.000000	63.000000	-17.000000	-96.000000
0.290000	54.200000	44.860000	610.000000	0.000000	119.000000	63.000000	21.000000	-80.000000
0.300000	54.930000	44.220000	620.000000	0.000000	117.000000	63.000000	73.000000	-64.000000
0.310000	56.220000	43.560000	620.000000	0.000000	116.000000	64.000000	129.000000	-66.000000
0.320000	57.890000	43.250000	625.000000	0.000000	113.000000	63.000000	167.000000	-31.000000
0.330000	59.730000	43.180000	633.000000	0.000000	111.000000	64.000000	184.000000	-7.000000
0.340000	61.630000	43.470000	636.000000	0.000000	111.000000	64.000000	190.000000	29.000000
0.350000	63.650000	44.060000	634.000000	0.000000	112.000000	64.000000	202.000000	59.000000
0.360000	65.730000	44.860000	633.000000	0.000000	112.000000	64.000000	208.000000	80.000000
0.370000	67.570000	45.780000	628.000000	0.000000	112.000000	64.000000	184.000000	92.000000
0.380000	68.990000	46.870000	631.000000	0.000000	115.000000	65.000000	142.000000	109.000000
0.390000	70.140000	48.070000	631.000000	0.000000	116.000000	66.000000	115.000000	120.000000
0.400000	70.550000	49.270000	638.000000	0.000000	118.000000	65.000000	41.000000	120.000000
0.410000	70.310000	50.330000	638.000000	0.000000	119.000000	66.000000	-24.000000	106.000000
0.420000	69.630000	51.180000	636.000000	0.000000	122.000000	67.000000	-68.000000	85.000000
0.430000	68.270000	51.720000	675.000000	0.000000	124.000000	66.000000	-136.000000	54.000000
0.440000	66.340000	52.040000	727.000000	0.000000	126.000000	66.000000	-193.000000	32.000000
0.450000	64.040000	52.040000	763.000000	0.000000	128.000000	65.000000	-230.000000	0.000000
0.460000	61.630000	51.770000	794.000000	0.000000	130.000000	65.000000	-241.000000	-27.000000
0.470000	59.490000	51.310000	788.000000	0.000000	130.000000	65.000000	-214.000000	-46.000000
0.480000	57.520000	50.560000	788.000000	0.000000	130.000000	63.000000	-197.000000	-75.000000
0.490000	56.100000	49.870000	785.000000	0.000000	130.000000	63.000000	-142.000000	-69.000000
0.500000	55.640000	49.220000	779.000000	0.000000	127.000000	63.000000	-46.000000	-65.000000
0.510000	55.830000	48.490000	750.000000	0.000000	127.000000	63.000000	19.000000	-73.000000
0.520000	56.520000	47.770000	752.000000	0.000000	126.000000	62.000000	69.000000	-72.000000
0.530000	57.870000	47.040000	739.000000	0.000000	124.000000	63.000000	135.000000	-73.000000
0.540000	59.670000	46.660000	731.000000	0.000000	122.000000	63.000000	180.000000	-38.000000
0.550000	61.620000	46.520000	721.000000	0.000000	120.000000	64.000000	195.000000	-14.000000
0.560000	63.700000	46.650000	721.000000	0.000000	119.000000	64.000000	208.000000	13.000000
0.570000	65.860000	47.010000	710.000000	0.000000	117.000000	63.000000	216.000000	36.000000
0.580000	67.570000	47.530000	700.000000	0.000000	117.000000	65.000000	171.000000	52.000000
0.590000	68.490000	48.060000	708.000000	0.000000	117.000000	65.000000	92.000000	53.000000
0.600000	68.890000	48.560000	724.000000	0.000000	117.000000	65.000000	40.000000	50.000000
0.610000	68.370000	49.010000	728.000000	0.000000	119.000000	64.000000	-52.000000	45.000000
0.620000	67.100000	49.220000	716.000000	0.000000	119.000000	64.000000	-127.000000	21.000000
0.630000	65.340000	49.270000	731.000000	0.000000	122.000000	65.000000	-176.000000	5.000000
0.640000	63.110000	48.940000	721.000000	0.000000	122.000000	65.000000	-223.000000	-33.000000
0.650000	60.700000	48.400000	728.000000	0.000000	124.000000	64.000000	-241.000000	-54.000000
0.660000	58.180000	47.720000	722.000000	0.000000	124.000000	64.000000	-252.000000	-68.000000
0.670000	55.860000	46.980000	728.000000	0.000000	122.000000	65.000000	-232.000000	-74.000000
0.680000	54.030000	46.270000	697.000000	0.000000	122.000000	65.000000	-183.000000	-71.000000
0.690000	52.520000	45.660000	675.000000	0.000000	120.000000	65.000000	-151.000000	-61.000000
0.700000	51.510000	45.110000	641.000000	0.000000	117.000000	65.000000	-101.000000	-55.000000
0.710000	50.960000	44.800000	617.000000	0.000000	117.000000	65.000000	-55.000000	-31.000000
0.720000	50.710000	44.720000	581.000000	0.000000	115.000000	65.000000	-25.000000	-8.000000
0.730000	50.710000	44.790000	556.000000	0.000000	112.000000	64.000000	0.000000	7.000000
0.740000	50.710000	45.030000	559.000000	0.000000	112.000000	64.000000	0.000000	24.000000
0.750000	50.710000	45.350000	595.000000	0.000000	110.000000	65.000000	0.000000	32.000000
0.760000	50.800000	45.730000	638.000000	0.000000	110.000000	65.000000	9.000000	38.000000
0.770000	50.900000	45.980000	685.000000	0.000000	110.000000	65.000000	10.000000	25.000000
0.780000	51.120000	46.230000	737.000000	0.000000	110.000000	65.000000	22.000000	25.000000
0.790000	51.900000	46.480000	797.000000	0.000000	110.000000	65.000000	78.000000	25.000000
0.800000	53.050000	46.780000	836.000000	0.000000	110.000000	65.000000	115.000000	30.000000
0.810000	55.270000	47.120000	881.000000	0.000000	110.000000	65.000000	222.000000	34.000000
0.820000	58.400000	47.500000	900.000000	0.000000	110.000000	66.000000	313.000000	38.000000
0.830000	62.140000	48.130000	893.000000	0.000000	113.000000	65.000000	374.000000	63.000000
0.840000	66.000000	48.750000	855.000000	0.000000	113.000000	65.000000	386.000000	62.000000
0.850000	69.910000	49.370000	705.000000	0.000000	116.000000	66.000000	391.000000	62.000000
0.860000	73.840000	50.000000	274.000000	0.000000	119.000000	66.000000	393.000000	63.000000
0.870000	73.840000	50.000000	0.000000	1.000000	122.000000	67.000000	0.000000	0.000000
0.880000	78.820000	51.060000	0.000000	0.000000	126.000000	67.000000	498.000000	106.000000
0.890000	79.900000	51.440000	0.000000	0.000000	130.000000	67.000000	108.000000	38.000000
0.900000	79.460000	51.750000	0.000000	0.000000	130.000000	67.000000	-44.000000	31.000000
0.910000	78.180000	51.850000	0.000000	0.000000	130.000000	67.000000	-128.000000	10.000000
0.920000	76.350000	51.850000	0.000000	0.000000	130.000000	66.000000	-183.000000	0.000000
0.930000	74.380000	51.850000	0.000000	0.000000	130.000000	66.000000	-197.000000	0.000000
0.940000	71.980000	51.850000	0.000000	0.000000	128.000000	65.000000	-240.000000	0.000000
0.950000	69.300000	51.800000	0.000000	0.000000	128.000000	65.000000	-268.000000	-5.000000
0.960000	66.800000	51.640000	0.000000	0.000000	128.000000	65.000000	-250.000000	-16.000000
0.970000	64.990000	51.390000	0.000000	0.000000	127.000000	64.000000	-181.000000	-25.000000
0.980000	63.640000	51.070000	0.000000	0.000000	125.000000	64.000000	-135.000000	-32.000000
0.990000	62.230000	50.660000	0.000000	0.000000	121.000000	63.000000	-141.000000	-41.000000
1.000000	60.880000	50.160000	0.000000	0.000000	116.000000	60.000000	-135.000000	-50.000000
1.010000	59.780000	49.600000	0.000000	0.000000	110.000000	58.000000	-110.000000	-56.000000
1.020000	58.820000	49.210000	0.000000	0.000000	105.000000	55.000000	-96.000000	-39.000000
1.030000	58.110000	48.910000	0.000000	0.000000	101.000000	53.000000	-71.000000	-30.000000
1.040000	57.690000	48.670000	0.000000	0.000000	99.000000	51.000000	-42.000000	-24.000000
1.050000	57.460000	48.550000	0.000000	0.000000	98.000000	47.000000	-23.000000	-12.000000
1.060000	57.170000	48.500000	0.000000	0.000000	97.000000	44.000000	-29.000000	-5.000000
1.070000	56.760000	48.500000	0.000000	0.000000	94.000000	41.000000	-41.000000	0.000000
1.080000	56.270000	48.500000	0.000000	0.000000	92.000000	38.000000	-49.000000	0.000000
1.090000	55.960000	48.500000	0.000000	0.000000	91.000000	39.000000	-31.000000	0.000000
1.100000	55.660000	48.560000	0.000000	0.000000	90.000000	41.000000	-30.000000	6.000000
1.110000	55.380000	48.650000	0.000000	0.000000	90.000000	44.000000	-28.000000	9.000000
1.120000	55.220000	48.650000	0.000000	0.000000	91.000000	48.000000	-16.000000	0.000000
1.130000	55.150000	48.650000	0.000000	0.000000	93.000000	52.000000	-7.000000	0.000000
1.140000	55.150000	48.600000	0.000000	0.000000	94.000000	55.000000	0.000000	-5.000000
1.150000	55.250000	48.440000	0.000000	0.000000	96.000000	58.000000	10.000000	-16.000000
1.160000	55.320000	48.240000	0.000000	0.000000	99.000000	61.000000	7.000000	-20.000000
1.170000	55.370000	48.030000	0.000000	0.000000	101.000000	62.000000	5.000000	-21.000000
1.180000	55.430000	47.850000	0.000000	0.000000	104.000000	62.000000	6.000000	-18.000000
1.190000	55.500000	47.790000	0.000000	0.000000	105.000000	62.000000	7.000000	-6.000000
1.200000	55.560000	47.790000	0.000000	0.000000	107.000000	62.000000	6.000000	0.000000
1.210000	55.500000	47.790000	0.000000	0.000000	107.000000	62.000000	-6.000000	0.000000
1.220000	55.370000	47.680000	0.000000	0.000000	109.000000	62.000000	-13.000000	-11.000000
1.230000	55.060000	47.630000	0.000000	0.000000	109.000000	62.000000	-31.000000	-5.000000
1.240000	54.750000	47.630000	0.000000	0.000000	109.000000	62.000000	-31.000000	0.000000
1.250000	54.420000	47.700000	0.000000	0.000000	111.000000	61.000000	-33.000000	7.000000
1.260000	54.080000	47.790000	0.000000	0.000000	111.000000	61.000000	-34.000000	9.000000
1.270000	53.850000	47.920000	0.000000	0.000000	110.000000	60.000000	-23.000000	13.000000
1.280000	53.670000	48.070000	0.000000	0.000000	110.000000	60.000000	-18.000000	15.000000
1.290000	53.670000	48.280000	0.000000	0.000000	110.000000	60.000000	0.000000	21.000000
1.300000	53.770000	48.540000	0.000000	0.000000	109.000000	60.000000	10.000000	26.000000
1.310000	53.970000	48.830000	0.000000	0.000000	109.000000	60.000000	20.000000	29.000000
1.320000	54.190000	49.140000	0.000000	0.000000	111.000000	59.000000	22.000000	31.000000
1.330000	54.190000	49.140000	60.000000	1.000000	111.000000	59.000000	0.000000	0.000000
1.340000	54.630000	49.820000	91.000000	0.000000	111.000000	59.000000	44.000000	68.000000
1.350000	54.690000	50.050000	136.000000	0.000000	113.000000	60.000000	6.000000	23.000000
1.360000	54.690000	50.230000	208.000000	0.000000	113.000000	60.000000	0.000000	18.000000
1.370000	54.600000	50.340000	294.000000	0.000000	115.000000	60.000000	-9.000000	11.000000
1.380000	54.440000	50.340000	366.000000	0.000000	117.000000	59.000000	-16.000000	0.000000
1.390000	54.240000	50.340000	413.000000	0.000000	117.000000	59.000000	-20.000000	0.000000
1.400000	54.020000	50.210000	422.000000	0.000000	118.000000	59.000000	-22.000000	-13.000000
1.410000	53.820000	50.000000	448.000000	0.000000	118.000000	59.000000	-20.000000	-21.000000
1.420000	53.650000	49.650000	445.000000	0.000000	118.000000	59.000000	-17.000000	-35.000000
1.430000	53.530000	49.200000	458.000000	0.000000	118.000000	59.000000	-12.000000	-45.000000
1.440000	53.450000	48.690000	468.000000	0.000000	117.000000	59.000000	-8.000000	-51.000000
1.450000	53.450000	48.220000	473.000000	0.000000	117.000000	59.000000	0.000000	-47.000000
1.460000	53.610000	47.830000	464.000000	0.000000	117.000000	59.000000	16.000000	-39.000000
1.470000	53.720000	47.480000	467.000000	0.000000	115.000000	60.000000	11.000000	-35.000000
1.480000	53.820000	47.280000	465.000000	0.000000	113.000000	60.000000	10.000000	-20.000000
1.490000	53.820000	47.160000	467.000000	0.000000	113.000000	60.000000	0.000000	-12.000000
1.500000	53.820000	47.100000	473.000000	0.000000	111.000000	59.000000	0.000000	-6.000000
1.510000	53.710000	47.000000	475.000000	0.000000	109.000000	60.000000	-11.000000	-10.000000
1.520000	53.370000	46.890000	495.000000	0.000000	109.000000	60.000000	-34.000000	-11.000000
1.530000	52.880000	46.780000	507.000000	0.000000	108.000000	61.000000	-49.000000	-11.000000
1.540000	52.430000	46.710000	509.000000	0.000000	108.000000	61.000000	-45.000000	-7.000000
1.550000	52.010000	46.660000	510.000000	0.000000	107.000000	61.000000	-42.000000	-5.000000
1.560000	51.800000	46.560000	489.000000	0.000000	107.000000	61.000000	-21.000000	-10.000000
1.570000	51.720000	46.560000	392.000000	0.000000	107.000000	61.000000	-8.000000	0.000000
1.580000	51.810000	46.560000	279.000000	0.000000	107.000000	61.000000	9.000000	0.000000
1.590000	52.130000	46.560000	78.000000	0.000000	107.000000	61.000000	32.000000	0.000000
1.600000	52.130000	46.560000	0.000000	1.000000	107.000000	61.000000	0.000000	0.000000
1.610000	53.260000	46.780000	0.000000	0.000000	107.000000	61.000000	113.000000	22.000000
1.620000	53.870000	47.050000	0.000000	0.000000	107.000000	61.000000	61.000000	27.000000
1.630000	54.440000	47.360000	0.000000	0.000000	107.000000	61.000000	57.000000	31.000000
1.640000	54.980000	47.700000	0.000000	0.000000	107.000000	61.000000	54.000000	34.000000
1.650000	55.390000	47.910000	0.000000	0.000000	108.000000	61.000000	41.000000	21.000000
1.660000	55.720000	48.080000	0.000000	0.000000	109.000000	62.000000	33.000000	17.000000
1.670000	55.960000	48.190000	0.000000	0.000000	109.000000	62.000000	24.000000	11.000000
1.680000	55.960000	48.190000	108.000000	1.000000	111.000000	61.000000	0.000000	0.000000
1.690000	56.300000	48.310000	139.000000	0.000000	111.000000	61.000000	34.000000	12.000000
1.700000	56.300000	48.450000	134.000000	0.000000	113.000000	61.000000	0.000000	14.000000
1.710000	56.210000	48.640000	141.000000	0.000000	114.000000	62.000000	-9.000000	19.000000
1.720000	56.130000	48.830000	183.000000	0.000000	114.000000	62.000000	-8.000000	19.000000
1.730000	56.000000	48.970000	279.000000	0.000000	115.000000	62.000000	-13.000000	14.000000
1.740000	55.810000	49.030000	389.000000	0.000000	115.000000	62.000000	-19.000000	6.000000
1.750000	55.580000	49.030000	405.000000	0.000000	115.000000	62.000000	-23.000000	0.000000
1.760000	55.300000	48.930000	438.000000	0.000000	117.000000	61.000000	-28.000000	-10.000000
1.770000	54.980000	48.640000	498.000000	0.000000	117.000000	61.000000	-32.000000	-29.000000
1.780000	54.620000	48.230000	541.000000	0.000000	117.000000	61.000000	-36.000000	-41.000000
1.790000	54.330000	47.770000	556.000000	0.000000	115.000000	62.000000	-29.000000	-46.000000
1.800000	54.240000	47.460000	565.000000	0.000000	114.000000	61.000000	-9.000000	-31.000000
1.810000	54.290000	47.250000	561.000000	0.000000	114.000000	61.000000	5.000000	-21.000000
1.820000	54.500000	47.080000	574.000000	0.000000	113.000000	61.000000	21.000000	-17.000000
1.830000	54.880000	47.080000	580.000000	0.000000	113.000000	61.000000	38.000000	0.000000
1.840000	55.360000	47.190000	574.000000	0.000000	111.000000	61.000000	48.000000	11.000000
1.850000	55.820000	47.410000	570.000000	0.000000	111.000000	61.000000	46.000000	22.000000
1.860000	56.160000	47.760000	564.000000	0.000000	111.000000	61.000000	34.000000	35.000000
1.870000	56.430000	48.190000	560.000000	0.000000	111.000000	61.000000	27.000000	43.000000
1.880000	56.430000	48.530000	568.000000	0.000000	111.000000	61.000000	0.000000	34.000000
1.890000	56.320000	48.830000	564.000000	0.000000	111.000000	61.000000	-11.000000	30.000000
1.900000	56.100000	49.070000	562.000000	0.000000	114.000000	62.000000	-22.000000	24.000000
1.910000	55.790000	49.130000	561.000000	0.000000	115.000000	62.000000	-31.000000	6.000000
1.920000	55.530000	49.080000	497.000000	0.000000	115.000000	62.000000	-26.000000	-5.000000
1.930000	55.360000	49.030000	423.000000	0.000000	117.000000	61.000000	-17.000000	-5.000000
1.940000	55.360000	48.980000	364.000000	0.000000	117.000000	61.000000	0.000000	-5.000000
1.950000	55.540000	48.980000	277.000000	0.000000	117.000000	61.000000	18.000000	0.000000
1.960000	55.990000	48.900000	175.000000	0.000000	119.000000	61.000000	45.000000	-8.000000
1.970000	56.490000	48.900000	108.000000	0.000000	119.000000	61.000000	50.000000	0.000000
1.980000	57.060000	48.850000	50.000000	0.000000	119.000000	61.000000	57.000000	-5.000000
1.990000	57.630000	48.850000	41.000000	0.000000	120.000000	62.000000	57.000000	0.000000
2.000000	58.180000	48.850000	15.000000	0.000000	120.000000	62.000000	55.000000	0.000000
2.010000	58.590000	48.960000	36.000000	0.000000	120.000000	62.000000	41.000000	11.000000
2.020000	58.930000	49.050000	68.000000	0.000000	121.000000	63.000000	34.000000	9.000000
2.030000	59.050000	49.150000	122.000000	0.000000	121.000000	63.000000	12.000000	10.000000
2.040000	59.050000	49.270000	184.000000	0.000000	121.000000	63.000000	0.000000	12.000000
2.050000	59.050000	49.400000	212.000000	0.000000	121.000000	63.000000	0.000000	13.000000
2.060000	58.970000	49.570000	256.000000	0.000000	121.000000	63.000000	-8.000000	17.000000
2.070000	58.850000	49.780000	325.000000	0.000000	121.000000	63.000000	-12.000000	21.000000
2.080000	58.710000	49.870000	354.000000	0.000000	121.000000	63.000000	-14.000000	9.000000
2.090000	58.490000	49.930000	389.000000	0.000000	123.000000	62.000000	-22.000000	6.000000
2.100000	58.270000	49.930000	417.000000	0.000000	123.000000	62.000000	-22.000000	0.000000
2.110000	58.060000	49.870000	448.000000	0.000000	123.000000	62.000000	-21.000000	-6.000000
2.120000	57.820000	49.750000	465.000000	0.000000	123.000000	62.000000	-24.000000	-12.000000
2.130000	57.570000	49.570000	468.000000	0.000000	123.000000	62.000000	-25.000000	-18.000000
2.140000	57.520000	49.370000	472.000000	0.000000	123.000000	62.000000	-5.000000	-20.000000
2.150000	57.630000	49.140000	475.000000	0.000000	123.000000	62.000000	11.000000	-23.000000
2.160000	57.850000	48.900000	477.000000	0.000000	123.000000	62.000000	22.000000	-24.000000
2.170000	58.110000	48.620000	467.000000	0.000000	121.000000	63.000000	26.000000	-28.000000
2.180000	58.380000	48.360000	442.000000	0.000000	121.000000	63.000000	27.000000	-26.000000
2.190000	58.680000	48.140000	410.000000	0.000000	121.000000	63.000000	30.000000	-22.000000
2.200000	58.850000	47.970000	371.000000	0.000000	119.000000	63.000000	17.000000	-17.000000
