t	x	y	pressure	penup	azimuth	inclination	v_x	v_y
0.000000	92.310000	65.600000	182.000000	1.000000	270.000000	57.000000	0.000000	0.000000
0.010000	91.660000	66.010000	241.000000	0.000000	270.000000	57.000000	-65.000000	41.000000
0.020000	91.970000	65.960000	312.000000	0.000000	270.000000	57.000000	31.000000	-5.000000
0.030000	91.970000	65.750000	363.000000	0.000000	270.000000	57.000000	0.000000	-21.000000
0.040000	91.910000	65.500000	397.000000	0.000000	270.000000	57.000000	-6.000000	-25.000000
0.050000	92.010000	65.000000	469.000000	0.000000	270.000000	57.000000	10.000000	-50.000000
0.060000	92.200000	64.350000	510.000000	0.000000	270.000000	57.000000	19.000000	-65.000000
0.070000	92.580000	63.570000	530.000000	0.000000	270.000000	57.000000	38.000000	-78.000000
0.080000	93.070000	62.630000	540.000000	0.000000	270.000000	57.000000	49.000000	-94.000000
0.090000	93.620000	61.590000	543.000000	0.000000	270.000000	57.000000	55.000000	-104.000000
0.100000	94.370000	60.550000	551.000000	0.000000	270.000000	57.000000	75.000000	-104.000000
0.110000	95.120000	59.710000	560.000000	0.000000	268.000000	57.000000	75.000000	-84.000000
0.120000	95.860000	59.000000	567.000000	0.000000	268.000000	57.000000	74.000000	-71.000000
0.130000	96.140000	58.530000	550.000000	0.000000	268.000000	57.000000	28.000000	-47.000000
0.140000	95.970000	58.070000	546.000000	0.000000	268.000000	57.000000	-17.000000	-46.000000
0.150000	95.490000	57.610000	538.000000	0.000000	270.000000	57.000000	-48.000000	-46.000000
0.160000	94.530000	57.070000	526.000000	0.000000	270.000000	57.000000	-96.000000	-54.000000
0.170000	93.520000	56.680000	521.000000	0.000000	270.000000	57.000000	-101.000000	-39.000000
0.180000	92.340000	56.390000	527.000000	0.000000	270.000000	56.000000	-118.000000	-29.000000
0.190000	91.070000	56.290000	532.000000	0.000000	271.000000	56.000000	-127.000000	-10.000000
0.200000	89.820000	56.220000	535.000000	0.000000	272.000000	57.000000	-125.000000	-7.000000
0.210000	88.930000	56.220000	537.000000	0.000000	273.000000	57.000000	-89.000000	0.000000
0.220000	88.280000	56.220000	546.000000	0.000000	273.000000	57.000000	-65.000000	0.000000
0.230000	88.030000	56.280000	578.000000	0.000000	273.000000	58.000000	-25.000000	6.000000
0.240000	88.090000	56.390000	620.000000	0.000000	275.000000	59.000000	6.000000	11.000000
0.250000	88.360000	56.760000	664.000000	0.000000	275.000000	60.000000	27.000000	37.000000
0.260000	88.960000	57.300000	673.000000	0.000000	275.000000	60.000000	60.000000	54.000000
0.270000	90.180000	57.990000	693.000000	0.000000	275.000000	60.000000	122.000000	69.000000
0.280000	91.800000	58.990000	691.000000	0.000000	275.000000	60.000000	162.000000	100.000000
0.290000	93.880000	60.200000	693.000000	0.000000	273.000000	60.000000	208.000000	121.000000
0.300000	96.530000	61.870000	675.000000	0.000000	273.000000	60.000000	265.000000	167.000000
0.310000	99.560000	63.790000	710.000000	0.000000	273.000000	60.000000	303.000000	192.000000
0.320000	102.450000	65.870000	716.000000	0.000000	272.000000	59.000000	289.000000	208.000000
0.330000	104.040000	66.820000	708.000000	0.000000	272.000000	59.000000	159.000000	95.000000
0.340000	104.750000	67.420000	702.000000	0.000000	270.000000	58.000000	71.000000	60.000000
0.350000	105.230000	67.780000	690.000000	0.000000	270.000000	57.000000	48.000000	36.000000
0.360000	105.420000	67.910000	620.000000	0.000000	270.000000	57.000000	19.000000	13.000000
0.370000	105.420000	67.990000	474.000000	0.000000	270.000000	56.000000	0.000000	8.000000
0.380000	105.310000	67.990000	297.000000	0.000000	270.000000	56.000000	-11.000000	0.000000
0.390000	105.310000	67.990000	0.000000	1.000000	270.000000	56.000000	0.000000	0.000000
0.400000	104.150000	67.470000	0.000000	0.000000	270.000000	55.000000	-116.000000	-52.000000
0.410000	103.330000	66.900000	0.000000	0.000000	270.000000	55.000000	-82.000000	-57.000000
0.420000	102.500000	66.290000	0.000000	0.000000	270.000000	55.000000	-83.000000	-61.000000
0.430000	101.650000	65.740000	0.000000	0.000000	270.000000	55.000000	-85.000000	-55.000000
0.440000	100.790000	65.250000	0.000000	0.000000	270.000000	55.000000	-86.000000	-49.000000
0.450000	99.820000	64.900000	0.000000	0.000000	270.000000	55.000000	-97.000000	-35.000000
0.460000	99.040000	64.650000	0.000000	0.000000	270.000000	55.000000	-78.000000	-25.000000
0.470000	98.390000	64.470000	0.000000	0.000000	270.000000	55.000000	-65.000000	-18.000000
0.480000	97.800000	64.320000	0.000000	0.000000	270.000000	54.000000	-59.000000	-15.000000
0.490000	97.240000	64.190000	0.000000	0.000000	270.000000	53.000000	-56.000000	-13.000000
0.500000	96.710000	64.070000	0.000000	0.000000	270.000000	53.000000	-53.000000	-12.000000
0.510000	96.160000	63.940000	0.000000	0.000000	270.000000	52.000000	-55.000000	-13.000000
0.520000	95.660000	63.870000	0.000000	0.000000	270.000000	52.000000	-50.000000	-7.000000
0.530000	95.180000	63.870000	0.000000	0.000000	270.000000	51.000000	-48.000000	0.000000
0.540000	95.180000	63.870000	172.000000	1.000000	270.000000	52.000000	0.000000	0.000000
0.550000	94.480000	63.410000	225.000000	0.000000	270.000000	52.000000	-70.000000	-46.000000
0.560000	94.420000	63.030000	334.000000	0.000000	270.000000	52.000000	-6.000000	-38.000000
0.570000	94.260000	62.530000	407.000000	0.000000	270.000000	53.000000	-16.000000	-50.000000
0.580000	94.150000	62.110000	468.000000	0.000000	270.000000	54.000000	-11.000000	-42.000000
0.590000	94.150000	61.750000	510.000000	0.000000	270.000000	54.000000	0.000000	-36.000000
0.600000	94.090000	61.560000	542.000000	0.000000	270.000000	55.000000	-6.000000	-19.000000
0.610000	94.160000	61.510000	563.000000	0.000000	270.000000	55.000000	7.000000	-5.000000
0.620000	94.360000	61.510000	584.000000	0.000000	270.000000	56.000000	20.000000	0.000000
0.630000	94.650000	61.670000	584.000000	0.000000	270.000000	56.000000	29.000000	16.000000
0.640000	95.100000	61.950000	583.000000	0.000000	270.000000	56.000000	45.000000	28.000000
0.650000	95.570000	62.340000	589.000000	0.000000	270.000000	57.000000	47.000000	39.000000
0.660000	96.060000	62.800000	585.000000	0.000000	270.000000	57.000000	49.000000	46.000000
0.670000	96.240000	63.220000	591.000000	0.000000	270.000000	57.000000	18.000000	42.000000
0.680000	96.390000	63.600000	589.000000	0.000000	270.000000	57.000000	15.000000	38.000000
0.690000	96.330000	63.970000	586.000000	0.000000	270.000000	57.000000	-6.000000	37.000000
0.700000	96.150000	64.330000	578.000000	0.000000	270.000000	56.000000	-18.000000	36.000000
0.710000	95.780000	64.480000	567.000000	0.000000	270.000000	56.000000	-37.000000	15.000000
0.720000	95.360000	64.480000	551.000000	0.000000	270.000000	56.000000	-42.000000	0.000000
0.730000	94.860000	64.350000	499.000000	0.000000	270.000000	55.000000	-50.000000	-13.000000
0.740000	94.330000	64.030000	414.000000	0.000000	270.000000	55.000000	-53.000000	-32.000000
0.750000	93.930000	63.610000	334.000000	0.000000	270.000000	55.000000	-40.000000	-42.000000
0.760000	93.600000	63.290000	223.000000	0.000000	270.000000	54.000000	-33.000000	-32.000000
0.770000	93.430000	62.940000	93.000000	0.000000	270.000000	55.000000	-17.000000	-35.000000
0.780000	93.430000	62.940000	0.000000	1.000000	270.000000	55.000000	0.000000	0.000000
0.790000	93.660000	62.580000	0.000000	0.000000	270.000000	55.000000	23.000000	-36.000000
0.800000	94.040000	62.580000	0.000000	0.000000	270.000000	56.000000	38.000000	0.000000
0.810000	94.560000	62.860000	0.000000	0.000000	270.000000	56.000000	52.000000	28.000000
0.820000	94.560000	62.860000	68.000000	1.000000	270.000000	56.000000	0.000000	0.000000
0.830000	97.780000	65.400000	139.000000	0.000000	270.000000	56.000000	322.000000	254.000000
0.840000	98.650000	66.260000	179.000000	0.000000	270.000000	56.000000	87.000000	86.000000
0.850000	98.360000	66.260000	215.000000	0.000000	271.000000	55.000000	-29.000000	0.000000
0.860000	98.360000	66.520000	254.000000	0.000000	270.000000	55.000000	0.000000	26.000000
0.870000	98.360000	66.730000	280.000000	0.000000	270.000000	55.000000	0.000000	21.000000
0.880000	98.180000	66.850000	287.000000	0.000000	270.000000	55.000000	-18.000000	12.000000
0.890000	97.950000	66.850000	314.000000	0.000000	270.000000	55.000000	-23.000000	0.000000
0.900000	97.660000	66.850000	314.000000	0.000000	270.000000	55.000000	-29.000000	0.000000
0.910000	97.350000	66.650000	339.000000	0.000000	270.000000	55.000000	-31.000000	-20.000000
0.920000	97.010000	66.410000	339.000000	0.000000	270.000000	55.000000	-34.000000	-24.000000
0.930000	96.690000	66.120000	349.000000	0.000000	270.000000	55.000000	-32.000000	-29.000000
0.940000	96.500000	65.790000	381.000000	0.000000	270.000000	55.000000	-19.000000	-33.000000
0.950000	96.380000	65.480000	414.000000	0.000000	270.000000	55.000000	-12.000000	-31.000000
0.960000	96.380000	65.300000	453.000000	0.000000	270.000000	55.000000	0.000000	-18.000000
0.970000	96.570000	65.210000	474.000000	0.000000	270.000000	54.000000	19.000000	-9.000000
0.980000	96.850000	65.120000	485.000000	0.000000	270.000000	54.000000	28.000000	-9.000000
0.990000	97.340000	65.120000	489.000000	0.000000	270.000000	54.000000	49.000000	0.000000
1.000000	97.940000	65.190000	504.000000	0.000000	270.000000	55.000000	60.000000	7.000000
1.010000	98.620000	65.190000	529.000000	0.000000	270.000000	55.000000	68.000000	0.000000
1.020000	99.060000	65.110000	543.000000	0.000000	270.000000	55.000000	44.000000	-8.000000
1.030000	99.280000	64.890000	542.000000	0.000000	270.000000	55.000000	22.000000	-22.000000
1.040000	99.360000	64.670000	539.000000	0.000000	270.000000	56.000000	8.000000	-22.000000
1.050000	99.230000	64.330000	540.000000	0.000000	270.000000	56.000000	-13.000000	-34.000000
1.060000	98.910000	63.910000	540.000000	0.000000	270.000000	56.000000	-32.000000	-42.000000
1.070000	98.470000	63.500000	537.000000	0.000000	270.000000	56.000000	-44.000000	-41.000000
1.080000	97.860000	63.230000	538.000000	0.000000	270.000000	56.000000	-61.000000	-27.000000
1.090000	97.250000	63.060000	519.000000	0.000000	270.000000	56.000000	-61.000000	-17.000000
1.100000	96.660000	62.940000	472.000000	0.000000	270.000000	56.000000	-59.000000	-12.000000
1.110000	96.250000	62.940000	399.000000	0.000000	270.000000	56.000000	-41.000000	0.000000
1.120000	95.960000	62.940000	371.000000	0.000000	270.000000	56.000000	-29.000000	0.000000
1.130000	95.960000	63.080000	363.000000	0.000000	270.000000	56.000000	0.000000	14.000000
1.140000	96.270000	63.340000	361.000000	0.000000	270.000000	56.000000	31.000000	26.000000
1.150000	96.760000	63.690000	392.000000	0.000000	270.000000	56.000000	49.000000	35.000000
1.160000	97.280000	64.000000	436.000000	0.000000	270.000000	56.000000	52.000000	31.000000
1.170000	97.840000	64.300000	455.000000	0.000000	270.000000	56.000000	56.000000	30.000000
1.180000	98.430000	64.590000	465.000000	0.000000	270.000000	56.000000	59.000000	29.000000
1.190000	98.970000	64.950000	465.000000	0.000000	270.000000	55.000000	54.000000	36.000000
1.200000	99.550000	65.390000	464.000000	0.000000	271.000000	55.000000	58.000000	44.000000
1.210000	100.060000	65.920000	473.000000	0.000000	271.000000	55.000000	51.000000	53.000000
1.220000	100.510000	66.490000	474.000000	0.000000	271.000000	55.000000	45.000000	57.000000
1.230000	100.820000	67.060000	469.000000	0.000000	271.000000	56.000000	31.000000	57.000000
1.240000	100.700000	67.410000	464.000000	0.000000	271.000000	56.000000	-12.000000	35.000000
1.250000	100.300000	67.620000	478.000000	0.000000	271.000000	56.000000	-40.000000	21.000000
1.260000	99.980000	67.840000	493.000000	0.000000	271.000000	56.000000	-32.000000	22.000000
1.270000	99.600000	67.840000	520.000000	0.000000	271.000000	56.000000	-38.000000	0.000000
1.280000	99.110000	67.840000	546.000000	0.000000	271.000000	56.000000	-49.000000	0.000000
1.290000	98.640000	67.520000	561.000000	0.000000	271.000000	56.000000	-47.000000	-32.000000
1.300000	98.200000	66.980000	567.000000	0.000000	271.000000	56.000000	-44.000000	-54.000000
1.310000	97.910000	66.280000	591.000000	0.000000	271.000000	56.000000	-29.000000	-70.000000
1.320000	97.800000	65.770000	592.000000	0.000000	270.000000	56.000000	-11.000000	-51.000000
1.330000	97.800000	65.270000	597.000000	0.000000	270.000000	55.000000	0.000000	-50.000000
1.340000	97.990000	64.830000	585.000000	0.000000	270.000000	55.000000	19.000000	-44.000000
1.350000	98.300000	64.470000	564.000000	0.000000	270.000000	55.000000	31.000000	-36.000000
1.360000	98.710000	64.410000	445.000000	0.000000	271.000000	55.000000	41.000000	-6.000000
1.370000	99.310000	64.560000	297.000000	0.000000	271.000000	55.000000	60.000000	15.000000
1.380000	99.910000	64.970000	61.000000	0.000000	271.000000	55.000000	60.000000	41.000000
1.390000	99.910000	64.970000	0.000000	1.000000	271.000000	56.000000	0.000000	0.000000
1.400000	101.220000	66.430000	0.000000	0.000000	271.000000	56.000000	131.000000	146.000000
1.410000	101.810000	67.510000	0.000000	0.000000	271.000000	56.000000	59.000000	108.000000
1.420000	102.310000	68.780000	0.000000	0.000000	270.000000	56.000000	50.000000	127.000000
1.430000	102.560000	70.190000	0.000000	0.000000	270.000000	56.000000	25.000000	141.000000
1.440000	102.560000	71.390000	0.000000	0.000000	270.000000	56.000000	0.000000	120.000000
1.450000	102.560000	71.390000	41.000000	1.000000	270.000000	55.000000	0.000000	0.000000
1.460000	102.130000	72.930000	96.000000	0.000000	269.000000	55.000000	-43.000000	154.000000
1.470000	102.060000	73.320000	244.000000	0.000000	267.000000	55.000000	-7.000000	39.000000
1.480000	102.060000	73.410000	356.000000	0.000000	266.000000	55.000000	0.000000	9.000000
1.490000	102.060000	73.300000	414.000000	0.000000	266.000000	55.000000	0.000000	-11.000000
1.500000	102.060000	72.940000	463.000000	0.000000	265.000000	54.000000	0.000000	-36.000000
1.510000	102.120000	72.230000	519.000000	0.000000	265.000000	54.000000	6.000000	-71.000000
1.520000	102.120000	71.280000	553.000000	0.000000	263.000000	54.000000	0.000000	-95.000000
1.530000	102.120000	70.270000	575.000000	0.000000	263.000000	54.000000	0.000000	-101.000000
1.540000	102.060000	69.050000	586.000000	0.000000	263.000000	54.000000	-6.000000	-122.000000
1.550000	101.870000	67.690000	585.000000	0.000000	265.000000	54.000000	-19.000000	-136.000000
1.560000	101.580000	66.660000	595.000000	0.000000	264.000000	55.000000	-29.000000	-103.000000
1.570000	101.210000	65.920000	595.000000	0.000000	266.000000	55.000000	-37.000000	-74.000000
1.580000	100.770000	65.370000	592.000000	0.000000	267.000000	55.000000	-44.000000	-55.000000
1.590000	100.450000	65.170000	578.000000	0.000000	269.000000	55.000000	-32.000000	-20.000000
1.600000	100.210000	65.170000	577.000000	0.000000	270.000000	55.000000	-24.000000	0.000000
1.610000	100.060000	65.410000	572.000000	0.000000	270.000000	55.000000	-15.000000	24.000000
1.620000	100.120000	66.030000	575.000000	0.000000	270.000000	55.000000	6.000000	62.000000
1.630000	100.330000	66.720000	575.000000	0.000000	270.000000	55.000000	21.000000	69.000000
1.640000	100.500000	67.460000	584.000000	0.000000	271.000000	55.000000	17.000000	74.000000
1.650000	100.920000	67.930000	620.000000	0.000000	271.000000	54.000000	42.000000	47.000000
1.660000	101.500000	68.130000	634.000000	0.000000	271.000000	54.000000	58.000000	20.000000
1.670000	101.830000	68.130000	670.000000	0.000000	271.000000	55.000000	33.000000	0.000000
1.680000	102.200000	67.850000	694.000000	0.000000	271.000000	55.000000	37.000000	-28.000000
1.690000	102.590000	67.470000	694.000000	0.000000	271.000000	55.000000	39.000000	-38.000000
1.700000	102.860000	67.050000	699.000000	0.000000	271.000000	56.000000	27.000000	-42.000000
1.710000	103.110000	66.760000	699.000000	0.000000	271.000000	56.000000	25.000000	-29.000000
1.720000	103.320000	66.510000	676.000000	0.000000	271.000000	56.000000	21.000000	-25.000000
1.730000	103.470000	66.450000	627.000000	0.000000	271.000000	56.000000	15.000000	-6.000000
1.740000	103.560000	66.500000	562.000000	0.000000	271.000000	56.000000	9.000000	5.000000
1.750000	103.720000	66.700000	517.000000	0.000000	271.000000	56.000000	16.000000	20.000000
1.760000	103.930000	66.920000	473.000000	0.000000	271.000000	55.000000	21.000000	22.000000
1.770000	104.010000	67.170000	448.000000	0.000000	271.000000	55.000000	8.000000	25.000000
1.780000	104.080000	67.500000	433.000000	0.000000	271.000000	55.000000	7.000000	33.000000
1.790000	104.140000	67.880000	422.000000	0.000000	271.000000	55.000000	6.000000	38.000000
1.800000	104.140000	68.240000	431.000000	0.000000	271.000000	55.000000	0.000000	36.000000
1.810000	104.140000	68.560000	439.000000	0.000000	271.000000	55.000000	0.000000	32.000000
1.820000	104.140000	68.760000	473.000000	0.000000	270.000000	55.000000	0.000000	20.000000
1.830000	104.070000	68.890000	507.000000	0.000000	270.000000	54.000000	-7.000000	13.000000
1.840000	103.980000	69.010000	519.000000	0.000000	270.000000	54.000000	-9.000000	12.000000
1.850000	103.890000	69.010000	550.000000	0.000000	270.000000	54.000000	-9.000000	0.000000
1.860000	103.890000	68.870000	589.000000	0.000000	270.000000	53.000000	0.000000	-14.000000
1.870000	103.890000	68.530000	603.000000	0.000000	270.000000	53.000000	0.000000	-34.000000
1.880000	103.950000	68.150000	608.000000	0.000000	270.000000	53.000000	6.000000	-38.000000
1.890000	104.130000	67.800000	611.000000	0.000000	270.000000	53.000000	18.000000	-35.000000
1.900000	104.350000	67.480000	628.000000	0.000000	270.000000	53.000000	22.000000	-32.000000
1.910000	104.530000	67.360000	610.000000	0.000000	270.000000	53.000000	18.000000	-12.000000
1.920000	104.780000	67.440000	609.000000	0.000000	270.000000	54.000000	25.000000	8.000000
1.930000	105.060000	67.650000	602.000000	0.000000	270.000000	54.000000	28.000000	21.000000
1.940000	105.330000	67.960000	566.000000	0.000000	270.000000	54.000000	27.000000	31.000000
1.950000	105.470000	68.270000	560.000000	0.000000	270.000000	54.000000	14.000000	31.000000
1.960000	105.560000	68.700000	568.000000	0.000000	270.000000	54.000000	9.000000	43.000000
1.970000	105.560000	69.220000	565.000000	0.000000	270.000000	54.000000	0.000000	52.000000
1.980000	105.500000	69.650000	568.000000	0.000000	270.000000	54.000000	-6.000000	43.000000
1.990000	105.370000	70.060000	560.000000	0.000000	270.000000	53.000000	-13.000000	41.000000
2.000000	105.230000	70.430000	560.000000	0.000000	269.000000	53.000000	-14.000000	37.000000
2.010000	105.090000	70.620000	578.000000	0.000000	267.000000	53.000000	-14.000000	19.000000
2.020000	105.040000	70.700000	619.000000	0.000000	267.000000	52.000000	-5.000000	8.000000
2.030000	105.040000	70.640000	630.000000	0.000000	266.000000	52.000000	0.000000	-6.000000
2.040000	105.110000	70.410000	644.000000	0.000000	265.000000	52.000000	7.000000	-23.000000
2.050000	105.170000	70.070000	658.000000	0.000000	265.000000	52.000000	6.000000	-34.000000
2.060000	105.310000	69.470000	655.000000	0.000000	264.000000	52.000000	14.000000	-60.000000
2.070000	105.510000	68.940000	649.000000	0.000000	265.000000	52.000000	20.000000	-53.000000
2.080000	105.670000	68.460000	625.000000	0.000000	265.000000	52.000000	16.000000	-48.000000
2.090000	105.810000	68.180000	559.000000	0.000000	266.000000	52.000000	14.000000	-28.000000
2.100000	105.950000	68.060000	448.000000	0.000000	267.000000	53.000000	14.000000	-12.000000
2.110000	106.060000	68.060000	279.000000	0.000000	267.000000	53.000000	11.000000	0.000000
2.120000	106.270000	68.220000	137.000000	0.000000	269.000000	53.000000	21.000000	16.000000
2.130000	106.540000	68.570000	137.000000	0.000000	270.000000	54.000000	27.000000	35.000000
2.140000	106.770000	69.040000	110.000000	0.000000	270.000000	54.000000	23.000000	47.000000
2.150000	107.060000	69.430000	129.000000	0.000000	270.000000	54.000000	29.000000	39.000000
2.160000	107.390000	69.850000	160.000000	0.000000	270.000000	54.000000	33.000000	42.000000
2.170000	107.730000	70.280000	210.000000	0.000000	270.000000	54.000000	34.000000	43.000000
2.180000	107.940000	70.720000	222.000000	0.000000	269.000000	54.000000	21.000000	44.000000
