t	x	y	pressure	penup	azimuth	inclination	v_x	v_y
0.000000	13.550000	48.860000	47.000000	1.000000	145.000000	53.000000	0.000000	0.000000
0.010000	13.550000	48.860000	120.000000	0.000000	145.000000	53.000000	0.000000	0.000000
0.020000	13.550000	48.860000	190.000000	0.000000	145.000000	53.000000	0.000000	0.000000
0.030000	13.550000	48.860000	237.000000	0.000000	145.000000	53.000000	0.000000	0.000000
0.040000	13.550000	48.860000	267.000000	0.000000	145.000000	53.000000	0.000000	0.000000
0.050000	13.390000	48.860000	281.000000	0.000000	145.000000	53.000000	-16.000000	0.000000
0.060000	13.750000	48.970000	314.000000	0.000000	145.000000	53.000000	36.000000	11.000000
0.070000	14.240000	49.150000	345.000000	0.000000	145.000000	53.000000	49.000000	18.000000
0.080000	14.790000	49.290000	351.000000	0.000000	145.000000	53.000000	55.000000	14.000000
0.090000	15.360000	49.370000	359.000000	0.000000	145.000000	53.000000	57.000000	8.000000
0.100000	15.700000	49.370000	354.000000	0.000000	145.000000	53.000000	34.000000	0.000000
0.110000	15.870000	49.320000	353.000000	0.000000	145.000000	53.000000	17.000000	-5.000000
0.120000	15.870000	49.320000	356.000000	0.000000	146.000000	53.000000	0.000000	0.000000
0.130000	15.870000	49.220000	359.000000	0.000000	147.000000	52.000000	0.000000	-10.000000
0.140000	15.820000	49.110000	359.000000	0.000000	147.000000	52.000000	-5.000000	-11.000000
0.150000	15.740000	48.940000	361.000000	0.000000	147.000000	52.000000	-8.000000	-17.000000
0.160000	15.690000	48.760000	361.000000	0.000000	147.000000	52.000000	-5.000000	-18.000000
0.170000	15.790000	48.580000	363.000000	0.000000	147.000000	52.000000	10.000000	-18.000000
0.180000	15.990000	48.320000	361.000000	0.000000	147.000000	52.000000	20.000000	-26.000000
0.190000	16.390000	48.030000	364.000000	0.000000	147.000000	52.000000	40.000000	-29.000000
0.200000	16.780000	47.710000	368.000000	0.000000	146.000000	53.000000	39.000000	-32.000000
0.210000	17.140000	47.430000	366.000000	0.000000	146.000000	53.000000	36.000000	-28.000000
0.220000	17.370000	47.230000	382.000000	0.000000	146.000000	53.000000	23.000000	-20.000000
0.230000	17.530000	47.070000	433.000000	0.000000	146.000000	53.000000	16.000000	-16.000000
0.240000	17.530000	46.930000	495.000000	0.000000	147.000000	53.000000	0.000000	-14.000000
0.250000	17.270000	46.740000	519.000000	0.000000	147.000000	53.000000	-26.000000	-19.000000
0.260000	16.940000	46.490000	538.000000	0.000000	146.000000	54.000000	-33.000000	-25.000000
0.270000	16.360000	46.230000	540.000000	0.000000	146.000000	54.000000	-58.000000	-26.000000
0.280000	15.800000	46.060000	516.000000	0.000000	146.000000	54.000000	-56.000000	-17.000000
0.290000	15.270000	45.940000	450.000000	0.000000	145.000000	55.000000	-53.000000	-12.000000
0.300000	14.930000	45.940000	299.000000	0.000000	145.000000	55.000000	-34.000000	0.000000
0.310000	14.700000	46.140000	65.000000	0.000000	144.000000	56.000000	-23.000000	20.000000
0.320000	14.700000	46.140000	0.000000	1.000000	144.000000	56.000000	0.000000	0.000000
0.330000	14.940000	46.670000	0.000000	0.000000	143.000000	55.000000	24.000000	53.000000
0.340000	15.270000	46.970000	0.000000	0.000000	143.000000	55.000000	33.000000	30.000000
0.350000	15.750000	47.240000	0.000000	0.000000	143.000000	55.000000	48.000000	27.000000
0.360000	16.290000	47.520000	0.000000	0.000000	144.000000	54.000000	54.000000	28.000000
0.370000	16.890000	47.790000	0.000000	0.000000	144.000000	54.000000	60.000000	27.000000
0.380000	17.500000	47.980000	0.000000	0.000000	146.000000	54.000000	61.000000	19.000000
0.390000	18.070000	48.100000	0.000000	0.000000	146.000000	54.000000	57.000000	12.000000
0.400000	18.510000	48.150000	0.000000	0.000000	147.000000	53.000000	44.000000	5.000000
0.410000	18.510000	48.150000	122.000000	1.000000	148.000000	54.000000	0.000000	0.000000
0.420000	18.510000	48.150000	170.000000	0.000000	149.000000	53.000000	0.000000	0.000000
0.430000	18.510000	48.150000	281.000000	0.000000	151.000000	53.000000	0.000000	0.000000
0.440000	18.510000	48.150000	371.000000	0.000000	151.000000	53.000000	0.000000	0.000000
0.450000	18.020000	47.850000	392.000000	0.000000	152.000000	53.000000	-49.000000	-30.000000
0.460000	17.790000	47.620000	438.000000	0.000000	151.000000	53.000000	-23.000000	-23.000000
0.470000	17.560000	47.290000	461.000000	0.000000	151.000000	53.000000	-23.000000	-33.000000
0.480000	17.340000	47.000000	473.000000	0.000000	149.000000	53.000000	-22.000000	-29.000000
0.490000	17.340000	46.740000	477.000000	0.000000	148.000000	54.000000	0.000000	-26.000000
0.500000	17.470000	46.550000	488.000000	0.000000	148.000000	54.000000	13.000000	-19.000000
0.510000	17.700000	46.550000	496.000000	0.000000	147.000000	53.000000	23.000000	0.000000
0.520000	18.050000	46.610000	501.000000	0.000000	146.000000	54.000000	35.000000	6.000000
0.530000	18.410000	46.840000	505.000000	0.000000	146.000000	54.000000	36.000000	23.000000
0.540000	18.760000	47.100000	475.000000	0.000000	146.000000	54.000000	35.000000	26.000000
0.550000	18.970000	47.370000	305.000000	0.000000	146.000000	54.000000	21.000000	27.000000
0.560000	18.970000	47.370000	0.000000	1.000000	147.000000	55.000000	0.000000	0.000000
0.570000	19.230000	47.900000	0.000000	0.000000	147.000000	55.000000	26.000000	53.000000
0.580000	19.360000	48.180000	0.000000	0.000000	147.000000	55.000000	13.000000	28.000000
0.590000	19.450000	48.290000	0.000000	0.000000	147.000000	55.000000	9.000000	11.000000
0.600000	19.450000	48.290000	0.000000	0.000000	148.000000	54.000000	0.000000	0.000000
0.610000	19.790000	48.620000	0.000000	0.000000	148.000000	54.000000	34.000000	33.000000
0.620000	20.070000	48.620000	0.000000	0.000000	147.000000	53.000000	28.000000	0.000000
0.630000	20.350000	48.570000	0.000000	0.000000	146.000000	53.000000	28.000000	-5.000000
0.640000	20.350000	48.570000	184.000000	1.000000	146.000000	53.000000	0.000000	0.000000
0.650000	20.350000	48.570000	176.000000	0.000000	146.000000	53.000000	0.000000	0.000000
0.660000	20.350000	48.570000	274.000000	0.000000	143.000000	53.000000	0.000000	0.000000
0.670000	20.350000	48.570000	311.000000	0.000000	143.000000	53.000000	0.000000	0.000000
0.680000	19.990000	48.420000	334.000000	0.000000	143.000000	53.000000	-36.000000	-15.000000
0.690000	19.810000	48.300000	339.000000	0.000000	143.000000	53.000000	-18.000000	-12.000000
0.700000	19.700000	48.130000	343.000000	0.000000	146.000000	53.000000	-11.000000	-17.000000
0.710000	19.700000	47.970000	344.000000	0.000000	146.000000	53.000000	0.000000	-16.000000
0.720000	19.750000	47.850000	348.000000	0.000000	146.000000	53.000000	5.000000	-12.000000
0.730000	19.910000	47.650000	354.000000	0.000000	146.000000	53.000000	16.000000	-20.000000
0.740000	20.140000	47.530000	362.000000	0.000000	147.000000	53.000000	23.000000	-12.000000
0.750000	20.360000	47.460000	367.000000	0.000000	147.000000	53.000000	22.000000	-7.000000
0.760000	20.360000	47.460000	379.000000	0.000000	147.000000	53.000000	0.000000	0.000000
0.770000	20.630000	47.360000	387.000000	0.000000	147.000000	53.000000	27.000000	-10.000000
0.780000	20.630000	47.300000	396.000000	0.000000	147.000000	53.000000	0.000000	-6.000000
0.790000	20.630000	47.210000	412.000000	0.000000	147.000000	53.000000	0.000000	-9.000000
0.800000	20.380000	47.080000	407.000000	0.000000	147.000000	53.000000	-25.000000	-13.000000
0.810000	20.150000	46.960000	351.000000	0.000000	147.000000	53.000000	-23.000000	-12.000000
0.820000	19.910000	46.910000	129.000000	0.000000	146.000000	54.000000	-24.000000	-5.000000
0.830000	19.910000	46.910000	0.000000	1.000000	146.000000	54.000000	0.000000	0.000000
0.840000	19.470000	46.990000	0.000000	0.000000	146.000000	54.000000	-44.000000	8.000000
0.850000	19.310000	47.240000	0.000000	0.000000	146.000000	54.000000	-16.000000	25.000000
0.860000	19.310000	47.600000	0.000000	0.000000	146.000000	54.000000	0.000000	36.000000
0.870000	19.490000	48.030000	0.000000	0.000000	146.000000	54.000000	18.000000	43.000000
0.880000	19.880000	48.410000	0.000000	0.000000	146.000000	54.000000	39.000000	38.000000
0.890000	20.280000	48.580000	0.000000	0.000000	146.000000	53.000000	40.000000	17.000000
0.900000	20.700000	48.630000	0.000000	0.000000	146.000000	53.000000	42.000000	5.000000
0.910000	21.000000	48.630000	0.000000	0.000000	145.000000	53.000000	30.000000	0.000000
0.920000	21.220000	48.380000	0.000000	0.000000	145.000000	53.000000	22.000000	-25.000000
0.930000	21.220000	48.380000	203.000000	1.000000	145.000000	53.000000	0.000000	0.000000
0.940000	21.340000	47.880000	207.000000	0.000000	143.000000	52.000000	12.000000	-50.000000
0.950000	21.270000	47.800000	216.000000	0.000000	143.000000	52.000000	-7.000000	-8.000000
0.960000	21.370000	47.800000	265.000000	0.000000	143.000000	52.000000	10.000000	0.000000
0.970000	21.510000	47.800000	277.000000	0.000000	145.000000	53.000000	14.000000	0.000000
0.980000	21.740000	47.800000	289.000000	0.000000	145.000000	53.000000	23.000000	0.000000
0.990000	22.000000	47.880000	291.000000	0.000000	145.000000	53.000000	26.000000	8.000000
1.000000	22.320000	48.030000	291.000000	0.000000	145.000000	53.000000	32.000000	15.000000
1.010000	22.450000	48.160000	292.000000	0.000000	146.000000	52.000000	13.000000	13.000000
1.020000	22.450000	48.270000	291.000000	0.000000	146.000000	52.000000	0.000000	11.000000
1.030000	22.370000	48.410000	282.000000	0.000000	146.000000	52.000000	-8.000000	14.000000
1.040000	22.180000	48.510000	284.000000	0.000000	145.000000	53.000000	-19.000000	10.000000
1.050000	21.900000	48.510000	286.000000	0.000000	145.000000	53.000000	-28.000000	0.000000
1.060000	21.610000	48.510000	292.000000	0.000000	143.000000	52.000000	-29.000000	0.000000
1.070000	21.320000	48.340000	316.000000	0.000000	143.000000	52.000000	-29.000000	-17.000000
1.080000	21.090000	48.110000	307.000000	0.000000	143.000000	52.000000	-23.000000	-23.000000
1.090000	20.940000	47.890000	305.000000	0.000000	143.000000	52.000000	-15.000000	-22.000000
1.100000	20.940000	47.680000	304.000000	0.000000	143.000000	52.000000	0.000000	-21.000000
1.110000	21.100000	47.510000	284.000000	0.000000	143.000000	52.000000	16.000000	-17.000000
1.120000	21.380000	47.340000	226.000000	0.000000	145.000000	53.000000	28.000000	-17.000000
1.130000	21.690000	47.260000	117.000000	0.000000	145.000000	53.000000	31.000000	-8.000000
1.140000	21.690000	47.260000	0.000000	1.000000	145.000000	53.000000	0.000000	0.000000
1.150000	22.480000	47.370000	0.000000	0.000000	145.000000	53.000000	79.000000	11.000000
1.160000	22.910000	47.670000	0.000000	0.000000	145.000000	53.000000	43.000000	30.000000
1.170000	23.280000	48.070000	0.000000	0.000000	145.000000	53.000000	37.000000	40.000000
1.180000	23.600000	48.510000	0.000000	0.000000	145.000000	53.000000	32.000000	44.000000
1.190000	24.010000	48.960000	0.000000	0.000000	145.000000	53.000000	41.000000	45.000000
1.200000	24.360000	49.430000	0.000000	0.000000	145.000000	53.000000	35.000000	47.000000
1.210000	24.660000	49.880000	0.000000	0.000000	143.000000	52.000000	30.000000	45.000000
1.220000	24.800000	50.310000	0.000000	0.000000	143.000000	52.000000	14.000000	43.000000
1.230000	24.900000	50.740000	0.000000	0.000000	143.000000	52.000000	10.000000	43.000000
1.240000	24.900000	50.740000	170.000000	1.000000	144.000000	51.000000	0.000000	0.000000
1.250000	24.920000	51.250000	237.000000	0.000000	144.000000	51.000000	2.000000	51.000000
1.260000	24.920000	51.460000	282.000000	0.000000	145.000000	51.000000	0.000000	21.000000
1.270000	24.920000	51.460000	329.000000	0.000000	144.000000	50.000000	0.000000	0.000000
1.280000	24.920000	51.370000	334.000000	0.000000	144.000000	50.000000	0.000000	-9.000000
1.290000	24.920000	51.120000	351.000000	0.000000	145.000000	50.000000	0.000000	-25.000000
1.300000	24.870000	50.740000	362.000000	0.000000	145.000000	50.000000	-5.000000	-38.000000
1.310000	24.820000	50.250000	397.000000	0.000000	145.000000	50.000000	-5.000000	-49.000000
1.320000	24.770000	49.700000	428.000000	0.000000	145.000000	50.000000	-5.000000	-55.000000
1.330000	24.770000	49.270000	440.000000	0.000000	144.000000	50.000000	0.000000	-43.000000
1.340000	24.770000	48.910000	473.000000	0.000000	144.000000	50.000000	0.000000	-36.000000
1.350000	24.720000	48.610000	474.000000	0.000000	144.000000	50.000000	-5.000000	-30.000000
1.360000	24.720000	48.380000	473.000000	0.000000	143.000000	51.000000	0.000000	-23.000000
1.370000	24.720000	48.140000	477.000000	0.000000	144.000000	51.000000	0.000000	-24.000000
1.380000	24.720000	48.020000	486.000000	0.000000	143.000000	52.000000	0.000000	-12.000000
1.390000	24.780000	48.020000	493.000000	0.000000	143.000000	52.000000	6.000000	0.000000
1.400000	24.830000	47.970000	489.000000	0.000000	143.000000	52.000000	5.000000	-5.000000
1.410000	24.910000	47.970000	495.000000	0.000000	143.000000	52.000000	8.000000	0.000000
1.420000	25.080000	47.970000	488.000000	0.000000	145.000000	53.000000	17.000000	0.000000
1.430000	25.290000	48.050000	440.000000	0.000000	145.000000	53.000000	21.000000	8.000000
1.440000	25.540000	48.180000	312.000000	0.000000	145.000000	53.000000	25.000000	13.000000
1.450000	25.790000	48.320000	177.000000	0.000000	146.000000	52.000000	25.000000	14.000000
1.460000	26.010000	48.480000	63.000000	0.000000	145.000000	53.000000	22.000000	16.000000
1.470000	26.010000	48.480000	0.000000	1.000000	145.000000	53.000000	0.000000	0.000000
1.480000	26.360000	48.670000	0.000000	0.000000	145.000000	53.000000	35.000000	19.000000
1.490000	26.500000	48.830000	0.000000	0.000000	145.000000	53.000000	14.000000	16.000000
1.500000	26.640000	49.030000	0.000000	0.000000	145.000000	53.000000	14.000000	20.000000
1.510000	26.780000	49.240000	0.000000	0.000000	146.000000	53.000000	14.000000	21.000000
1.520000	26.920000	49.450000	0.000000	0.000000	146.000000	53.000000	14.000000	21.000000
1.530000	26.920000	49.450000	5.000000	0.000000	146.000000	53.000000	0.000000	0.000000
1.540000	27.130000	49.800000	71.000000	1.000000	147.000000	53.000000	0.000000	0.000000
1.550000	27.130000	49.870000	120.000000	0.000000	148.000000	53.000000	0.000000	7.000000
1.560000	27.130000	49.870000	175.000000	0.000000	148.000000	53.000000	0.000000	0.000000
1.570000	27.130000	49.770000	215.000000	0.000000	148.000000	53.000000	0.000000	-10.000000
1.580000	27.080000	49.590000	225.000000	0.000000	148.000000	53.000000	-5.000000	-18.000000
1.590000	27.080000	49.350000	275.000000	0.000000	148.000000	53.000000	0.000000	-24.000000
1.600000	27.080000	49.070000	302.000000	0.000000	148.000000	53.000000	0.000000	-28.000000
1.610000	27.180000	48.830000	317.000000	0.000000	148.000000	53.000000	10.000000	-24.000000
1.620000	27.290000	48.620000	343.000000	0.000000	148.000000	53.000000	11.000000	-21.000000
1.630000	27.410000	48.500000	369.000000	0.000000	148.000000	53.000000	12.000000	-12.000000
1.640000	27.560000	48.500000	405.000000	0.000000	148.000000	53.000000	15.000000	0.000000
1.650000	27.720000	48.500000	417.000000	0.000000	148.000000	53.000000	16.000000	0.000000
1.660000	27.920000	48.740000	418.000000	0.000000	149.000000	53.000000	20.000000	24.000000
1.670000	28.140000	49.010000	428.000000	0.000000	149.000000	53.000000	22.000000	27.000000
1.680000	28.240000	49.310000	438.000000	0.000000	149.000000	53.000000	10.000000	30.000000
1.690000	28.240000	49.570000	443.000000	0.000000	151.000000	53.000000	0.000000	26.000000
1.700000	28.240000	49.840000	414.000000	0.000000	151.000000	53.000000	0.000000	27.000000
1.710000	28.240000	50.080000	359.000000	0.000000	151.000000	53.000000	0.000000	24.000000
1.720000	28.240000	50.240000	168.000000	0.000000	151.000000	53.000000	0.000000	16.000000
1.730000	28.240000	50.240000	0.000000	1.000000	151.000000	53.000000	0.000000	0.000000
1.740000	28.180000	50.390000	0.000000	0.000000	152.000000	53.000000	-6.000000	15.000000
1.750000	28.180000	50.390000	0.000000	0.000000	152.000000	53.000000	0.000000	0.000000
1.760000	28.250000	50.480000	0.000000	0.000000	153.000000	53.000000	7.000000	9.000000
1.770000	28.390000	50.540000	0.000000	0.000000	153.000000	53.000000	14.000000	6.000000
1.780000	28.390000	50.540000	136.000000	1.000000	153.000000	53.000000	0.000000	0.000000
1.790000	28.660000	50.370000	180.000000	0.000000	153.000000	53.000000	27.000000	-17.000000
1.800000	28.710000	50.270000	249.000000	0.000000	155.000000	52.000000	5.000000	-10.000000
1.810000	28.710000	50.190000	327.000000	0.000000	155.000000	52.000000	0.000000	-8.000000
1.820000	28.790000	50.070000	371.000000	0.000000	154.000000	53.000000	8.000000	-12.000000
1.830000	28.850000	49.930000	377.000000	0.000000	154.000000	53.000000	6.000000	-14.000000
1.840000	28.900000	49.770000	387.000000	0.000000	154.000000	53.000000	5.000000	-16.000000
1.850000	28.900000	49.560000	384.000000	0.000000	154.000000	53.000000	0.000000	-21.000000
1.860000	29.010000	49.370000	366.000000	0.000000	154.000000	53.000000	11.000000	-19.000000
1.870000	29.100000	49.200000	272.000000	0.000000	154.000000	53.000000	9.000000	-17.000000
1.880000	29.240000	49.140000	98.000000	0.000000	154.000000	53.000000	14.000000	-6.000000
1.890000	29.240000	49.140000	0.000000	1.000000	154.000000	53.000000	0.000000	0.000000
1.900000	29.600000	49.270000	0.000000	0.000000	153.000000	54.000000	36.000000	13.000000
1.910000	29.810000	49.470000	0.000000	0.000000	153.000000	54.000000	21.000000	20.000000
1.920000	30.010000	49.690000	0.000000	0.000000	152.000000	54.000000	20.000000	22.000000
1.930000	30.270000	49.930000	0.000000	0.000000	152.000000	54.000000	26.000000	24.000000
1.940000	30.550000	50.170000	0.000000	0.000000	152.000000	54.000000	28.000000	24.000000
1.950000	30.840000	50.410000	0.000000	0.000000	151.000000	53.000000	29.000000	24.000000
1.960000	30.840000	50.410000	0.000000	0.000000	152.000000	53.000000	0.000000	0.000000
1.970000	30.840000	50.410000	51.000000	1.000000	152.000000	53.000000	0.000000	0.000000
1.980000	31.050000	51.040000	66.000000	0.000000	150.000000	52.000000	21.000000	63.000000
1.990000	30.960000	51.150000	109.000000	0.000000	150.000000	52.000000	-9.000000	11.000000
2.000000	30.770000	51.200000	167.000000	0.000000	151.000000	51.000000	-19.000000	5.000000
2.010000	30.530000	51.200000	188.000000	0.000000	151.000000	51.000000	-24.000000	0.000000
2.020000	30.270000	51.080000	233.000000	0.000000	151.000000	51.000000	-26.000000	-12.000000
2.030000	29.990000	50.920000	245.000000	0.000000	151.000000	51.000000	-28.000000	-16.000000
2.040000	29.810000	50.740000	269.000000	0.000000	151.000000	51.000000	-18.000000	-18.000000
2.050000	29.760000	50.570000	275.000000	0.000000	151.000000	51.000000	-5.000000	-17.000000
2.060000	29.760000	50.390000	284.000000	0.000000	151.000000	51.000000	0.000000	-18.000000
2.070000	29.940000	50.240000	307.000000	0.000000	151.000000	51.000000	18.000000	-15.000000
2.080000	30.220000	50.140000	361.000000	0.000000	151.000000	51.000000	28.000000	-10.000000
2.090000	30.590000	50.090000	410.000000	0.000000	150.000000	52.000000	37.000000	-5.000000
2.100000	30.930000	49.990000	444.000000	0.000000	150.000000	52.000000	34.000000	-10.000000
2.110000	31.090000	49.890000	472.000000	0.000000	150.000000	52.000000	16.000000	-10.000000
2.120000	31.090000	49.780000	491.000000	0.000000	150.000000	52.000000	0.000000	-11.000000
2.130000	31.090000	49.630000	499.000000	0.000000	150.000000	52.000000	0.000000	-15.000000
2.140000	30.900000	49.430000	495.000000	0.000000	150.000000	52.000000	-19.000000	-20.000000
2.150000	30.660000	49.190000	368.000000	0.000000	150.000000	52.000000	-24.000000	-24.000000
2.160000	30.660000	49.190000	0.000000	1.000000	152.000000	53.000000	0.000000	0.000000
2.170000	29.560000	48.630000	0.000000	0.000000	151.000000	53.000000	-110.000000	-56.000000
2.180000	28.820000	48.630000	0.000000	0.000000	151.000000	53.000000	-74.000000	0.000000
2.190000	27.950000	48.870000	0.000000	0.000000	151.000000	53.000000	-87.000000	24.000000
2.200000	27.020000	49.000000	0.000000	0.000000	151.000000	53.000000	-93.000000	13.000000
2.210000	25.940000	49.200000	0.000000	0.000000	150.000000	54.000000	-108.000000	20.000000
2.220000	24.770000	49.440000	0.000000	0.000000	150.000000	54.000000	-117.000000	24.000000
