t	x	y	pressure	penup	azimuth	inclination	v_x	v_y
0.000000	92.430000	47.570000	165.000000	1.000000	264.000000	52.000000	0.000000	0.000000
0.010000	91.570000	49.650000	216.000000	0.000000	262.000000	53.000000	-86.000000	208.000000
0.020000	91.570000	50.240000	253.000000	0.000000	262.000000	53.000000	0.000000	59.000000
0.030000	91.990000	50.500000	282.000000	0.000000	261.000000	53.000000	42.000000	26.000000
0.040000	91.920000	50.500000	344.000000	0.000000	259.000000	53.000000	-7.000000	0.000000
0.050000	91.850000	50.420000	371.000000	0.000000	258.000000	53.000000	-7.000000	-8.000000
0.060000	91.850000	49.940000	388.000000	0.000000	256.000000	54.000000	0.000000	-48.000000
0.070000	91.960000	49.230000	440.000000	0.000000	255.000000	55.000000	11.000000	-71.000000
0.080000	92.200000	48.180000	473.000000	0.000000	255.000000	55.000000	24.000000	-105.000000
0.090000	92.700000	47.070000	504.000000	0.000000	255.000000	55.000000	50.000000	-111.000000
0.100000	93.370000	45.820000	519.000000	0.000000	255.000000	55.000000	67.000000	-125.000000
0.110000	94.260000	44.500000	565.000000	0.000000	256.000000	54.000000	89.000000	-132.000000
0.120000	95.220000	43.330000	583.000000	0.000000	257.000000	54.000000	96.000000	-117.000000
0.130000	96.220000	42.320000	613.000000	0.000000	257.000000	54.000000	100.000000	-101.000000
0.140000	97.040000	41.420000	619.000000	0.000000	259.000000	53.000000	82.000000	-90.000000
0.150000	97.370000	40.840000	614.000000	0.000000	259.000000	53.000000	33.000000	-58.000000
0.160000	97.370000	40.410000	586.000000	0.000000	259.000000	53.000000	0.000000	-43.000000
0.170000	97.120000	40.090000	570.000000	0.000000	259.000000	54.000000	-25.000000	-32.000000
0.180000	96.470000	39.690000	546.000000	0.000000	259.000000	54.000000	-65.000000	-40.000000
0.190000	95.540000	39.480000	539.000000	0.000000	259.000000	54.000000	-93.000000	-21.000000
0.200000	94.340000	39.400000	542.000000	0.000000	259.000000	54.000000	-120.000000	-8.000000
0.210000	93.160000	39.320000	546.000000	0.000000	258.000000	55.000000	-118.000000	-8.000000
0.220000	92.000000	39.270000	557.000000	0.000000	258.000000	55.000000	-116.000000	-5.000000
0.230000	90.910000	39.270000	567.000000	0.000000	258.000000	55.000000	-109.000000	0.000000
0.240000	90.120000	39.270000	572.000000	0.000000	260.000000	56.000000	-79.000000	0.000000
0.250000	89.540000	39.270000	622.000000	0.000000	260.000000	56.000000	-58.000000	0.000000
0.260000	89.450000	39.320000	672.000000	0.000000	260.000000	56.000000	-9.000000	5.000000
0.270000	89.740000	39.490000	696.000000	0.000000	260.000000	56.000000	29.000000	17.000000
0.280000	90.290000	40.100000	714.000000	0.000000	259.000000	57.000000	55.000000	61.000000
0.290000	91.580000	41.010000	691.000000	0.000000	259.000000	57.000000	129.000000	91.000000
0.300000	93.500000	42.400000	670.000000	0.000000	260.000000	56.000000	192.000000	139.000000
0.310000	95.850000	44.390000	661.000000	0.000000	260.000000	56.000000	235.000000	199.000000
0.320000	98.910000	46.790000	643.000000	0.000000	260.000000	55.000000	306.000000	240.000000
0.330000	102.430000	49.530000	659.000000	0.000000	260.000000	55.000000	352.000000	274.000000
0.340000	106.250000	51.770000	678.000000	0.000000	260.000000	55.000000	382.000000	224.000000
0.350000	108.630000	53.690000	691.000000	0.000000	259.000000	53.000000	238.000000	192.000000
0.360000	109.710000	54.240000	707.000000	0.000000	258.000000	53.000000	108.000000	55.000000
0.370000	109.910000	54.450000	702.000000	0.000000	258.000000	53.000000	20.000000	21.000000
0.380000	110.050000	54.450000	673.000000	0.000000	257.000000	52.000000	14.000000	0.000000
0.390000	109.990000	54.390000	603.000000	0.000000	256.000000	52.000000	-6.000000	-6.000000
0.400000	109.790000	54.320000	491.000000	0.000000	256.000000	52.000000	-20.000000	-7.000000
0.410000	109.050000	53.750000	223.000000	0.000000	256.000000	52.000000	-74.000000	-57.000000
0.420000	109.050000	53.750000	0.000000	1.000000	254.000000	52.000000	0.000000	0.000000
0.430000	106.170000	51.970000	0.000000	0.000000	254.000000	52.000000	-288.000000	-178.000000
0.440000	104.790000	51.170000	0.000000	0.000000	254.000000	52.000000	-138.000000	-80.000000
0.450000	103.510000	50.430000	0.000000	0.000000	256.000000	51.000000	-128.000000	-74.000000
0.460000	102.290000	49.550000	0.000000	0.000000	256.000000	51.000000	-122.000000	-88.000000
0.470000	100.720000	48.700000	0.000000	0.000000	258.000000	50.000000	-157.000000	-85.000000
0.480000	99.530000	47.880000	0.000000	0.000000	258.000000	50.000000	-119.000000	-82.000000
0.490000	98.580000	47.190000	0.000000	0.000000	259.000000	50.000000	-95.000000	-69.000000
0.500000	97.840000	46.660000	0.000000	0.000000	260.000000	50.000000	-74.000000	-53.000000
0.510000	96.970000	46.240000	0.000000	0.000000	262.000000	50.000000	-87.000000	-42.000000
0.520000	96.020000	45.930000	0.000000	0.000000	263.000000	50.000000	-95.000000	-31.000000
0.530000	96.250000	45.710000	0.000000	0.000000	263.000000	50.000000	23.000000	-22.000000
0.540000	96.250000	45.710000	60.000000	1.000000	264.000000	50.000000	0.000000	0.000000
0.550000	95.880000	45.620000	131.000000	0.000000	264.000000	50.000000	-37.000000	-9.000000
0.560000	96.060000	45.830000	203.000000	0.000000	265.000000	50.000000	18.000000	21.000000
0.570000	96.210000	46.140000	262.000000	0.000000	265.000000	51.000000	15.000000	31.000000
0.580000	96.300000	46.430000	304.000000	0.000000	265.000000	51.000000	9.000000	29.000000
0.590000	96.300000	46.510000	344.000000	0.000000	265.000000	51.000000	0.000000	8.000000
0.600000	96.350000	46.450000	356.000000	0.000000	265.000000	51.000000	5.000000	-6.000000
0.610000	96.300000	46.330000	398.000000	0.000000	265.000000	51.000000	-5.000000	-12.000000
0.620000	96.240000	46.180000	438.000000	0.000000	265.000000	51.000000	-6.000000	-15.000000
0.630000	96.240000	45.990000	491.000000	0.000000	265.000000	52.000000	0.000000	-19.000000
0.640000	96.240000	45.900000	537.000000	0.000000	265.000000	52.000000	0.000000	-9.000000
0.650000	96.360000	45.900000	542.000000	0.000000	264.000000	52.000000	12.000000	0.000000
0.660000	96.480000	45.780000	551.000000	0.000000	264.000000	52.000000	12.000000	-12.000000
0.670000	96.630000	45.680000	553.000000	0.000000	264.000000	52.000000	15.000000	-10.000000
0.680000	96.800000	45.610000	556.000000	0.000000	265.000000	52.000000	17.000000	-7.000000
0.690000	96.900000	45.680000	545.000000	0.000000	265.000000	52.000000	10.000000	7.000000
0.700000	96.990000	45.830000	537.000000	0.000000	265.000000	52.000000	9.000000	15.000000
0.710000	97.040000	46.070000	537.000000	0.000000	265.000000	52.000000	5.000000	24.000000
0.720000	96.930000	46.310000	536.000000	0.000000	265.000000	52.000000	-11.000000	24.000000
0.730000	96.740000	46.620000	537.000000	0.000000	265.000000	52.000000	-19.000000	31.000000
0.740000	96.400000	46.990000	542.000000	0.000000	264.000000	52.000000	-34.000000	37.000000
0.750000	96.000000	47.270000	539.000000	0.000000	264.000000	52.000000	-40.000000	28.000000
0.760000	95.590000	47.530000	543.000000	0.000000	264.000000	52.000000	-41.000000	26.000000
0.770000	95.180000	47.530000	540.000000	0.000000	262.000000	52.000000	-41.000000	0.000000
0.780000	94.790000	47.440000	539.000000	0.000000	262.000000	52.000000	-39.000000	-9.000000
0.790000	94.530000	47.170000	546.000000	0.000000	262.000000	52.000000	-26.000000	-27.000000
0.800000	94.360000	46.860000	538.000000	0.000000	261.000000	52.000000	-17.000000	-31.000000
0.810000	94.360000	46.480000	509.000000	0.000000	261.000000	51.000000	0.000000	-38.000000
0.820000	94.420000	46.110000	465.000000	0.000000	263.000000	51.000000	6.000000	-37.000000
0.830000	94.590000	45.800000	394.000000	0.000000	263.000000	51.000000	17.000000	-31.000000
0.840000	94.830000	45.650000	223.000000	0.000000	263.000000	51.000000	24.000000	-15.000000
0.850000	95.220000	45.580000	137.000000	0.000000	264.000000	51.000000	39.000000	-7.000000
0.860000	95.720000	45.800000	12.000000	1.000000	264.000000	51.000000	0.000000	0.000000
0.870000	96.360000	46.230000	1.000000	0.000000	265.000000	51.000000	64.000000	43.000000
0.880000	97.090000	46.800000	13.000000	0.000000	265.000000	52.000000	73.000000	57.000000
0.890000	97.880000	47.390000	108.000000	1.000000	265.000000	52.000000	0.000000	0.000000
0.900000	98.570000	47.950000	158.000000	0.000000	265.000000	52.000000	69.000000	56.000000
0.910000	99.030000	48.460000	207.000000	0.000000	263.000000	53.000000	46.000000	51.000000
0.920000	99.340000	48.970000	237.000000	0.000000	263.000000	54.000000	31.000000	51.000000
0.930000	99.490000	49.500000	249.000000	0.000000	262.000000	54.000000	15.000000	53.000000
0.940000	99.440000	49.910000	262.000000	0.000000	260.000000	55.000000	-5.000000	41.000000
0.950000	99.260000	50.260000	269.000000	0.000000	259.000000	54.000000	-18.000000	35.000000
0.960000	98.960000	50.410000	280.000000	0.000000	257.000000	54.000000	-30.000000	15.000000
0.970000	98.650000	50.460000	289.000000	0.000000	255.000000	55.000000	-31.000000	5.000000
0.980000	98.290000	50.400000	310.000000	0.000000	255.000000	55.000000	-36.000000	-6.000000
0.990000	97.930000	50.160000	327.000000	0.000000	254.000000	55.000000	-36.000000	-24.000000
1.000000	97.560000	49.790000	334.000000	0.000000	254.000000	55.000000	-37.000000	-37.000000
1.010000	97.240000	49.400000	353.000000	0.000000	254.000000	55.000000	-32.000000	-39.000000
1.020000	97.070000	49.040000	386.000000	0.000000	254.000000	55.000000	-17.000000	-36.000000
1.030000	97.000000	48.680000	415.000000	0.000000	254.000000	55.000000	-7.000000	-36.000000
1.040000	97.000000	48.500000	469.000000	0.000000	254.000000	54.000000	0.000000	-18.000000
1.050000	97.100000	48.440000	497.000000	0.000000	256.000000	54.000000	10.000000	-6.000000
1.060000	97.230000	48.340000	501.000000	0.000000	256.000000	54.000000	13.000000	-10.000000
1.070000	97.570000	48.240000	507.000000	0.000000	256.000000	54.000000	34.000000	-10.000000
1.080000	98.060000	48.120000	517.000000	0.000000	257.000000	54.000000	49.000000	-12.000000
1.090000	98.640000	48.050000	519.000000	0.000000	257.000000	54.000000	58.000000	-7.000000
1.100000	99.140000	48.050000	537.000000	0.000000	257.000000	54.000000	50.000000	0.000000
1.110000	99.450000	47.760000	537.000000	0.000000	259.000000	54.000000	31.000000	-29.000000
1.120000	99.620000	47.490000	538.000000	0.000000	259.000000	54.000000	17.000000	-27.000000
1.130000	99.670000	47.290000	538.000000	0.000000	260.000000	55.000000	5.000000	-20.000000
1.140000	99.560000	47.150000	535.000000	0.000000	260.000000	54.000000	-11.000000	-14.000000
1.150000	99.350000	46.800000	530.000000	0.000000	260.000000	54.000000	-21.000000	-35.000000
1.160000	98.880000	46.540000	530.000000	0.000000	262.000000	54.000000	-47.000000	-26.000000
1.170000	98.360000	46.340000	527.000000	0.000000	262.000000	53.000000	-52.000000	-20.000000
1.180000	97.750000	46.150000	512.000000	0.000000	262.000000	53.000000	-61.000000	-19.000000
1.190000	97.210000	46.040000	465.000000	0.000000	263.000000	53.000000	-54.000000	-11.000000
1.200000	96.730000	45.990000	396.000000	0.000000	264.000000	52.000000	-48.000000	-5.000000
1.210000	96.430000	45.990000	304.000000	0.000000	264.000000	52.000000	-30.000000	0.000000
1.220000	96.430000	46.090000	233.000000	0.000000	265.000000	52.000000	0.000000	10.000000
1.230000	96.510000	46.280000	230.000000	0.000000	265.000000	52.000000	8.000000	19.000000
1.240000	96.810000	46.580000	235.000000	0.000000	265.000000	52.000000	30.000000	30.000000
1.250000	97.240000	46.870000	273.000000	0.000000	265.000000	52.000000	43.000000	29.000000
1.260000	97.750000	47.130000	311.000000	0.000000	265.000000	52.000000	51.000000	26.000000
1.270000	98.280000	47.400000	344.000000	0.000000	265.000000	52.000000	53.000000	27.000000
1.280000	98.850000	47.750000	354.000000	0.000000	265.000000	53.000000	57.000000	35.000000
1.290000	99.450000	48.170000	359.000000	0.000000	265.000000	53.000000	60.000000	42.000000
1.300000	100.140000	48.700000	373.000000	0.000000	263.000000	53.000000	69.000000	53.000000
1.310000	100.610000	49.200000	373.000000	0.000000	262.000000	53.000000	47.000000	50.000000
1.320000	100.940000	49.540000	361.000000	0.000000	261.000000	53.000000	33.000000	34.000000
1.330000	100.940000	49.780000	361.000000	0.000000	261.000000	53.000000	0.000000	24.000000
1.340000	100.880000	50.060000	362.000000	0.000000	259.000000	53.000000	-6.000000	28.000000
1.350000	100.600000	50.320000	367.000000	0.000000	259.000000	53.000000	-28.000000	26.000000
1.360000	100.170000	50.510000	386.000000	0.000000	258.000000	52.000000	-43.000000	19.000000
1.370000	99.700000	50.580000	412.000000	0.000000	259.000000	51.000000	-47.000000	7.000000
1.380000	99.280000	50.580000	447.000000	0.000000	257.000000	52.000000	-42.000000	0.000000
1.390000	98.880000	50.400000	472.000000	0.000000	257.000000	52.000000	-40.000000	-18.000000
1.400000	98.550000	50.150000	499.000000	0.000000	256.000000	53.000000	-33.000000	-25.000000
1.410000	98.390000	49.820000	538.000000	0.000000	255.000000	53.000000	-16.000000	-33.000000
1.420000	98.330000	49.370000	553.000000	0.000000	254.000000	54.000000	-6.000000	-45.000000
1.430000	98.420000	48.840000	588.000000	0.000000	254.000000	54.000000	9.000000	-53.000000
1.440000	98.650000	48.400000	595.000000	0.000000	255.000000	55.000000	23.000000	-44.000000
1.450000	98.970000	47.950000	594.000000	0.000000	255.000000	55.000000	32.000000	-45.000000
1.460000	99.410000	47.670000	586.000000	0.000000	255.000000	55.000000	44.000000	-28.000000
1.470000	99.910000	47.520000	563.000000	0.000000	257.000000	55.000000	50.000000	-15.000000
1.480000	100.450000	47.610000	510.000000	0.000000	257.000000	54.000000	54.000000	9.000000
1.490000	100.830000	47.830000	371.000000	0.000000	259.000000	54.000000	38.000000	22.000000
1.500000	101.170000	48.140000	182.000000	0.000000	260.000000	54.000000	34.000000	31.000000
1.510000	101.170000	48.140000	0.000000	1.000000	261.000000	53.000000	0.000000	0.000000
1.520000	101.650000	49.490000	0.000000	0.000000	261.000000	52.000000	48.000000	135.000000
1.530000	101.810000	50.360000	0.000000	0.000000	261.000000	51.000000	16.000000	87.000000
1.540000	101.930000	51.330000	0.000000	0.000000	261.000000	51.000000	12.000000	97.000000
1.550000	102.030000	52.400000	0.000000	0.000000	260.000000	51.000000	10.000000	107.000000
1.560000	101.930000	53.550000	0.000000	0.000000	260.000000	51.000000	-10.000000	115.000000
1.570000	101.690000	54.460000	0.000000	0.000000	260.000000	51.000000	-24.000000	91.000000
1.580000	101.530000	55.070000	0.000000	0.000000	260.000000	52.000000	-16.000000	61.000000
1.590000	101.530000	55.070000	148.000000	1.000000	260.000000	52.000000	0.000000	0.000000
1.600000	101.530000	55.670000	212.000000	0.000000	259.000000	53.000000	0.000000	60.000000
1.610000	101.730000	55.670000	319.000000	0.000000	259.000000	53.000000	20.000000	0.000000
1.620000	101.940000	55.450000	382.000000	0.000000	261.000000	53.000000	21.000000	-22.000000
1.630000	102.110000	55.110000	428.000000	0.000000	261.000000	53.000000	17.000000	-34.000000
1.640000	102.240000	54.520000	456.000000	0.000000	261.000000	53.000000	13.000000	-59.000000
1.650000	102.330000	53.760000	465.000000	0.000000	261.000000	53.000000	9.000000	-76.000000
1.660000	102.410000	52.800000	470.000000	0.000000	261.000000	53.000000	8.000000	-96.000000
1.670000	102.410000	51.840000	473.000000	0.000000	260.000000	52.000000	0.000000	-96.000000
1.680000	102.330000	51.010000	478.000000	0.000000	260.000000	51.000000	-8.000000	-83.000000
1.690000	102.130000	50.280000	481.000000	0.000000	260.000000	51.000000	-20.000000	-73.000000
1.700000	101.840000	49.740000	483.000000	0.000000	259.000000	50.000000	-29.000000	-54.000000
1.710000	101.470000	49.320000	485.000000	0.000000	259.000000	50.000000	-37.000000	-42.000000
1.720000	101.070000	48.980000	485.000000	0.000000	259.000000	50.000000	-40.000000	-34.000000
1.730000	100.740000	48.910000	490.000000	0.000000	259.000000	50.000000	-33.000000	-7.000000
1.740000	100.440000	49.080000	499.000000	0.000000	259.000000	50.000000	-30.000000	17.000000
1.750000	100.150000	49.400000	505.000000	0.000000	259.000000	50.000000	-29.000000	32.000000
1.760000	100.040000	49.960000	515.000000	0.000000	259.000000	50.000000	-11.000000	56.000000
1.770000	100.040000	50.470000	546.000000	0.000000	259.000000	50.000000	0.000000	51.000000
1.780000	100.230000	50.940000	561.000000	0.000000	259.000000	51.000000	19.000000	47.000000
1.790000	100.500000	51.210000	605.000000	0.000000	259.000000	51.000000	27.000000	27.000000
1.800000	100.820000	51.210000	628.000000	0.000000	259.000000	51.000000	32.000000	0.000000
1.810000	101.190000	51.100000	652.000000	0.000000	259.000000	51.000000	37.000000	-11.000000
1.820000	101.610000	50.750000	662.000000	0.000000	259.000000	51.000000	42.000000	-35.000000
1.830000	102.060000	50.390000	667.000000	0.000000	257.000000	51.000000	45.000000	-36.000000
1.840000	102.430000	50.050000	669.000000	0.000000	257.000000	51.000000	37.000000	-34.000000
1.850000	102.760000	49.830000	667.000000	0.000000	257.000000	51.000000	33.000000	-22.000000
1.860000	103.010000	49.670000	650.000000	0.000000	258.000000	50.000000	25.000000	-16.000000
1.870000	103.200000	49.670000	616.000000	0.000000	258.000000	50.000000	19.000000	0.000000
1.880000	103.370000	49.730000	520.000000	0.000000	258.000000	49.000000	17.000000	6.000000
1.890000	103.530000	49.930000	438.000000	0.000000	258.000000	49.000000	16.000000	20.000000
1.900000	103.640000	50.290000	382.000000	0.000000	258.000000	49.000000	11.000000	36.000000
1.910000	103.640000	50.670000	340.000000	0.000000	259.000000	48.000000	0.000000	38.000000
1.920000	103.640000	51.070000	332.000000	0.000000	260.000000	49.000000	0.000000	40.000000
1.930000	103.550000	51.460000	334.000000	0.000000	260.000000	49.000000	-9.000000	39.000000
1.940000	103.490000	51.820000	340.000000	0.000000	260.000000	49.000000	-6.000000	36.000000
1.950000	103.420000	52.100000	339.000000	0.000000	260.000000	49.000000	-7.000000	28.000000
1.960000	103.340000	52.330000	373.000000	0.000000	260.000000	49.000000	-8.000000	23.000000
1.970000	103.230000	52.540000	399.000000	0.000000	260.000000	49.000000	-11.000000	21.000000
1.980000	103.230000	52.540000	450.000000	0.000000	260.000000	49.000000	0.000000	0.000000
1.990000	103.230000	52.440000	486.000000	0.000000	260.000000	49.000000	0.000000	-10.000000
2.000000	103.230000	52.130000	519.000000	0.000000	260.000000	49.000000	0.000000	-31.000000
2.010000	103.320000	51.690000	533.000000	0.000000	260.000000	49.000000	9.000000	-44.000000
2.020000	103.490000	51.330000	543.000000	0.000000	260.000000	49.000000	17.000000	-36.000000
2.030000	103.730000	50.980000	562.000000	0.000000	259.000000	48.000000	24.000000	-35.000000
2.040000	103.970000	50.660000	564.000000	0.000000	259.000000	48.000000	24.000000	-32.000000
2.050000	104.220000	50.550000	570.000000	0.000000	259.000000	48.000000	25.000000	-11.000000
2.060000	104.440000	50.550000	564.000000	0.000000	259.000000	47.000000	22.000000	0.000000
2.070000	104.680000	50.670000	553.000000	0.000000	259.000000	47.000000	24.000000	12.000000
2.080000	104.930000	50.880000	545.000000	0.000000	259.000000	47.000000	25.000000	21.000000
2.090000	105.110000	51.150000	536.000000	0.000000	259.000000	47.000000	18.000000	27.000000
2.100000	105.200000	51.450000	538.000000	0.000000	260.000000	48.000000	9.000000	30.000000
2.110000	105.200000	51.740000	533.000000	0.000000	260.000000	48.000000	0.000000	29.000000
2.120000	105.150000	52.050000	530.000000	0.000000	260.000000	49.000000	-5.000000	31.000000
2.130000	105.060000	52.440000	535.000000	0.000000	260.000000	49.000000	-9.000000	39.000000
2.140000	104.920000	52.880000	537.000000	0.000000	260.000000	49.000000	-14.000000	44.000000
2.150000	104.720000	53.370000	535.000000	0.000000	260.000000	49.000000	-20.000000	49.000000
2.160000	104.500000	53.780000	543.000000	0.000000	260.000000	49.000000	-22.000000	41.000000
2.170000	104.390000	53.930000	543.000000	0.000000	259.000000	50.000000	-11.000000	15.000000
2.180000	104.390000	53.930000	560.000000	0.000000	259.000000	50.000000	0.000000	0.000000
