t	x	y	pressure	penup	azimuth	inclination	v_x	v_y
0.000000	54.440000	32.130000	12.000000	1.000000	136.000000	51.000000	0.000000	0.000000
0.010000	54.150000	32.130000	24.000000	1.000000	136.000000	51.000000	0.000000	0.000000
0.020000	54.070000	32.050000	34.000000	0.000000	136.000000	51.000000	-8.000000	-8.000000
0.030000	54.020000	31.970000	51.000000	0.000000	136.000000	51.000000	-5.000000	-8.000000
0.040000	54.020000	31.850000	68.000000	0.000000	136.000000	51.000000	0.000000	-12.000000
0.050000	54.070000	31.640000	61.000000	0.000000	135.000000	51.000000	5.000000	-21.000000
0.060000	54.150000	31.390000	80.000000	0.000000	135.000000	51.000000	8.000000	-25.000000
0.070000	54.290000	31.020000	103.000000	0.000000	135.000000	51.000000	14.000000	-37.000000
0.080000	54.500000	30.560000	96.000000	0.000000	135.000000	51.000000	21.000000	-46.000000
0.090000	54.750000	29.980000	110.000000	0.000000	135.000000	51.000000	25.000000	-58.000000
0.100000	55.020000	29.400000	137.000000	0.000000	134.000000	51.000000	27.000000	-58.000000
0.110000	55.230000	28.800000	136.000000	0.000000	135.000000	52.000000	21.000000	-60.000000
0.120000	55.420000	28.210000	172.000000	0.000000	135.000000	52.000000	19.000000	-59.000000
0.130000	55.480000	27.640000	171.000000	0.000000	135.000000	52.000000	6.000000	-57.000000
0.140000	55.480000	27.060000	188.000000	0.000000	134.000000	52.000000	0.000000	-58.000000
0.150000	55.340000	26.640000	215.000000	0.000000	135.000000	53.000000	-14.000000	-42.000000
0.160000	55.200000	26.320000	244.000000	0.000000	134.000000	54.000000	-14.000000	-32.000000
0.170000	55.020000	26.090000	257.000000	0.000000	133.000000	54.000000	-18.000000	-23.000000
0.180000	54.800000	25.990000	285.000000	0.000000	131.000000	55.000000	-22.000000	-10.000000
0.190000	54.530000	25.990000	327.000000	0.000000	131.000000	55.000000	-27.000000	0.000000
0.200000	54.260000	26.080000	336.000000	0.000000	130.000000	55.000000	-27.000000	9.000000
0.210000	54.000000	26.240000	367.000000	0.000000	129.000000	56.000000	-26.000000	16.000000
0.220000	53.750000	26.440000	389.000000	0.000000	129.000000	56.000000	-25.000000	20.000000
0.230000	53.540000	26.630000	387.000000	0.000000	129.000000	56.000000	-21.000000	19.000000
0.240000	53.400000	26.830000	343.000000	0.000000	127.000000	55.000000	-14.000000	20.000000
0.250000	53.310000	27.050000	259.000000	0.000000	127.000000	55.000000	-9.000000	22.000000
0.260000	53.310000	27.220000	110.000000	0.000000	127.000000	55.000000	0.000000	17.000000
0.270000	53.310000	27.220000	0.000000	1.000000	127.000000	55.000000	0.000000	0.000000
0.280000	53.640000	27.550000	0.000000	0.000000	129.000000	55.000000	33.000000	33.000000
0.290000	53.960000	27.700000	0.000000	0.000000	129.000000	55.000000	32.000000	15.000000
0.300000	54.210000	27.810000	0.000000	0.000000	129.000000	55.000000	25.000000	11.000000
0.310000	54.440000	27.860000	0.000000	0.000000	130.000000	54.000000	23.000000	5.000000
0.320000	54.650000	27.860000	0.000000	0.000000	131.000000	55.000000	21.000000	0.000000
0.330000	55.000000	27.860000	0.000000	0.000000	131.000000	55.000000	35.000000	0.000000
0.340000	55.370000	27.860000	0.000000	0.000000	131.000000	55.000000	37.000000	0.000000
0.350000	55.780000	27.860000	0.000000	0.000000	132.000000	55.000000	41.000000	0.000000
0.360000	56.170000	27.860000	0.000000	0.000000	131.000000	56.000000	39.000000	0.000000
0.370000	56.470000	27.860000	0.000000	0.000000	132.000000	57.000000	30.000000	0.000000
0.380000	56.710000	27.860000	0.000000	0.000000	132.000000	57.000000	24.000000	0.000000
0.390000	56.770000	27.860000	0.000000	0.000000	134.000000	57.000000	6.000000	0.000000
0.400000	56.770000	27.770000	0.000000	0.000000	134.000000	57.000000	0.000000	-9.000000
0.410000	56.620000	27.670000	0.000000	0.000000	135.000000	58.000000	-15.000000	-10.000000
0.420000	56.460000	27.570000	0.000000	0.000000	135.000000	58.000000	-16.000000	-10.000000
0.430000	56.310000	27.500000	0.000000	0.000000	135.000000	58.000000	-15.000000	-7.000000
0.440000	56.200000	27.430000	0.000000	0.000000	135.000000	58.000000	-11.000000	-7.000000
0.450000	56.090000	27.430000	0.000000	0.000000	135.000000	58.000000	-11.000000	0.000000
0.460000	56.040000	27.500000	0.000000	0.000000	135.000000	58.000000	-5.000000	7.000000
0.470000	55.990000	27.500000	0.000000	0.000000	134.000000	57.000000	-5.000000	0.000000
0.480000	55.990000	27.570000	0.000000	0.000000	134.000000	57.000000	0.000000	7.000000
0.490000	55.990000	27.570000	0.000000	0.000000	135.000000	57.000000	0.000000	0.000000
0.500000	55.990000	27.570000	0.000000	0.000000	134.000000	56.000000	0.000000	0.000000
0.510000	55.990000	27.570000	0.000000	0.000000	134.000000	56.000000	0.000000	0.000000
0.520000	56.100000	27.570000	0.000000	0.000000	134.000000	56.000000	11.000000	0.000000
0.530000	56.170000	27.570000	0.000000	0.000000	134.000000	56.000000	7.000000	0.000000
0.540000	56.220000	27.510000	0.000000	0.000000	134.000000	56.000000	5.000000	-6.000000
0.550000	56.220000	27.510000	0.000000	0.000000	134.000000	56.000000	0.000000	0.000000
0.560000	56.330000	27.600000	0.000000	0.000000	134.000000	56.000000	11.000000	9.000000
0.570000	56.420000	27.680000	0.000000	0.000000	134.000000	56.000000	9.000000	8.000000
0.580000	56.530000	27.760000	0.000000	0.000000	135.000000	57.000000	11.000000	8.000000
0.590000	56.640000	27.850000	0.000000	0.000000	135.000000	57.000000	11.000000	9.000000
0.600000	56.760000	27.950000	0.000000	0.000000	135.000000	57.000000	12.000000	10.000000
0.610000	56.860000	28.050000	0.000000	0.000000	135.000000	57.000000	10.000000	10.000000
0.620000	56.980000	28.160000	0.000000	0.000000	135.000000	57.000000	12.000000	11.000000
0.630000	57.100000	28.260000	0.000000	0.000000	138.000000	57.000000	12.000000	10.000000
0.640000	57.240000	28.380000	0.000000	0.000000	138.000000	57.000000	14.000000	12.000000
0.650000	57.370000	28.510000	0.000000	0.000000	138.000000	57.000000	13.000000	13.000000
0.660000	57.460000	28.620000	0.000000	0.000000	139.000000	56.000000	9.000000	11.000000
0.670000	57.510000	28.760000	0.000000	0.000000	139.000000	56.000000	5.000000	14.000000
0.680000	57.510000	28.920000	0.000000	0.000000	139.000000	56.000000	0.000000	16.000000
0.690000	57.510000	29.070000	0.000000	0.000000	139.000000	56.000000	0.000000	15.000000
0.700000	57.510000	29.240000	0.000000	0.000000	140.000000	55.000000	0.000000	17.000000
0.710000	57.510000	29.240000	15.000000	1.000000	140.000000	55.000000	0.000000	0.000000
0.720000	57.360000	29.530000	32.000000	0.000000	140.000000	55.000000	-15.000000	29.000000
0.730000	57.190000	29.670000	81.000000	0.000000	140.000000	55.000000	-17.000000	14.000000
0.740000	57.020000	29.820000	93.000000	0.000000	140.000000	54.000000	-17.000000	15.000000
0.750000	56.780000	29.820000	137.000000	0.000000	140.000000	54.000000	-24.000000	0.000000
0.760000	56.490000	29.820000	167.000000	0.000000	140.000000	54.000000	-29.000000	0.000000
0.770000	56.180000	29.740000	212.000000	0.000000	140.000000	54.000000	-31.000000	-8.000000
0.780000	55.860000	29.550000	245.000000	0.000000	140.000000	54.000000	-32.000000	-19.000000
0.790000	55.530000	29.290000	280.000000	0.000000	139.000000	54.000000	-33.000000	-26.000000
0.800000	55.280000	28.910000	297.000000	0.000000	139.000000	54.000000	-25.000000	-38.000000
0.810000	55.070000	28.460000	302.000000	0.000000	137.000000	53.000000	-21.000000	-45.000000
0.820000	55.070000	28.090000	306.000000	0.000000	137.000000	53.000000	0.000000	-37.000000
0.830000	55.250000	27.730000	309.000000	0.000000	136.000000	54.000000	18.000000	-36.000000
0.840000	55.550000	27.400000	314.000000	0.000000	135.000000	53.000000	30.000000	-33.000000
0.850000	55.900000	27.180000	309.000000	0.000000	135.000000	53.000000	35.000000	-22.000000
0.860000	56.340000	27.020000	317.000000	0.000000	134.000000	54.000000	44.000000	-16.000000
0.870000	56.750000	26.930000	329.000000	0.000000	133.000000	54.000000	41.000000	-9.000000
0.880000	57.130000	27.020000	342.000000	0.000000	134.000000	55.000000	38.000000	9.000000
0.890000	57.480000	27.230000	351.000000	0.000000	134.000000	55.000000	35.000000	21.000000
0.900000	57.780000	27.520000	358.000000	0.000000	134.000000	55.000000	30.000000	29.000000
0.910000	58.040000	27.900000	361.000000	0.000000	134.000000	55.000000	26.000000	38.000000
0.920000	58.150000	28.340000	369.000000	0.000000	135.000000	55.000000	11.000000	44.000000
0.930000	58.150000	28.750000	362.000000	0.000000	135.000000	55.000000	0.000000	41.000000
0.940000	58.150000	29.140000	366.000000	0.000000	136.000000	55.000000	0.000000	39.000000
0.950000	57.900000	29.390000	361.000000	0.000000	136.000000	55.000000	-25.000000	25.000000
0.960000	57.650000	29.550000	307.000000	0.000000	137.000000	54.000000	-25.000000	16.000000
0.970000	57.380000	29.630000	168.000000	0.000000	137.000000	54.000000	-27.000000	8.000000
0.980000	57.380000	29.630000	0.000000	1.000000	137.000000	54.000000	0.000000	0.000000
0.990000	56.860000	29.690000	0.000000	0.000000	139.000000	54.000000	-52.000000	6.000000
1.000000	56.710000	29.690000	0.000000	0.000000	139.000000	54.000000	-15.000000	0.000000
1.010000	56.630000	29.600000	0.000000	0.000000	139.000000	54.000000	-8.000000	-9.000000
1.020000	56.630000	29.550000	0.000000	0.000000	139.000000	54.000000	0.000000	-5.000000
1.030000	56.630000	29.500000	0.000000	0.000000	139.000000	54.000000	0.000000	-5.000000
1.040000	56.880000	29.500000	0.000000	0.000000	139.000000	54.000000	25.000000	0.000000
1.050000	57.230000	29.500000	0.000000	0.000000	139.000000	54.000000	35.000000	0.000000
1.060000	57.810000	29.580000	0.000000	0.000000	139.000000	54.000000	58.000000	8.000000
1.070000	58.390000	29.650000	0.000000	0.000000	139.000000	54.000000	58.000000	7.000000
1.080000	58.880000	29.710000	0.000000	0.000000	139.000000	54.000000	49.000000	6.000000
1.090000	59.310000	29.780000	0.000000	0.000000	139.000000	54.000000	43.000000	7.000000
1.100000	59.570000	29.780000	0.000000	0.000000	139.000000	54.000000	26.000000	0.000000
1.110000	59.740000	29.850000	0.000000	0.000000	139.000000	54.000000	17.000000	7.000000
1.120000	59.850000	29.920000	0.000000	0.000000	139.000000	54.000000	11.000000	7.000000
1.130000	59.910000	29.970000	0.000000	0.000000	139.000000	54.000000	6.000000	5.000000
1.140000	59.970000	30.050000	0.000000	0.000000	140.000000	53.000000	6.000000	8.000000
1.150000	59.970000	30.050000	48.000000	1.000000	140.000000	53.000000	0.000000	0.000000
1.160000	59.970000	30.050000	54.000000	0.000000	141.000000	53.000000	0.000000	0.000000
1.170000	59.950000	30.400000	63.000000	0.000000	141.000000	53.000000	-2.000000	35.000000
1.180000	59.790000	30.470000	73.000000	0.000000	142.000000	54.000000	-16.000000	7.000000
1.190000	59.550000	30.470000	101.000000	0.000000	142.000000	54.000000	-24.000000	0.000000
1.200000	59.240000	30.400000	122.000000	0.000000	144.000000	54.000000	-31.000000	-7.000000
1.210000	58.870000	30.250000	148.000000	0.000000	144.000000	54.000000	-37.000000	-15.000000
1.220000	58.480000	30.040000	160.000000	0.000000	144.000000	54.000000	-39.000000	-21.000000
1.230000	58.140000	29.800000	170.000000	0.000000	144.000000	54.000000	-34.000000	-24.000000
1.240000	57.820000	29.570000	185.000000	0.000000	144.000000	54.000000	-32.000000	-23.000000
1.250000	57.820000	29.410000	184.000000	0.000000	142.000000	54.000000	0.000000	-16.000000
1.260000	57.820000	29.280000	176.000000	0.000000	142.000000	54.000000	0.000000	-13.000000
1.270000	58.050000	29.160000	184.000000	0.000000	142.000000	54.000000	23.000000	-12.000000
1.280000	58.400000	29.030000	180.000000	0.000000	141.000000	53.000000	35.000000	-13.000000
1.290000	58.920000	28.930000	184.000000	0.000000	141.000000	53.000000	52.000000	-10.000000
1.300000	59.480000	28.850000	182.000000	0.000000	141.000000	53.000000	56.000000	-8.000000
1.310000	59.950000	28.740000	170.000000	0.000000	141.000000	53.000000	47.000000	-11.000000
1.320000	60.330000	28.610000	186.000000	0.000000	142.000000	54.000000	38.000000	-13.000000
1.330000	60.490000	28.430000	183.000000	0.000000	142.000000	54.000000	16.000000	-18.000000
1.340000	60.430000	28.220000	198.000000	0.000000	142.000000	54.000000	-6.000000	-21.000000
1.350000	60.210000	27.960000	215.000000	0.000000	143.000000	55.000000	-22.000000	-26.000000
1.360000	59.770000	27.620000	235.000000	0.000000	143.000000	55.000000	-44.000000	-34.000000
1.370000	59.290000	27.230000	242.000000	0.000000	143.000000	55.000000	-48.000000	-39.000000
1.380000	58.790000	26.980000	269.000000	0.000000	141.000000	56.000000	-50.000000	-25.000000
1.390000	58.430000	26.810000	270.000000	0.000000	141.000000	56.000000	-36.000000	-17.000000
1.400000	58.120000	26.810000	270.000000	0.000000	140.000000	56.000000	-31.000000	0.000000
1.410000	58.060000	26.810000	265.000000	0.000000	139.000000	56.000000	-6.000000	0.000000
1.420000	58.140000	26.810000	267.000000	0.000000	138.000000	57.000000	8.000000	0.000000
1.430000	58.360000	27.010000	255.000000	0.000000	138.000000	57.000000	22.000000	20.000000
1.440000	58.750000	27.290000	244.000000	0.000000	138.000000	57.000000	39.000000	28.000000
1.450000	59.240000	27.640000	254.000000	0.000000	136.000000	56.000000	49.000000	35.000000
1.460000	59.870000	28.110000	241.000000	0.000000	136.000000	56.000000	63.000000	47.000000
1.470000	60.500000	28.560000	256.000000	0.000000	138.000000	57.000000	63.000000	45.000000
1.480000	61.130000	28.980000	253.000000	0.000000	139.000000	56.000000	63.000000	42.000000
1.490000	61.650000	29.390000	247.000000	0.000000	139.000000	56.000000	52.000000	41.000000
1.500000	62.110000	29.750000	246.000000	0.000000	140.000000	55.000000	46.000000	36.000000
1.510000	62.400000	30.030000	256.000000	0.000000	141.000000	55.000000	29.000000	28.000000
1.520000	62.480000	30.230000	257.000000	0.000000	141.000000	55.000000	8.000000	20.000000
1.530000	62.410000	30.400000	284.000000	0.000000	141.000000	55.000000	-7.000000	17.000000
1.540000	62.220000	30.540000	302.000000	0.000000	142.000000	54.000000	-19.000000	14.000000
1.550000	61.930000	30.620000	320.000000	0.000000	142.000000	54.000000	-29.000000	8.000000
1.560000	61.560000	30.620000	359.000000	0.000000	142.000000	54.000000	-37.000000	0.000000
1.570000	61.160000	30.530000	372.000000	0.000000	142.000000	54.000000	-40.000000	-9.000000
1.580000	60.760000	30.350000	397.000000	0.000000	143.000000	53.000000	-40.000000	-18.000000
1.590000	60.360000	29.990000	423.000000	0.000000	143.000000	53.000000	-40.000000	-36.000000
1.600000	60.030000	29.620000	417.000000	0.000000	142.000000	54.000000	-33.000000	-37.000000
1.610000	59.910000	29.200000	420.000000	0.000000	142.000000	54.000000	-12.000000	-42.000000
1.620000	59.910000	28.890000	394.000000	0.000000	144.000000	54.000000	0.000000	-31.000000
1.630000	60.250000	28.650000	349.000000	0.000000	144.000000	54.000000	34.000000	-24.000000
1.640000	60.780000	28.550000	225.000000	0.000000	143.000000	55.000000	53.000000	-10.000000
1.650000	61.460000	28.640000	42.000000	0.000000	143.000000	55.000000	68.000000	9.000000
1.660000	61.460000	28.640000	0.000000	1.000000	141.000000	55.000000	0.000000	0.000000
1.670000	62.670000	29.200000	0.000000	0.000000	141.000000	55.000000	121.000000	56.000000
1.680000	63.000000	29.520000	0.000000	0.000000	141.000000	55.000000	33.000000	32.000000
1.690000	63.050000	29.820000	0.000000	0.000000	141.000000	55.000000	5.000000	30.000000
1.700000	63.050000	30.120000	0.000000	0.000000	140.000000	54.000000	0.000000	30.000000
1.710000	62.950000	30.410000	0.000000	0.000000	140.000000	54.000000	-10.000000	29.000000
1.720000	62.870000	30.700000	0.000000	0.000000	139.000000	54.000000	-8.000000	29.000000
1.730000	62.800000	30.890000	0.000000	0.000000	139.000000	54.000000	-7.000000	19.000000
1.740000	62.800000	31.060000	0.000000	0.000000	140.000000	53.000000	0.000000	17.000000
1.750000	62.800000	31.190000	0.000000	0.000000	139.000000	52.000000	0.000000	13.000000
1.760000	62.800000	31.300000	0.000000	0.000000	139.000000	52.000000	0.000000	11.000000
1.770000	62.740000	31.350000	0.000000	0.000000	139.000000	52.000000	-6.000000	5.000000
1.780000	62.670000	31.350000	0.000000	0.000000	138.000000	51.000000	-7.000000	0.000000
1.790000	62.580000	31.350000	0.000000	0.000000	138.000000	51.000000	-9.000000	0.000000
1.800000	62.520000	31.350000	0.000000	0.000000	138.000000	51.000000	-6.000000	0.000000
1.810000	62.520000	31.250000	0.000000	0.000000	138.000000	51.000000	0.000000	-10.000000
1.820000	62.520000	31.180000	0.000000	0.000000	138.000000	51.000000	0.000000	-7.000000
1.830000	62.520000	31.110000	0.000000	0.000000	138.000000	51.000000	0.000000	-7.000000
1.840000	62.620000	31.110000	0.000000	0.000000	138.000000	51.000000	10.000000	0.000000
1.850000	62.740000	31.040000	0.000000	0.000000	138.000000	51.000000	12.000000	-7.000000
1.860000	62.880000	31.040000	0.000000	0.000000	138.000000	51.000000	14.000000	0.000000
1.870000	63.000000	31.040000	0.000000	0.000000	138.000000	51.000000	12.000000	0.000000
1.880000	63.080000	31.110000	0.000000	0.000000	140.000000	52.000000	8.000000	7.000000
1.890000	63.130000	31.160000	0.000000	0.000000	140.000000	52.000000	5.000000	5.000000
1.900000	63.130000	31.160000	0.000000	0.000000	140.000000	52.000000	0.000000	0.000000
1.910000	63.130000	31.250000	0.000000	0.000000	140.000000	52.000000	0.000000	9.000000
1.920000	63.130000	31.250000	0.000000	0.000000	140.000000	52.000000	0.000000	0.000000
1.930000	63.130000	31.330000	0.000000	0.000000	140.000000	52.000000	0.000000	8.000000
1.940000	63.050000	31.380000	0.000000	0.000000	140.000000	52.000000	-8.000000	5.000000
1.950000	62.970000	31.450000	0.000000	0.000000	140.000000	52.000000	-8.000000	7.000000
1.960000	62.970000	31.450000	0.000000	0.000000	140.000000	52.000000	0.000000	0.000000
1.970000	62.970000	31.450000	0.000000	0.000000	140.000000	52.000000	0.000000	0.000000
1.980000	62.840000	31.820000	0.000000	0.000000	140.000000	52.000000	-13.000000	37.000000
1.990000	62.730000	31.950000	0.000000	0.000000	140.000000	52.000000	-11.000000	13.000000
2.000000	62.650000	32.100000	0.000000	0.000000	140.000000	52.000000	-8.000000	15.000000
2.010000	62.570000	32.240000	0.000000	0.000000	140.000000	52.000000	-8.000000	14.000000
2.020000	62.500000	32.390000	0.000000	0.000000	140.000000	52.000000	-7.000000	15.000000
2.030000	62.450000	32.570000	0.000000	0.000000	140.000000	52.000000	-5.000000	18.000000
2.040000	62.450000	32.760000	0.000000	0.000000	141.000000	51.000000	0.000000	19.000000
2.050000	62.400000	32.910000	0.000000	0.000000	141.000000	51.000000	-5.000000	15.000000
2.060000	62.400000	33.050000	0.000000	0.000000	142.000000	52.000000	0.000000	14.000000
2.070000	62.330000	33.160000	0.000000	0.000000	141.000000	52.000000	-7.000000	11.000000
2.080000	62.330000	33.250000	0.000000	0.000000	141.000000	52.000000	0.000000	9.000000
2.090000	62.330000	33.320000	0.000000	0.000000	141.000000	52.000000	0.000000	7.000000
2.100000	62.330000	33.320000	179.000000	1.000000	141.000000	52.000000	0.000000	0.000000
2.110000	62.330000	33.320000	207.000000	0.000000	142.000000	53.000000	0.000000	0.000000
2.120000	62.330000	33.320000	269.000000	0.000000	142.000000	53.000000	0.000000	0.000000
2.130000	62.020000	33.430000	335.000000	0.000000	141.000000	53.000000	-31.000000	11.000000
2.140000	61.800000	33.280000	342.000000	0.000000	142.000000	54.000000	-22.000000	-15.000000
2.150000	61.560000	33.110000	294.000000	0.000000	142.000000	54.000000	-24.000000	-17.000000
2.160000	61.270000	32.820000	53.000000	0.000000	142.000000	54.000000	-29.000000	-29.000000
2.170000	61.270000	32.820000	0.000000	1.000000	142.000000	54.000000	0.000000	0.000000
2.180000	60.570000	32.120000	0.000000	0.000000	142.000000	54.000000	-70.000000	-70.000000
2.190000	60.290000	31.860000	0.000000	0.000000	142.000000	54.000000	-28.000000	-26.000000
2.200000	60.030000	31.650000	0.000000	0.000000	142.000000	54.000000	-26.000000	-21.000000
2.210000	59.830000	32.260000	0.000000	0.000000	142.000000	53.000000	-20.000000	61.000000
2.220000	59.980000	32.350000	0.000000	0.000000	141.000000	52.000000	15.000000	9.000000
2.230000	60.350000	32.090000	0.000000	0.000000	140.000000	52.000000	37.000000	-26.000000
