t	x	y	pressure	penup	azimuth	inclination	v_x	v_y
0.000000	56.090000	13.990000	13.000000	1.000000	152.000000	51.000000	0.000000	0.000000
0.010000	55.720000	14.230000	44.000000	1.000000	151.000000	50.000000	0.000000	0.000000
0.020000	55.550000	14.350000	61.000000	0.000000	151.000000	50.000000	-17.000000	12.000000
0.030000	55.360000	14.460000	86.000000	0.000000	150.000000	51.000000	-19.000000	11.000000
0.040000	55.150000	14.520000	95.000000	0.000000	150.000000	51.000000	-21.000000	6.000000
0.050000	55.050000	14.520000	108.000000	0.000000	149.000000	51.000000	-10.000000	0.000000
0.060000	54.960000	14.520000	113.000000	0.000000	149.000000	51.000000	-9.000000	0.000000
0.070000	54.890000	14.520000	119.000000	0.000000	149.000000	51.000000	-7.000000	0.000000
0.080000	54.840000	14.110000	127.000000	0.000000	149.000000	51.000000	-5.000000	-41.000000
0.090000	54.840000	13.540000	141.000000	0.000000	149.000000	51.000000	0.000000	-57.000000
0.100000	54.960000	12.590000	149.000000	0.000000	149.000000	51.000000	12.000000	-95.000000
0.110000	55.180000	11.550000	186.000000	0.000000	150.000000	51.000000	22.000000	-104.000000
0.120000	55.360000	10.460000	188.000000	0.000000	149.000000	52.000000	18.000000	-109.000000
0.130000	55.510000	9.700000	222.000000	0.000000	149.000000	52.000000	15.000000	-76.000000
0.140000	55.640000	9.060000	233.000000	0.000000	150.000000	52.000000	13.000000	-64.000000
0.150000	55.640000	8.490000	255.000000	0.000000	150.000000	52.000000	0.000000	-57.000000
0.160000	55.520000	7.970000	294.000000	0.000000	153.000000	52.000000	-12.000000	-52.000000
0.170000	55.350000	7.540000	319.000000	0.000000	153.000000	52.000000	-17.000000	-43.000000
0.180000	55.060000	7.170000	344.000000	0.000000	154.000000	52.000000	-29.000000	-37.000000
0.190000	54.710000	6.920000	361.000000	0.000000	154.000000	52.000000	-35.000000	-25.000000
0.200000	54.330000	6.810000	398.000000	0.000000	156.000000	51.000000	-38.000000	-11.000000
0.210000	54.000000	6.810000	394.000000	0.000000	156.000000	51.000000	-33.000000	0.000000
0.220000	53.640000	6.980000	396.000000	0.000000	156.000000	51.000000	-36.000000	17.000000
0.230000	53.240000	7.220000	394.000000	0.000000	157.000000	51.000000	-40.000000	24.000000
0.240000	53.020000	7.500000	366.000000	0.000000	157.000000	51.000000	-22.000000	28.000000
0.250000	52.920000	7.730000	312.000000	0.000000	157.000000	51.000000	-10.000000	23.000000
0.260000	52.860000	7.920000	148.000000	0.000000	157.000000	51.000000	-6.000000	19.000000
0.270000	52.860000	7.920000	0.000000	1.000000	155.000000	50.000000	0.000000	0.000000
0.280000	53.040000	8.200000	0.000000	0.000000	155.000000	50.000000	18.000000	28.000000
0.290000	53.330000	8.360000	0.000000	0.000000	155.000000	50.000000	29.000000	16.000000
0.300000	53.660000	8.580000	0.000000	0.000000	155.000000	50.000000	33.000000	22.000000
0.310000	54.040000	8.830000	0.000000	0.000000	155.000000	50.000000	38.000000	25.000000
0.320000	54.560000	8.980000	0.000000	0.000000	155.000000	50.000000	52.000000	15.000000
0.330000	55.140000	9.090000	0.000000	0.000000	155.000000	50.000000	58.000000	11.000000
0.340000	55.760000	9.150000	0.000000	0.000000	155.000000	50.000000	62.000000	6.000000
0.350000	56.380000	9.200000	0.000000	0.000000	157.000000	51.000000	62.000000	5.000000
0.360000	56.940000	9.280000	0.000000	0.000000	157.000000	51.000000	56.000000	8.000000
0.370000	57.460000	9.340000	0.000000	0.000000	158.000000	51.000000	52.000000	6.000000
0.380000	57.950000	9.420000	0.000000	0.000000	158.000000	51.000000	49.000000	8.000000
0.390000	58.330000	9.530000	0.000000	0.000000	158.000000	51.000000	38.000000	11.000000
0.400000	58.630000	9.670000	0.000000	0.000000	158.000000	51.000000	30.000000	14.000000
0.410000	58.840000	9.760000	0.000000	0.000000	157.000000	52.000000	21.000000	9.000000
0.420000	58.840000	9.760000	44.000000	1.000000	157.000000	52.000000	0.000000	0.000000
0.430000	58.840000	9.760000	91.000000	0.000000	157.000000	52.000000	0.000000	0.000000
0.440000	58.830000	10.120000	132.000000	0.000000	156.000000	53.000000	-1.000000	36.000000
0.450000	58.690000	10.250000	210.000000	0.000000	156.000000	53.000000	-14.000000	13.000000
0.460000	58.500000	10.360000	230.000000	0.000000	156.000000	53.000000	-19.000000	11.000000
0.470000	58.240000	10.360000	242.000000	0.000000	155.000000	52.000000	-26.000000	0.000000
0.480000	57.820000	10.360000	249.000000	0.000000	155.000000	52.000000	-42.000000	0.000000
0.490000	57.290000	10.240000	249.000000	0.000000	155.000000	52.000000	-53.000000	-12.000000
0.500000	56.810000	10.070000	254.000000	0.000000	155.000000	52.000000	-48.000000	-17.000000
0.510000	56.370000	9.870000	254.000000	0.000000	154.000000	52.000000	-44.000000	-20.000000
0.520000	56.020000	9.600000	254.000000	0.000000	154.000000	52.000000	-35.000000	-27.000000
0.530000	55.850000	9.270000	253.000000	0.000000	154.000000	52.000000	-17.000000	-33.000000
0.540000	55.800000	8.940000	256.000000	0.000000	154.000000	52.000000	-5.000000	-33.000000
0.550000	55.880000	8.620000	256.000000	0.000000	154.000000	52.000000	8.000000	-32.000000
0.560000	56.140000	8.360000	245.000000	0.000000	154.000000	52.000000	26.000000	-26.000000
0.570000	56.520000	8.130000	275.000000	0.000000	154.000000	52.000000	38.000000	-23.000000
0.580000	57.100000	8.020000	304.000000	0.000000	154.000000	52.000000	58.000000	-11.000000
0.590000	57.730000	8.110000	334.000000	0.000000	155.000000	52.000000	63.000000	9.000000
0.600000	58.270000	8.340000	374.000000	0.000000	156.000000	51.000000	54.000000	23.000000
0.610000	58.720000	8.610000	384.000000	0.000000	156.000000	51.000000	45.000000	27.000000
0.620000	58.940000	8.890000	387.000000	0.000000	157.000000	52.000000	22.000000	28.000000
0.630000	58.990000	9.190000	333.000000	0.000000	157.000000	52.000000	5.000000	30.000000
0.640000	58.920000	9.590000	252.000000	0.000000	156.000000	53.000000	-7.000000	40.000000
0.650000	58.780000	9.850000	103.000000	0.000000	156.000000	53.000000	-14.000000	26.000000
0.660000	58.780000	9.850000	0.000000	1.000000	156.000000	53.000000	0.000000	0.000000
0.670000	58.480000	10.110000	0.000000	0.000000	156.000000	53.000000	-30.000000	26.000000
0.680000	58.310000	10.210000	0.000000	0.000000	156.000000	53.000000	-17.000000	10.000000
0.690000	58.200000	10.340000	0.000000	0.000000	156.000000	53.000000	-11.000000	13.000000
0.700000	58.200000	10.500000	0.000000	0.000000	155.000000	52.000000	0.000000	16.000000
0.710000	58.290000	10.550000	0.000000	0.000000	156.000000	51.000000	9.000000	5.000000
0.720000	58.420000	10.550000	0.000000	0.000000	155.000000	51.000000	13.000000	0.000000
0.730000	58.710000	10.550000	0.000000	0.000000	154.000000	50.000000	29.000000	0.000000
0.740000	59.100000	10.550000	0.000000	0.000000	154.000000	50.000000	39.000000	0.000000
0.750000	59.490000	10.550000	0.000000	0.000000	154.000000	49.000000	39.000000	0.000000
0.760000	59.810000	10.480000	0.000000	0.000000	155.000000	48.000000	32.000000	-7.000000
0.770000	60.080000	10.480000	0.000000	0.000000	155.000000	48.000000	27.000000	0.000000
0.780000	60.230000	10.480000	0.000000	0.000000	153.000000	48.000000	15.000000	0.000000
0.790000	60.290000	10.410000	0.000000	0.000000	154.000000	47.000000	6.000000	-7.000000
0.800000	60.290000	10.410000	0.000000	0.000000	155.000000	48.000000	0.000000	0.000000
0.810000	60.290000	10.350000	0.000000	0.000000	155.000000	48.000000	0.000000	-6.000000
0.820000	60.290000	10.350000	0.000000	0.000000	155.000000	48.000000	0.000000	0.000000
0.830000	60.390000	10.430000	0.000000	0.000000	155.000000	49.000000	10.000000	8.000000
0.840000	60.450000	10.480000	0.000000	0.000000	155.000000	49.000000	6.000000	5.000000
0.850000	60.510000	10.550000	0.000000	0.000000	155.000000	49.000000	6.000000	7.000000
0.860000	60.570000	10.630000	0.000000	0.000000	155.000000	49.000000	6.000000	8.000000
0.870000	60.570000	10.700000	0.000000	0.000000	155.000000	49.000000	0.000000	7.000000
0.880000	60.570000	10.750000	0.000000	0.000000	155.000000	49.000000	0.000000	5.000000
0.890000	60.570000	10.750000	0.000000	0.000000	154.000000	50.000000	0.000000	0.000000
0.900000	60.490000	10.750000	0.000000	0.000000	155.000000	50.000000	-8.000000	0.000000
0.910000	60.490000	10.750000	0.000000	0.000000	155.000000	50.000000	0.000000	0.000000
0.920000	60.490000	10.820000	0.000000	0.000000	155.000000	50.000000	0.000000	7.000000
0.930000	60.490000	10.820000	0.000000	0.000000	155.000000	50.000000	0.000000	0.000000
0.940000	60.590000	10.880000	0.000000	0.000000	155.000000	50.000000	10.000000	6.000000
0.950000	60.640000	10.880000	0.000000	0.000000	155.000000	50.000000	5.000000	0.000000
0.960000	60.640000	10.880000	0.000000	0.000000	155.000000	50.000000	0.000000	0.000000
0.970000	60.720000	10.880000	0.000000	0.000000	155.000000	50.000000	8.000000	0.000000
0.980000	60.860000	10.930000	0.000000	0.000000	155.000000	50.000000	14.000000	5.000000
0.990000	60.860000	10.930000	0.000000	0.000000	155.000000	50.000000	0.000000	0.000000
1.000000	60.860000	10.930000	0.000000	0.000000	155.000000	50.000000	0.000000	0.000000
1.010000	60.950000	10.980000	0.000000	0.000000	155.000000	50.000000	9.000000	5.000000
1.020000	60.950000	10.980000	0.000000	0.000000	155.000000	50.000000	0.000000	0.000000
1.030000	60.950000	10.980000	0.000000	0.000000	155.000000	50.000000	0.000000	0.000000
1.040000	60.950000	11.050000	0.000000	0.000000	155.000000	50.000000	0.000000	7.000000
1.050000	60.950000	11.050000	0.000000	0.000000	155.000000	51.000000	0.000000	0.000000
1.060000	61.010000	11.120000	0.000000	0.000000	155.000000	51.000000	6.000000	7.000000
1.070000	61.070000	11.190000	0.000000	0.000000	155.000000	51.000000	6.000000	7.000000
1.080000	61.180000	11.270000	0.000000	0.000000	156.000000	51.000000	11.000000	8.000000
1.090000	61.290000	11.360000	0.000000	0.000000	156.000000	51.000000	11.000000	9.000000
1.100000	61.290000	11.420000	0.000000	0.000000	156.000000	51.000000	0.000000	6.000000
1.110000	61.160000	11.420000	0.000000	0.000000	155.000000	52.000000	-13.000000	0.000000
1.120000	60.970000	11.420000	0.000000	0.000000	155.000000	52.000000	-19.000000	0.000000
1.130000	60.970000	11.420000	39.000000	1.000000	156.000000	53.000000	0.000000	0.000000
1.140000	60.460000	11.470000	48.000000	0.000000	156.000000	53.000000	-51.000000	5.000000
1.150000	60.190000	11.400000	61.000000	0.000000	156.000000	53.000000	-27.000000	-7.000000
1.160000	59.950000	11.310000	68.000000	0.000000	158.000000	53.000000	-24.000000	-9.000000
1.170000	59.730000	11.220000	70.000000	0.000000	158.000000	53.000000	-22.000000	-9.000000
1.180000	59.600000	11.130000	73.000000	0.000000	158.000000	53.000000	-13.000000	-9.000000
1.190000	59.480000	11.030000	71.000000	0.000000	158.000000	53.000000	-12.000000	-10.000000
1.200000	59.390000	10.910000	75.000000	0.000000	157.000000	54.000000	-9.000000	-12.000000
1.210000	59.320000	10.780000	75.000000	0.000000	157.000000	54.000000	-7.000000	-13.000000
1.220000	59.320000	10.680000	78.000000	0.000000	157.000000	54.000000	0.000000	-10.000000
1.230000	59.230000	10.550000	83.000000	0.000000	157.000000	54.000000	-9.000000	-13.000000
1.240000	59.230000	10.440000	106.000000	0.000000	157.000000	54.000000	0.000000	-11.000000
1.250000	59.340000	10.340000	101.000000	0.000000	157.000000	54.000000	11.000000	-10.000000
1.260000	59.470000	10.260000	122.000000	0.000000	157.000000	54.000000	13.000000	-8.000000
1.270000	59.750000	10.170000	134.000000	0.000000	157.000000	54.000000	28.000000	-9.000000
1.280000	60.140000	10.110000	132.000000	0.000000	158.000000	53.000000	39.000000	-6.000000
1.290000	60.590000	10.110000	137.000000	0.000000	158.000000	53.000000	45.000000	0.000000
1.300000	61.050000	9.980000	139.000000	0.000000	158.000000	53.000000	46.000000	-13.000000
1.310000	61.360000	9.910000	153.000000	0.000000	158.000000	53.000000	31.000000	-7.000000
1.320000	61.560000	9.840000	184.000000	0.000000	158.000000	53.000000	20.000000	-7.000000
1.330000	61.730000	9.780000	171.000000	0.000000	158.000000	53.000000	17.000000	-6.000000
1.340000	61.820000	9.700000	183.000000	0.000000	158.000000	53.000000	9.000000	-8.000000
1.350000	61.820000	9.600000	198.000000	0.000000	158.000000	53.000000	0.000000	-10.000000
1.360000	61.820000	9.470000	216.000000	0.000000	158.000000	53.000000	0.000000	-13.000000
1.370000	61.740000	9.300000	251.000000	0.000000	158.000000	53.000000	-8.000000	-17.000000
1.380000	61.540000	9.100000	260.000000	0.000000	158.000000	53.000000	-20.000000	-20.000000
1.390000	61.160000	8.880000	277.000000	0.000000	158.000000	53.000000	-38.000000	-22.000000
1.400000	60.700000	8.650000	281.000000	0.000000	158.000000	52.000000	-46.000000	-23.000000
1.410000	60.190000	8.420000	294.000000	0.000000	160.000000	52.000000	-51.000000	-23.000000
1.420000	59.660000	8.260000	302.000000	0.000000	160.000000	52.000000	-53.000000	-16.000000
1.430000	59.150000	8.150000	304.000000	0.000000	160.000000	52.000000	-51.000000	-11.000000
1.440000	58.870000	8.080000	327.000000	0.000000	160.000000	52.000000	-28.000000	-7.000000
1.450000	58.740000	8.080000	327.000000	0.000000	160.000000	51.000000	-13.000000	0.000000
1.460000	58.740000	8.150000	325.000000	0.000000	160.000000	51.000000	0.000000	7.000000
1.470000	58.740000	8.260000	329.000000	0.000000	160.000000	51.000000	0.000000	11.000000
1.480000	58.860000	8.360000	325.000000	0.000000	160.000000	51.000000	12.000000	10.000000
1.490000	59.160000	8.550000	324.000000	0.000000	160.000000	51.000000	30.000000	19.000000
1.500000	59.560000	8.800000	322.000000	0.000000	160.000000	51.000000	40.000000	25.000000
1.510000	60.020000	9.060000	319.000000	0.000000	160.000000	51.000000	46.000000	26.000000
1.520000	60.520000	9.380000	325.000000	0.000000	160.000000	52.000000	50.000000	32.000000
1.530000	61.090000	9.740000	334.000000	0.000000	160.000000	52.000000	57.000000	36.000000
1.540000	61.630000	10.090000	339.000000	0.000000	160.000000	52.000000	54.000000	35.000000
1.550000	62.170000	10.420000	344.000000	0.000000	160.000000	52.000000	54.000000	33.000000
1.560000	62.580000	10.700000	334.000000	0.000000	159.000000	53.000000	41.000000	28.000000
1.570000	62.900000	10.930000	349.000000	0.000000	159.000000	53.000000	32.000000	23.000000
1.580000	63.040000	11.140000	354.000000	0.000000	158.000000	53.000000	14.000000	21.000000
1.590000	63.150000	11.310000	366.000000	0.000000	158.000000	53.000000	11.000000	17.000000
1.600000	63.240000	11.590000	373.000000	0.000000	158.000000	53.000000	9.000000	28.000000
1.610000	63.240000	11.940000	377.000000	0.000000	156.000000	53.000000	0.000000	35.000000
1.620000	63.240000	12.170000	379.000000	0.000000	156.000000	53.000000	0.000000	23.000000
1.630000	63.240000	12.400000	379.000000	0.000000	156.000000	53.000000	0.000000	23.000000
1.640000	63.240000	12.620000	381.000000	0.000000	156.000000	53.000000	0.000000	22.000000
1.650000	63.160000	12.690000	372.000000	0.000000	156.000000	53.000000	-8.000000	7.000000
1.660000	63.060000	12.690000	361.000000	0.000000	156.000000	53.000000	-10.000000	0.000000
1.670000	62.820000	12.510000	368.000000	0.000000	156.000000	53.000000	-24.000000	-18.000000
1.680000	62.480000	12.320000	368.000000	0.000000	156.000000	53.000000	-34.000000	-19.000000
1.690000	62.150000	12.020000	368.000000	0.000000	156.000000	53.000000	-33.000000	-30.000000
1.700000	61.810000	11.640000	368.000000	0.000000	156.000000	53.000000	-34.000000	-38.000000
1.710000	61.470000	11.310000	369.000000	0.000000	156.000000	53.000000	-34.000000	-33.000000
1.720000	61.290000	11.010000	369.000000	0.000000	158.000000	53.000000	-18.000000	-30.000000
1.730000	61.110000	10.710000	369.000000	0.000000	158.000000	53.000000	-18.000000	-30.000000
1.740000	61.110000	10.470000	373.000000	0.000000	158.000000	53.000000	0.000000	-24.000000
1.750000	61.110000	10.280000	364.000000	0.000000	158.000000	53.000000	0.000000	-19.000000
1.760000	61.230000	10.110000	377.000000	0.000000	158.000000	53.000000	12.000000	-17.000000
1.770000	61.350000	9.910000	379.000000	0.000000	158.000000	53.000000	12.000000	-20.000000
1.780000	61.510000	9.790000	389.000000	0.000000	158.000000	53.000000	16.000000	-12.000000
1.790000	61.700000	9.730000	399.000000	0.000000	158.000000	53.000000	19.000000	-6.000000
1.800000	61.930000	9.730000	391.000000	0.000000	158.000000	53.000000	23.000000	0.000000
1.810000	62.160000	9.680000	396.000000	0.000000	158.000000	53.000000	23.000000	-5.000000
1.820000	62.500000	9.680000	396.000000	0.000000	158.000000	53.000000	34.000000	0.000000
1.830000	62.920000	9.780000	399.000000	0.000000	158.000000	53.000000	42.000000	10.000000
1.840000	63.360000	9.850000	402.000000	0.000000	158.000000	53.000000	44.000000	7.000000
1.850000	63.800000	9.970000	388.000000	0.000000	158.000000	53.000000	44.000000	12.000000
1.860000	64.250000	10.120000	367.000000	0.000000	158.000000	53.000000	45.000000	15.000000
1.870000	64.510000	10.220000	317.000000	0.000000	158.000000	53.000000	26.000000	10.000000
1.880000	64.640000	10.290000	137.000000	0.000000	158.000000	53.000000	13.000000	7.000000
1.890000	64.640000	10.290000	0.000000	1.000000	158.000000	53.000000	0.000000	0.000000
1.900000	64.730000	10.370000	0.000000	0.000000	158.000000	53.000000	9.000000	8.000000
1.910000	64.630000	10.450000	0.000000	0.000000	156.000000	53.000000	-10.000000	8.000000
1.920000	64.500000	10.570000	0.000000	0.000000	156.000000	53.000000	-13.000000	12.000000
1.930000	64.360000	10.710000	0.000000	0.000000	156.000000	53.000000	-14.000000	14.000000
1.940000	64.210000	10.880000	0.000000	0.000000	157.000000	52.000000	-15.000000	17.000000
1.950000	64.000000	11.070000	0.000000	0.000000	158.000000	51.000000	-21.000000	19.000000
1.960000	63.830000	11.220000	0.000000	0.000000	159.000000	50.000000	-17.000000	15.000000
1.970000	63.660000	11.360000	0.000000	0.000000	160.000000	48.000000	-17.000000	14.000000
1.980000	63.740000	11.490000	0.000000	0.000000	161.000000	47.000000	8.000000	13.000000
1.990000	63.610000	11.630000	0.000000	0.000000	162.000000	46.000000	-13.000000	14.000000
2.000000	63.660000	11.720000	0.000000	0.000000	162.000000	44.000000	5.000000	9.000000
2.010000	63.910000	11.810000	0.000000	0.000000	163.000000	42.000000	25.000000	9.000000
2.020000	63.690000	11.930000	0.000000	0.000000	164.000000	40.000000	-22.000000	12.000000
2.030000	63.690000	11.930000	0.000000	0.000000	164.000000	40.000000	0.000000	0.000000
2.040000	67.370000	12.650000	0.000000	0.000000	161.000000	49.000000	368.000000	72.000000
2.050000	67.370000	12.650000	0.000000	0.000000	157.000000	59.000000	0.000000	0.000000
2.060000	68.020000	12.590000	0.000000	0.000000	152.000000	70.000000	65.000000	-6.000000
2.070000	69.090000	12.460000	0.000000	0.000000	139.000000	79.000000	107.000000	-13.000000
2.080000	69.640000	12.230000	0.000000	0.000000	141.000000	77.000000	55.000000	-23.000000
2.090000	70.210000	12.040000	0.000000	0.000000	148.000000	74.000000	57.000000	-19.000000
2.100000	70.350000	11.870000	0.000000	0.000000	151.000000	68.000000	14.000000	-17.000000
2.110000	70.190000	11.680000	0.000000	0.000000	154.000000	63.000000	-16.000000	-19.000000
2.120000	70.040000	11.480000	0.000000	0.000000	155.000000	58.000000	-15.000000	-20.000000
2.130000	69.910000	11.280000	0.000000	0.000000	156.000000	53.000000	-13.000000	-20.000000
2.140000	69.520000	11.180000	0.000000	0.000000	158.000000	49.000000	-39.000000	-10.000000
2.150000	68.930000	11.120000	0.000000	0.000000	159.000000	45.000000	-59.000000	-6.000000
2.160000	68.330000	11.030000	0.000000	0.000000	160.000000	43.000000	-60.000000	-9.000000
2.170000	67.770000	10.960000	0.000000	0.000000	160.000000	43.000000	-56.000000	-7.000000
2.180000	67.280000	10.960000	0.000000	0.000000	160.000000	44.000000	-49.000000	0.000000
2.190000	67.030000	11.050000	0.000000	0.000000	161.000000	45.000000	-25.000000	9.000000
2.200000	66.920000	11.170000	0.000000	0.000000	162.000000	46.000000	-11.000000	12.000000
2.210000	66.920000	11.370000	0.000000	0.000000	162.000000	47.000000	0.000000	20.000000
2.220000	66.970000	11.620000	0.000000	0.000000	162.000000	47.000000	5.000000	25.000000
2.230000	67.040000	11.920000	0.000000	0.000000	163.000000	48.000000	7.000000	30.000000
2.240000	67.110000	12.200000	0.000000	0.000000	164.000000	48.000000	7.000000	28.000000
