t	x	y	pressure	penup	azimuth	inclination	v_x	v_y
0.000000	70.870000	80.220000	203.000000	1.000000	297.000000	51.000000	0.000000	0.000000
0.010000	71.470000	80.650000	209.000000	0.000000	297.000000	51.000000	60.000000	43.000000
0.020000	71.690000	80.770000	216.000000	0.000000	297.000000	52.000000	22.000000	12.000000
0.030000	71.690000	80.950000	267.000000	0.000000	296.000000	52.000000	0.000000	18.000000
0.040000	71.430000	81.250000	296.000000	0.000000	296.000000	52.000000	-26.000000	30.000000
0.050000	70.750000	81.620000	309.000000	0.000000	295.000000	52.000000	-68.000000	37.000000
0.060000	69.770000	81.760000	342.000000	0.000000	294.000000	53.000000	-98.000000	14.000000
0.070000	68.260000	81.760000	341.000000	0.000000	294.000000	53.000000	-151.000000	0.000000
0.080000	66.820000	81.640000	354.000000	0.000000	294.000000	53.000000	-144.000000	-12.000000
0.090000	65.420000	81.410000	364.000000	0.000000	294.000000	53.000000	-140.000000	-23.000000
0.100000	63.730000	81.110000	373.000000	0.000000	294.000000	53.000000	-169.000000	-30.000000
0.110000	62.150000	80.760000	369.000000	0.000000	295.000000	54.000000	-158.000000	-35.000000
0.120000	60.650000	80.220000	389.000000	0.000000	295.000000	54.000000	-150.000000	-54.000000
0.130000	59.150000	79.560000	414.000000	0.000000	296.000000	55.000000	-150.000000	-66.000000
0.140000	57.900000	78.810000	448.000000	0.000000	297.000000	56.000000	-125.000000	-75.000000
0.150000	56.820000	78.020000	480.000000	0.000000	297.000000	56.000000	-108.000000	-79.000000
0.160000	55.980000	77.250000	499.000000	0.000000	298.000000	57.000000	-84.000000	-77.000000
0.170000	55.460000	76.490000	522.000000	0.000000	298.000000	57.000000	-52.000000	-76.000000
0.180000	55.150000	75.890000	533.000000	0.000000	300.000000	57.000000	-31.000000	-60.000000
0.190000	55.150000	75.590000	546.000000	0.000000	301.000000	58.000000	0.000000	-30.000000
0.200000	55.600000	75.480000	538.000000	0.000000	303.000000	58.000000	45.000000	-11.000000
0.210000	56.300000	75.060000	521.000000	0.000000	304.000000	58.000000	70.000000	-42.000000
0.220000	57.730000	75.190000	509.000000	0.000000	304.000000	58.000000	143.000000	13.000000
0.230000	59.680000	75.690000	496.000000	0.000000	306.000000	58.000000	195.000000	50.000000
0.240000	61.980000	76.400000	509.000000	0.000000	304.000000	57.000000	230.000000	71.000000
0.250000	63.890000	77.460000	519.000000	0.000000	304.000000	57.000000	191.000000	106.000000
0.260000	65.760000	78.760000	512.000000	0.000000	303.000000	56.000000	187.000000	130.000000
0.270000	67.200000	80.110000	492.000000	0.000000	303.000000	56.000000	144.000000	135.000000
0.280000	68.350000	81.520000	501.000000	0.000000	301.000000	56.000000	115.000000	141.000000
0.290000	69.690000	83.220000	473.000000	0.000000	300.000000	55.000000	134.000000	170.000000
0.300000	71.040000	85.090000	469.000000	0.000000	299.000000	54.000000	135.000000	187.000000
0.310000	72.400000	86.940000	439.000000	0.000000	298.000000	54.000000	136.000000	185.000000
0.320000	73.200000	88.830000	415.000000	0.000000	296.000000	53.000000	80.000000	189.000000
0.330000	73.580000	90.320000	420.000000	0.000000	296.000000	53.000000	38.000000	149.000000
0.340000	73.680000	91.550000	399.000000	0.000000	295.000000	52.000000	10.000000	123.000000
0.350000	73.430000	92.040000	367.000000	0.000000	294.000000	53.000000	-25.000000	49.000000
0.360000	73.000000	92.160000	371.000000	0.000000	292.000000	52.000000	-43.000000	12.000000
0.370000	72.450000	92.040000	376.000000	0.000000	290.000000	52.000000	-55.000000	-12.000000
0.380000	71.760000	91.620000	374.000000	0.000000	288.000000	52.000000	-69.000000	-42.000000
0.390000	70.920000	91.000000	376.000000	0.000000	289.000000	52.000000	-84.000000	-62.000000
0.400000	69.970000	90.240000	379.000000	0.000000	289.000000	52.000000	-95.000000	-76.000000
0.410000	68.970000	89.370000	387.000000	0.000000	289.000000	52.000000	-100.000000	-87.000000
0.420000	68.100000	88.260000	402.000000	0.000000	290.000000	53.000000	-87.000000	-111.000000
0.430000	67.390000	87.000000	413.000000	0.000000	292.000000	54.000000	-71.000000	-126.000000
0.440000	66.730000	85.530000	422.000000	0.000000	294.000000	55.000000	-66.000000	-147.000000
0.450000	66.320000	83.970000	448.000000	0.000000	295.000000	54.000000	-41.000000	-156.000000
0.460000	66.090000	82.350000	471.000000	0.000000	297.000000	55.000000	-23.000000	-162.000000
0.470000	65.980000	81.140000	498.000000	0.000000	297.000000	55.000000	-11.000000	-121.000000
0.480000	66.070000	80.340000	491.000000	0.000000	299.000000	54.000000	9.000000	-80.000000
0.490000	66.340000	79.810000	496.000000	0.000000	299.000000	54.000000	27.000000	-53.000000
0.500000	66.730000	79.560000	491.000000	0.000000	297.000000	55.000000	39.000000	-25.000000
0.510000	67.290000	79.560000	493.000000	0.000000	297.000000	55.000000	56.000000	0.000000
0.520000	67.800000	79.640000	491.000000	0.000000	297.000000	55.000000	51.000000	8.000000
0.530000	68.250000	79.880000	490.000000	0.000000	296.000000	55.000000	45.000000	24.000000
0.540000	68.680000	80.210000	481.000000	0.000000	296.000000	55.000000	43.000000	33.000000
0.550000	69.090000	80.610000	468.000000	0.000000	296.000000	55.000000	41.000000	40.000000
0.560000	69.490000	81.000000	469.000000	0.000000	296.000000	55.000000	40.000000	39.000000
0.570000	69.920000	81.400000	466.000000	0.000000	295.000000	54.000000	43.000000	40.000000
0.580000	70.300000	81.790000	466.000000	0.000000	295.000000	54.000000	38.000000	39.000000
0.590000	70.600000	82.010000	469.000000	0.000000	295.000000	54.000000	30.000000	22.000000
0.600000	70.700000	82.110000	467.000000	0.000000	294.000000	53.000000	10.000000	10.000000
0.610000	70.700000	82.110000	473.000000	0.000000	296.000000	53.000000	0.000000	0.000000
0.620000	70.650000	81.970000	473.000000	0.000000	296.000000	53.000000	-5.000000	-14.000000
0.630000	70.600000	81.760000	473.000000	0.000000	295.000000	52.000000	-5.000000	-21.000000
0.640000	70.520000	81.500000	473.000000	0.000000	295.000000	52.000000	-8.000000	-26.000000
0.650000	70.520000	81.270000	475.000000	0.000000	295.000000	52.000000	0.000000	-23.000000
0.660000	70.520000	81.120000	481.000000	0.000000	295.000000	52.000000	0.000000	-15.000000
0.670000	70.520000	81.050000	477.000000	0.000000	294.000000	53.000000	0.000000	-7.000000
0.680000	70.790000	81.050000	475.000000	0.000000	294.000000	53.000000	27.000000	0.000000
0.690000	71.120000	81.130000	473.000000	0.000000	294.000000	53.000000	33.000000	8.000000
0.700000	71.550000	81.320000	440.000000	0.000000	294.000000	53.000000	43.000000	19.000000
0.710000	71.950000	81.470000	449.000000	0.000000	294.000000	53.000000	40.000000	15.000000
0.720000	72.340000	81.560000	439.000000	0.000000	294.000000	53.000000	39.000000	9.000000
0.730000	72.340000	81.560000	448.000000	0.000000	293.000000	52.000000	0.000000	0.000000
0.740000	72.340000	81.630000	448.000000	0.000000	293.000000	52.000000	0.000000	7.000000
0.750000	72.420000	81.700000	446.000000	0.000000	293.000000	52.000000	8.000000	7.000000
0.760000	72.520000	81.840000	441.000000	0.000000	293.000000	52.000000	10.000000	14.000000
0.770000	72.600000	81.940000	440.000000	0.000000	294.000000	51.000000	8.000000	10.000000
0.780000	72.600000	82.000000	443.000000	0.000000	294.000000	51.000000	0.000000	6.000000
0.790000	72.600000	82.000000	439.000000	0.000000	294.000000	51.000000	0.000000	0.000000
0.800000	72.480000	81.880000	450.000000	0.000000	294.000000	51.000000	-12.000000	-12.000000
0.810000	72.380000	81.750000	474.000000	0.000000	294.000000	51.000000	-10.000000	-13.000000
0.820000	72.380000	81.530000	468.000000	0.000000	294.000000	51.000000	0.000000	-22.000000
0.830000	72.470000	81.260000	470.000000	0.000000	293.000000	52.000000	9.000000	-27.000000
0.840000	72.790000	80.970000	475.000000	0.000000	293.000000	52.000000	32.000000	-29.000000
0.850000	73.240000	80.690000	488.000000	0.000000	293.000000	52.000000	45.000000	-28.000000
0.860000	73.770000	80.410000	499.000000	0.000000	291.000000	51.000000	53.000000	-28.000000
0.870000	74.230000	80.110000	510.000000	0.000000	291.000000	51.000000	46.000000	-30.000000
0.880000	74.660000	79.840000	522.000000	0.000000	291.000000	51.000000	43.000000	-27.000000
0.890000	74.860000	79.530000	520.000000	0.000000	291.000000	51.000000	20.000000	-31.000000
0.900000	74.860000	79.200000	515.000000	0.000000	291.000000	51.000000	0.000000	-33.000000
0.910000	74.860000	79.100000	502.000000	0.000000	291.000000	51.000000	0.000000	-10.000000
0.920000	74.480000	79.050000	493.000000	0.000000	291.000000	51.000000	-38.000000	-5.000000
0.930000	73.960000	79.000000	407.000000	0.000000	291.000000	51.000000	-52.000000	-5.000000
0.940000	73.070000	78.940000	100.000000	0.000000	292.000000	51.000000	-89.000000	-6.000000
0.950000	73.070000	78.940000	0.000000	1.000000	292.000000	51.000000	0.000000	0.000000
0.960000	71.250000	78.800000	0.000000	0.000000	292.000000	51.000000	-182.000000	-14.000000
0.970000	70.590000	78.800000	0.000000	0.000000	293.000000	51.000000	-66.000000	0.000000
0.980000	70.080000	78.590000	0.000000	0.000000	294.000000	51.000000	-51.000000	-21.000000
0.990000	69.530000	78.340000	0.000000	0.000000	294.000000	51.000000	-55.000000	-25.000000
1.000000	69.110000	78.110000	0.000000	0.000000	294.000000	51.000000	-42.000000	-23.000000
1.010000	68.780000	78.110000	0.000000	0.000000	294.000000	51.000000	-33.000000	0.000000
1.020000	68.440000	78.370000	0.000000	0.000000	295.000000	51.000000	-34.000000	26.000000
1.030000	68.080000	78.790000	0.000000	0.000000	296.000000	50.000000	-36.000000	42.000000
1.040000	67.680000	79.090000	0.000000	0.000000	297.000000	49.000000	-40.000000	30.000000
1.050000	67.550000	79.300000	0.000000	0.000000	297.000000	47.000000	-13.000000	21.000000
1.060000	67.620000	79.300000	0.000000	0.000000	298.000000	45.000000	7.000000	0.000000
1.070000	67.620000	79.300000	0.000000	0.000000	299.000000	43.000000	0.000000	0.000000
1.080000	67.550000	79.300000	0.000000	0.000000	300.000000	42.000000	-7.000000	0.000000
1.090000	67.550000	79.350000	0.000000	0.000000	301.000000	42.000000	0.000000	5.000000
1.100000	67.480000	79.410000	0.000000	0.000000	301.000000	41.000000	-7.000000	6.000000
1.110000	67.480000	79.500000	0.000000	0.000000	302.000000	41.000000	0.000000	9.000000
1.120000	67.480000	79.610000	0.000000	0.000000	302.000000	41.000000	0.000000	11.000000
1.130000	67.480000	79.730000	0.000000	0.000000	302.000000	42.000000	0.000000	12.000000
1.140000	67.560000	79.930000	0.000000	0.000000	302.000000	43.000000	8.000000	20.000000
1.150000	67.700000	80.210000	0.000000	0.000000	302.000000	45.000000	14.000000	28.000000
1.160000	67.830000	80.590000	0.000000	0.000000	301.000000	47.000000	13.000000	38.000000
1.170000	67.930000	80.920000	0.000000	0.000000	301.000000	48.000000	10.000000	33.000000
1.180000	68.030000	81.220000	0.000000	0.000000	301.000000	49.000000	10.000000	30.000000
1.190000	68.130000	81.480000	0.000000	0.000000	300.000000	50.000000	10.000000	26.000000
1.200000	68.130000	81.730000	0.000000	0.000000	300.000000	50.000000	0.000000	25.000000
1.210000	68.180000	81.970000	0.000000	0.000000	301.000000	51.000000	5.000000	24.000000
1.220000	68.270000	82.170000	0.000000	0.000000	301.000000	51.000000	9.000000	20.000000
1.230000	68.390000	82.320000	0.000000	0.000000	301.000000	51.000000	12.000000	15.000000
1.240000	68.630000	82.430000	0.000000	0.000000	301.000000	51.000000	24.000000	11.000000
1.250000	69.060000	82.500000	0.000000	0.000000	301.000000	51.000000	43.000000	7.000000
1.260000	69.610000	82.590000	0.000000	0.000000	302.000000	51.000000	55.000000	9.000000
1.270000	70.370000	82.750000	0.000000	0.000000	302.000000	51.000000	76.000000	16.000000
1.280000	70.870000	82.970000	0.000000	0.000000	303.000000	51.000000	50.000000	22.000000
1.290000	71.200000	83.190000	0.000000	0.000000	303.000000	51.000000	33.000000	22.000000
1.300000	71.600000	83.320000	0.000000	0.000000	303.000000	51.000000	40.000000	13.000000
1.310000	71.850000	83.410000	0.000000	0.000000	303.000000	51.000000	25.000000	9.000000
1.320000	72.010000	83.410000	0.000000	0.000000	303.000000	51.000000	16.000000	0.000000
1.330000	72.130000	83.410000	0.000000	0.000000	302.000000	50.000000	12.000000	0.000000
1.340000	72.260000	83.320000	0.000000	0.000000	302.000000	50.000000	13.000000	-9.000000
1.350000	72.400000	83.320000	0.000000	0.000000	302.000000	50.000000	14.000000	0.000000
1.360000	72.490000	83.420000	0.000000	0.000000	302.000000	50.000000	9.000000	10.000000
1.370000	72.560000	83.540000	0.000000	0.000000	302.000000	50.000000	7.000000	12.000000
1.380000	72.630000	83.700000	0.000000	0.000000	301.000000	49.000000	7.000000	16.000000
1.390000	72.680000	83.860000	0.000000	0.000000	301.000000	49.000000	5.000000	16.000000
1.400000	72.790000	84.020000	0.000000	0.000000	301.000000	49.000000	11.000000	16.000000
1.410000	72.940000	84.190000	0.000000	0.000000	301.000000	49.000000	15.000000	17.000000
1.420000	73.160000	84.440000	0.000000	0.000000	301.000000	49.000000	22.000000	25.000000
1.430000	73.530000	84.870000	0.000000	0.000000	300.000000	48.000000	37.000000	43.000000
1.440000	74.000000	85.420000	0.000000	0.000000	300.000000	48.000000	47.000000	55.000000
1.450000	74.590000	86.060000	0.000000	0.000000	300.000000	48.000000	59.000000	64.000000
1.460000	74.590000	86.060000	68.000000	1.000000	298.000000	48.000000	0.000000	0.000000
1.470000	75.540000	87.100000	112.000000	0.000000	298.000000	48.000000	95.000000	104.000000
1.480000	75.800000	87.300000	146.000000	0.000000	299.000000	48.000000	26.000000	20.000000
1.490000	75.890000	87.130000	196.000000	0.000000	297.000000	49.000000	9.000000	-17.000000
1.500000	75.890000	86.860000	251.000000	0.000000	297.000000	49.000000	0.000000	-27.000000
1.510000	75.560000	86.520000	275.000000	0.000000	297.000000	49.000000	-33.000000	-34.000000
1.520000	74.940000	85.790000	279.000000	0.000000	297.000000	49.000000	-62.000000	-73.000000
1.530000	74.030000	85.120000	304.000000	0.000000	298.000000	49.000000	-91.000000	-67.000000
1.540000	72.990000	83.800000	344.000000	0.000000	298.000000	49.000000	-104.000000	-132.000000
1.550000	71.870000	82.040000	388.000000	0.000000	297.000000	50.000000	-112.000000	-176.000000
1.560000	70.570000	80.720000	446.000000	0.000000	298.000000	51.000000	-130.000000	-132.000000
1.570000	69.020000	79.360000	467.000000	0.000000	298.000000	51.000000	-155.000000	-136.000000
1.580000	67.310000	77.980000	485.000000	0.000000	297.000000	51.000000	-171.000000	-138.000000
1.590000	65.780000	76.590000	496.000000	0.000000	297.000000	52.000000	-153.000000	-139.000000
1.600000	64.300000	75.820000	491.000000	0.000000	297.000000	52.000000	-148.000000	-77.000000
1.610000	62.860000	75.490000	492.000000	0.000000	298.000000	53.000000	-144.000000	-33.000000
1.620000	61.520000	75.490000	492.000000	0.000000	299.000000	53.000000	-134.000000	0.000000
1.630000	60.390000	75.700000	492.000000	0.000000	301.000000	53.000000	-113.000000	21.000000
1.640000	59.390000	76.200000	489.000000	0.000000	302.000000	54.000000	-100.000000	50.000000
1.650000	58.570000	76.870000	494.000000	0.000000	302.000000	54.000000	-82.000000	67.000000
1.660000	58.300000	77.780000	501.000000	0.000000	304.000000	54.000000	-27.000000	91.000000
1.670000	58.390000	78.910000	510.000000	0.000000	303.000000	55.000000	9.000000	113.000000
1.680000	58.820000	80.180000	518.000000	0.000000	304.000000	55.000000	43.000000	127.000000
1.690000	59.340000	81.400000	530.000000	0.000000	304.000000	55.000000	52.000000	122.000000
1.700000	59.930000	82.610000	535.000000	0.000000	304.000000	55.000000	59.000000	121.000000
1.710000	60.480000	83.740000	538.000000	0.000000	305.000000	56.000000	55.000000	113.000000
1.720000	61.010000	84.830000	544.000000	0.000000	305.000000	56.000000	53.000000	109.000000
1.730000	61.530000	85.760000	536.000000	0.000000	305.000000	56.000000	52.000000	93.000000
1.740000	62.110000	86.590000	542.000000	0.000000	304.000000	55.000000	58.000000	83.000000
1.750000	62.680000	87.360000	544.000000	0.000000	305.000000	55.000000	57.000000	77.000000
1.760000	63.250000	88.070000	537.000000	0.000000	305.000000	55.000000	57.000000	71.000000
1.770000	63.880000	88.720000	544.000000	0.000000	305.000000	55.000000	63.000000	65.000000
1.780000	64.530000	89.330000	540.000000	0.000000	306.000000	54.000000	65.000000	61.000000
1.790000	65.110000	89.800000	537.000000	0.000000	305.000000	55.000000	58.000000	47.000000
1.800000	65.540000	90.040000	536.000000	0.000000	305.000000	55.000000	43.000000	24.000000
1.810000	65.870000	90.130000	542.000000	0.000000	304.000000	54.000000	33.000000	9.000000
1.820000	66.170000	90.130000	540.000000	0.000000	303.000000	55.000000	30.000000	0.000000
1.830000	66.430000	89.960000	543.000000	0.000000	303.000000	55.000000	26.000000	-17.000000
1.840000	66.630000	89.690000	541.000000	0.000000	304.000000	55.000000	20.000000	-27.000000
1.850000	66.630000	89.190000	544.000000	0.000000	302.000000	56.000000	0.000000	-50.000000
1.860000	66.550000	88.490000	544.000000	0.000000	302.000000	56.000000	-8.000000	-70.000000
1.870000	66.320000	87.660000	538.000000	0.000000	302.000000	56.000000	-23.000000	-83.000000
1.880000	66.030000	86.860000	538.000000	0.000000	302.000000	56.000000	-29.000000	-80.000000
1.890000	65.650000	86.080000	537.000000	0.000000	303.000000	55.000000	-38.000000	-78.000000
1.900000	65.220000	85.440000	535.000000	0.000000	303.000000	55.000000	-43.000000	-64.000000
1.910000	64.740000	84.900000	533.000000	0.000000	303.000000	55.000000	-48.000000	-54.000000
1.920000	64.320000	84.550000	533.000000	0.000000	304.000000	54.000000	-42.000000	-35.000000
1.930000	63.930000	84.250000	527.000000	0.000000	304.000000	54.000000	-39.000000	-30.000000
1.940000	63.750000	84.140000	519.000000	0.000000	304.000000	54.000000	-18.000000	-11.000000
1.950000	63.550000	84.140000	512.000000	0.000000	304.000000	53.000000	-20.000000	0.000000
1.960000	63.550000	84.140000	512.000000	0.000000	304.000000	53.000000	0.000000	0.000000
1.970000	63.550000	84.140000	515.000000	0.000000	304.000000	53.000000	0.000000	0.000000
1.980000	63.600000	84.200000	515.000000	0.000000	304.000000	53.000000	5.000000	6.000000
1.990000	63.810000	84.270000	515.000000	0.000000	304.000000	53.000000	21.000000	7.000000
2.000000	64.140000	84.450000	519.000000	0.000000	304.000000	53.000000	33.000000	18.000000
2.010000	64.480000	84.690000	522.000000	0.000000	304.000000	53.000000	34.000000	24.000000
2.020000	64.870000	84.870000	512.000000	0.000000	304.000000	53.000000	39.000000	18.000000
2.030000	65.280000	84.960000	513.000000	0.000000	304.000000	53.000000	41.000000	9.000000
2.040000	65.730000	84.960000	535.000000	0.000000	305.000000	54.000000	45.000000	0.000000
2.050000	66.250000	84.960000	538.000000	0.000000	305.000000	54.000000	52.000000	0.000000
2.060000	66.810000	84.840000	537.000000	0.000000	305.000000	54.000000	56.000000	-12.000000
2.070000	67.070000	84.630000	545.000000	0.000000	305.000000	54.000000	26.000000	-21.000000
2.080000	67.070000	84.260000	553.000000	0.000000	305.000000	54.000000	0.000000	-37.000000
2.090000	66.910000	83.710000	554.000000	0.000000	305.000000	54.000000	-16.000000	-55.000000
2.100000	66.380000	83.030000	556.000000	0.000000	304.000000	54.000000	-53.000000	-68.000000
2.110000	65.790000	82.440000	556.000000	0.000000	304.000000	54.000000	-59.000000	-59.000000
2.120000	64.970000	82.000000	553.000000	0.000000	304.000000	54.000000	-82.000000	-44.000000
2.130000	64.010000	81.670000	519.000000	0.000000	303.000000	55.000000	-96.000000	-33.000000
2.140000	63.150000	81.530000	339.000000	0.000000	303.000000	55.000000	-86.000000	-14.000000
