t	x	y	pressure	penup	azimuth	inclination	v_x	v_y
0.000000	52.330000	14.030000	78.000000	1.000000	128.000000	50.000000	0.000000	0.000000
0.010000	51.840000	13.700000	136.000000	0.000000	127.000000	52.000000	-49.000000	-33.000000
0.020000	51.700000	13.640000	182.000000	0.000000	125.000000	53.000000	-14.000000	-6.000000
0.030000	51.630000	13.640000	220.000000	0.000000	123.000000	53.000000	-7.000000	0.000000
0.040000	51.630000	13.580000	270.000000	0.000000	123.000000	55.000000	0.000000	-6.000000
0.050000	51.630000	13.580000	319.000000	0.000000	120.000000	55.000000	0.000000	0.000000
0.060000	51.770000	13.580000	384.000000	0.000000	118.000000	56.000000	14.000000	0.000000
0.070000	52.000000	13.640000	431.000000	0.000000	118.000000	56.000000	23.000000	6.000000
0.080000	52.340000	13.840000	478.000000	0.000000	118.000000	56.000000	34.000000	20.000000
0.090000	52.790000	14.180000	515.000000	0.000000	118.000000	56.000000	45.000000	34.000000
0.100000	53.340000	14.620000	521.000000	0.000000	118.000000	56.000000	55.000000	44.000000
0.110000	53.950000	15.400000	537.000000	0.000000	118.000000	56.000000	61.000000	78.000000
0.120000	54.560000	16.370000	541.000000	0.000000	120.000000	55.000000	61.000000	97.000000
0.130000	54.970000	17.460000	539.000000	0.000000	119.000000	54.000000	41.000000	109.000000
0.140000	55.260000	18.350000	537.000000	0.000000	120.000000	54.000000	29.000000	89.000000
0.150000	55.320000	19.190000	539.000000	0.000000	122.000000	54.000000	6.000000	84.000000
0.160000	55.170000	19.930000	537.000000	0.000000	123.000000	53.000000	-15.000000	74.000000
0.170000	54.890000	20.390000	533.000000	0.000000	124.000000	53.000000	-28.000000	46.000000
0.180000	54.580000	20.690000	510.000000	0.000000	125.000000	53.000000	-31.000000	30.000000
0.190000	54.080000	20.690000	465.000000	0.000000	125.000000	53.000000	-50.000000	0.000000
0.200000	53.460000	20.120000	469.000000	0.000000	125.000000	53.000000	-62.000000	-57.000000
0.210000	52.690000	19.250000	468.000000	0.000000	126.000000	51.000000	-77.000000	-87.000000
0.220000	51.910000	18.000000	481.000000	0.000000	126.000000	51.000000	-78.000000	-125.000000
0.230000	51.130000	16.680000	493.000000	0.000000	127.000000	52.000000	-78.000000	-132.000000
0.240000	50.730000	15.310000	495.000000	0.000000	125.000000	53.000000	-40.000000	-137.000000
0.250000	50.360000	14.130000	496.000000	0.000000	125.000000	53.000000	-37.000000	-118.000000
0.260000	50.090000	13.130000	488.000000	0.000000	125.000000	54.000000	-27.000000	-100.000000
0.270000	49.860000	12.260000	492.000000	0.000000	125.000000	54.000000	-23.000000	-87.000000
0.280000	49.800000	11.670000	491.000000	0.000000	125.000000	55.000000	-6.000000	-59.000000
0.290000	49.800000	11.380000	491.000000	0.000000	125.000000	56.000000	0.000000	-29.000000
0.300000	49.850000	11.300000	489.000000	0.000000	123.000000	56.000000	5.000000	-8.000000
0.310000	49.910000	11.300000	493.000000	0.000000	124.000000	57.000000	6.000000	0.000000
0.320000	50.060000	11.400000	493.000000	0.000000	123.000000	58.000000	15.000000	10.000000
0.330000	50.300000	11.600000	493.000000	0.000000	123.000000	58.000000	24.000000	20.000000
0.340000	50.610000	12.110000	493.000000	0.000000	123.000000	58.000000	31.000000	51.000000
0.350000	51.050000	12.930000	496.000000	0.000000	123.000000	58.000000	44.000000	82.000000
0.360000	51.570000	13.960000	493.000000	0.000000	123.000000	58.000000	52.000000	103.000000
0.370000	52.070000	14.920000	486.000000	0.000000	124.000000	57.000000	50.000000	96.000000
0.380000	52.390000	15.740000	477.000000	0.000000	125.000000	56.000000	32.000000	82.000000
0.390000	52.590000	16.470000	481.000000	0.000000	125.000000	56.000000	20.000000	73.000000
0.400000	52.440000	17.010000	485.000000	0.000000	126.000000	56.000000	-15.000000	54.000000
0.410000	52.160000	17.230000	468.000000	0.000000	126.000000	54.000000	-28.000000	22.000000
0.420000	51.780000	17.230000	463.000000	0.000000	128.000000	54.000000	-38.000000	0.000000
0.430000	51.430000	16.930000	440.000000	0.000000	128.000000	54.000000	-35.000000	-30.000000
0.440000	51.060000	16.320000	448.000000	0.000000	128.000000	53.000000	-37.000000	-61.000000
0.450000	50.680000	15.510000	455.000000	0.000000	129.000000	53.000000	-38.000000	-81.000000
0.460000	50.520000	14.660000	455.000000	0.000000	129.000000	53.000000	-16.000000	-85.000000
0.470000	50.570000	13.790000	458.000000	0.000000	129.000000	53.000000	5.000000	-87.000000
0.480000	50.770000	13.070000	460.000000	0.000000	129.000000	55.000000	20.000000	-72.000000
0.490000	51.170000	12.470000	458.000000	0.000000	127.000000	55.000000	40.000000	-60.000000
0.500000	51.610000	12.050000	458.000000	0.000000	127.000000	55.000000	44.000000	-42.000000
0.510000	52.130000	11.930000	469.000000	0.000000	126.000000	56.000000	52.000000	-12.000000
0.520000	52.810000	12.020000	472.000000	0.000000	125.000000	56.000000	68.000000	9.000000
0.530000	53.610000	12.360000	475.000000	0.000000	123.000000	56.000000	80.000000	34.000000
0.540000	54.570000	12.910000	475.000000	0.000000	123.000000	56.000000	96.000000	55.000000
0.550000	55.510000	13.610000	475.000000	0.000000	123.000000	56.000000	94.000000	70.000000
0.560000	56.430000	14.290000	477.000000	0.000000	124.000000	57.000000	92.000000	68.000000
0.570000	57.240000	15.000000	477.000000	0.000000	124.000000	57.000000	81.000000	71.000000
0.580000	57.830000	15.730000	478.000000	0.000000	126.000000	57.000000	59.000000	73.000000
0.590000	58.280000	16.390000	468.000000	0.000000	127.000000	56.000000	45.000000	66.000000
0.600000	58.280000	17.020000	470.000000	0.000000	129.000000	56.000000	0.000000	63.000000
0.610000	58.160000	17.390000	469.000000	0.000000	130.000000	55.000000	-12.000000	37.000000
0.620000	57.900000	17.610000	456.000000	0.000000	131.000000	55.000000	-26.000000	22.000000
0.630000	57.660000	17.610000	460.000000	0.000000	133.000000	54.000000	-24.000000	0.000000
0.640000	57.420000	17.610000	474.000000	0.000000	134.000000	54.000000	-24.000000	0.000000
0.650000	57.340000	17.610000	464.000000	0.000000	134.000000	54.000000	-8.000000	0.000000
0.660000	57.340000	17.610000	464.000000	0.000000	134.000000	54.000000	0.000000	0.000000
0.670000	57.470000	17.610000	468.000000	0.000000	134.000000	54.000000	13.000000	0.000000
0.680000	57.780000	17.550000	472.000000	0.000000	135.000000	54.000000	31.000000	-6.000000
0.690000	58.230000	17.500000	472.000000	0.000000	135.000000	54.000000	45.000000	-5.000000
0.700000	58.680000	17.390000	473.000000	0.000000	136.000000	54.000000	45.000000	-11.000000
0.710000	59.130000	17.100000	473.000000	0.000000	137.000000	54.000000	45.000000	-29.000000
0.720000	59.480000	16.700000	470.000000	0.000000	137.000000	54.000000	35.000000	-40.000000
0.730000	59.750000	16.290000	472.000000	0.000000	139.000000	55.000000	27.000000	-41.000000
0.740000	59.830000	15.920000	473.000000	0.000000	139.000000	55.000000	8.000000	-37.000000
0.750000	59.830000	15.590000	475.000000	0.000000	139.000000	55.000000	0.000000	-33.000000
0.760000	59.740000	15.470000	473.000000	0.000000	140.000000	55.000000	-9.000000	-12.000000
0.770000	59.740000	15.530000	472.000000	0.000000	141.000000	55.000000	0.000000	6.000000
0.780000	59.740000	15.720000	473.000000	0.000000	141.000000	55.000000	0.000000	19.000000
0.790000	59.890000	16.250000	440.000000	0.000000	141.000000	55.000000	15.000000	53.000000
0.800000	60.180000	17.000000	420.000000	0.000000	141.000000	55.000000	29.000000	75.000000
0.810000	60.570000	17.890000	389.000000	0.000000	141.000000	55.000000	39.000000	89.000000
0.820000	60.830000	18.770000	339.000000	0.000000	141.000000	55.000000	26.000000	88.000000
0.830000	60.830000	19.640000	337.000000	0.000000	141.000000	55.000000	0.000000	87.000000
0.840000	60.690000	20.160000	354.000000	0.000000	141.000000	55.000000	-14.000000	52.000000
0.850000	60.520000	20.450000	354.000000	0.000000	140.000000	54.000000	-17.000000	29.000000
0.860000	60.100000	20.290000	353.000000	0.000000	140.000000	54.000000	-42.000000	-16.000000
0.870000	59.500000	19.830000	356.000000	0.000000	140.000000	54.000000	-60.000000	-46.000000
0.880000	59.010000	19.160000	368.000000	0.000000	140.000000	54.000000	-49.000000	-67.000000
0.890000	58.580000	18.490000	382.000000	0.000000	140.000000	54.000000	-43.000000	-67.000000
0.900000	58.440000	17.810000	394.000000	0.000000	140.000000	54.000000	-14.000000	-68.000000
0.910000	58.440000	17.150000	418.000000	0.000000	139.000000	54.000000	0.000000	-66.000000
0.920000	58.600000	16.520000	442.000000	0.000000	139.000000	54.000000	16.000000	-63.000000
0.930000	58.780000	15.960000	464.000000	0.000000	137.000000	54.000000	18.000000	-56.000000
0.940000	59.040000	15.460000	472.000000	0.000000	137.000000	54.000000	26.000000	-50.000000
0.950000	59.320000	15.000000	477.000000	0.000000	139.000000	55.000000	28.000000	-46.000000
0.960000	59.570000	14.580000	490.000000	0.000000	138.000000	55.000000	25.000000	-42.000000
0.970000	59.730000	14.150000	501.000000	0.000000	138.000000	55.000000	16.000000	-43.000000
0.980000	59.830000	13.870000	499.000000	0.000000	138.000000	57.000000	10.000000	-28.000000
0.990000	59.890000	13.700000	492.000000	0.000000	138.000000	57.000000	6.000000	-17.000000
1.000000	59.890000	13.600000	489.000000	0.000000	138.000000	58.000000	0.000000	-10.000000
1.010000	59.890000	13.600000	492.000000	0.000000	136.000000	58.000000	0.000000	0.000000
1.020000	59.890000	13.600000	495.000000	0.000000	136.000000	58.000000	0.000000	0.000000
1.030000	59.890000	13.600000	472.000000	0.000000	135.000000	59.000000	0.000000	0.000000
1.040000	59.890000	13.600000	473.000000	0.000000	135.000000	59.000000	0.000000	0.000000
1.050000	59.700000	13.380000	469.000000	0.000000	135.000000	59.000000	-19.000000	-22.000000
1.060000	59.430000	13.060000	473.000000	0.000000	135.000000	59.000000	-27.000000	-32.000000
1.070000	59.100000	12.780000	469.000000	0.000000	135.000000	59.000000	-33.000000	-28.000000
1.080000	58.760000	12.670000	469.000000	0.000000	135.000000	59.000000	-34.000000	-11.000000
1.090000	58.400000	12.670000	469.000000	0.000000	135.000000	59.000000	-36.000000	0.000000
1.100000	57.950000	12.770000	466.000000	0.000000	135.000000	59.000000	-45.000000	10.000000
1.110000	57.450000	12.940000	465.000000	0.000000	135.000000	59.000000	-50.000000	17.000000
1.120000	56.910000	13.160000	461.000000	0.000000	134.000000	58.000000	-54.000000	22.000000
1.130000	56.550000	13.330000	461.000000	0.000000	134.000000	58.000000	-36.000000	17.000000
1.140000	56.320000	13.330000	461.000000	0.000000	135.000000	58.000000	-23.000000	0.000000
1.150000	56.170000	13.200000	452.000000	0.000000	135.000000	58.000000	-15.000000	-13.000000
1.160000	56.060000	13.070000	448.000000	0.000000	134.000000	57.000000	-11.000000	-13.000000
1.170000	55.980000	12.910000	453.000000	0.000000	135.000000	57.000000	-8.000000	-16.000000
1.180000	55.980000	12.670000	450.000000	0.000000	135.000000	57.000000	0.000000	-24.000000
1.190000	56.050000	12.200000	458.000000	0.000000	135.000000	57.000000	7.000000	-47.000000
1.200000	56.220000	11.590000	460.000000	0.000000	135.000000	57.000000	17.000000	-61.000000
1.210000	56.460000	11.040000	458.000000	0.000000	135.000000	57.000000	24.000000	-55.000000
1.220000	56.720000	10.650000	465.000000	0.000000	136.000000	57.000000	26.000000	-39.000000
1.230000	56.970000	10.380000	468.000000	0.000000	136.000000	57.000000	25.000000	-27.000000
1.240000	57.150000	10.250000	468.000000	0.000000	136.000000	57.000000	18.000000	-13.000000
1.250000	57.290000	10.170000	469.000000	0.000000	138.000000	58.000000	14.000000	-8.000000
1.260000	57.290000	10.170000	483.000000	0.000000	139.000000	58.000000	0.000000	0.000000
1.270000	57.210000	10.170000	491.000000	0.000000	139.000000	58.000000	-8.000000	0.000000
1.280000	57.080000	10.260000	492.000000	0.000000	142.000000	58.000000	-13.000000	9.000000
1.290000	56.810000	10.460000	492.000000	0.000000	142.000000	58.000000	-27.000000	20.000000
1.300000	56.440000	10.810000	496.000000	0.000000	142.000000	58.000000	-37.000000	35.000000
1.310000	56.000000	11.380000	491.000000	0.000000	142.000000	58.000000	-44.000000	57.000000
1.320000	55.470000	12.090000	453.000000	0.000000	140.000000	58.000000	-53.000000	71.000000
1.330000	54.820000	12.980000	436.000000	0.000000	140.000000	58.000000	-65.000000	89.000000
1.340000	54.080000	13.850000	405.000000	0.000000	139.000000	57.000000	-74.000000	87.000000
1.350000	53.210000	14.670000	404.000000	0.000000	138.000000	57.000000	-87.000000	82.000000
1.360000	52.370000	14.960000	438.000000	0.000000	136.000000	56.000000	-84.000000	29.000000
1.370000	51.600000	14.900000	448.000000	0.000000	135.000000	55.000000	-77.000000	-6.000000
1.380000	50.740000	14.570000	455.000000	0.000000	136.000000	55.000000	-86.000000	-33.000000
1.390000	49.830000	14.160000	469.000000	0.000000	136.000000	55.000000	-91.000000	-41.000000
1.400000	49.250000	13.700000	468.000000	0.000000	135.000000	54.000000	-58.000000	-46.000000
1.410000	48.730000	13.310000	474.000000	0.000000	135.000000	54.000000	-52.000000	-39.000000
1.420000	48.450000	12.800000	473.000000	0.000000	135.000000	54.000000	-28.000000	-51.000000
1.430000	48.310000	12.220000	473.000000	0.000000	134.000000	55.000000	-14.000000	-58.000000
1.440000	48.410000	11.590000	474.000000	0.000000	135.000000	55.000000	10.000000	-63.000000
1.450000	48.760000	10.970000	464.000000	0.000000	135.000000	55.000000	35.000000	-62.000000
1.460000	49.280000	10.360000	472.000000	0.000000	134.000000	56.000000	52.000000	-61.000000
1.470000	49.800000	9.990000	478.000000	0.000000	134.000000	56.000000	52.000000	-37.000000
1.480000	50.390000	9.770000	480.000000	0.000000	135.000000	57.000000	59.000000	-22.000000
1.490000	51.030000	9.770000	501.000000	0.000000	135.000000	57.000000	64.000000	0.000000
1.500000	51.580000	9.890000	516.000000	0.000000	135.000000	57.000000	55.000000	12.000000
1.510000	51.970000	10.140000	521.000000	0.000000	135.000000	57.000000	39.000000	25.000000
1.520000	52.240000	10.570000	526.000000	0.000000	135.000000	57.000000	27.000000	43.000000
1.530000	52.390000	11.000000	492.000000	0.000000	135.000000	57.000000	15.000000	43.000000
1.540000	52.280000	11.430000	418.000000	0.000000	135.000000	57.000000	-11.000000	43.000000
1.550000	52.000000	11.880000	356.000000	0.000000	135.000000	57.000000	-28.000000	45.000000
1.560000	51.290000	12.140000	247.000000	0.000000	135.000000	57.000000	-71.000000	26.000000
1.570000	50.310000	12.270000	215.000000	0.000000	135.000000	57.000000	-98.000000	13.000000
1.580000	49.140000	12.270000	230.000000	0.000000	134.000000	56.000000	-117.000000	0.000000
1.590000	47.910000	12.270000	262.000000	0.000000	134.000000	56.000000	-123.000000	0.000000
1.600000	46.850000	12.140000	292.000000	0.000000	134.000000	56.000000	-106.000000	-13.000000
1.610000	45.890000	11.880000	317.000000	0.000000	134.000000	56.000000	-96.000000	-26.000000
1.620000	45.480000	11.560000	356.000000	0.000000	134.000000	56.000000	-41.000000	-32.000000
1.630000	45.310000	11.380000	368.000000	0.000000	134.000000	55.000000	-17.000000	-18.000000
1.640000	45.310000	11.290000	369.000000	0.000000	134.000000	55.000000	0.000000	-9.000000
1.650000	45.460000	11.240000	423.000000	0.000000	134.000000	55.000000	15.000000	-5.000000
1.660000	45.960000	11.180000	423.000000	0.000000	133.000000	54.000000	50.000000	-6.000000
1.670000	46.690000	11.320000	449.000000	0.000000	133.000000	54.000000	73.000000	14.000000
1.680000	47.840000	11.610000	473.000000	0.000000	133.000000	54.000000	115.000000	29.000000
1.690000	49.100000	12.000000	540.000000	0.000000	134.000000	55.000000	126.000000	39.000000
1.700000	50.440000	12.740000	586.000000	0.000000	134.000000	55.000000	134.000000	74.000000
1.710000	52.520000	13.710000	622.000000	0.000000	134.000000	55.000000	208.000000	97.000000
1.720000	54.810000	14.680000	630.000000	0.000000	134.000000	55.000000	229.000000	97.000000
1.730000	57.230000	15.630000	638.000000	0.000000	135.000000	55.000000	242.000000	95.000000
1.740000	59.340000	16.160000	638.000000	0.000000	135.000000	55.000000	211.000000	53.000000
1.750000	60.920000	16.430000	638.000000	0.000000	138.000000	55.000000	158.000000	27.000000
1.760000	62.140000	16.540000	638.000000	0.000000	139.000000	55.000000	122.000000	11.000000
1.770000	63.220000	16.640000	622.000000	0.000000	140.000000	54.000000	108.000000	10.000000
1.780000	64.240000	16.860000	589.000000	0.000000	142.000000	54.000000	102.000000	22.000000
1.790000	65.230000	17.160000	369.000000	0.000000	142.000000	54.000000	99.000000	30.000000
