t	x	y	pressure	penup	azimuth	inclination	v_x	v_y
0.000000	32.820000	79.890000	15.000000	1.000000	132.000000	57.000000	0.000000	0.000000
0.010000	32.820000	79.890000	58.000000	0.000000	132.000000	57.000000	0.000000	0.000000
0.020000	32.820000	79.890000	80.000000	0.000000	132.000000	57.000000	0.000000	0.000000
0.030000	32.820000	79.890000	105.000000	0.000000	134.000000	56.000000	0.000000	0.000000
0.040000	32.820000	79.890000	137.000000	0.000000	134.000000	56.000000	0.000000	0.000000
0.050000	32.820000	79.890000	173.000000	0.000000	134.000000	56.000000	0.000000	0.000000
0.060000	32.820000	79.890000	220.000000	0.000000	134.000000	56.000000	0.000000	0.000000
0.070000	32.820000	79.890000	247.000000	0.000000	134.000000	56.000000	0.000000	0.000000
0.080000	32.820000	79.890000	274.000000	0.000000	134.000000	56.000000	0.000000	0.000000
0.090000	32.820000	79.890000	274.000000	0.000000	134.000000	56.000000	0.000000	0.000000
0.100000	32.820000	80.140000	282.000000	0.000000	134.000000	56.000000	0.000000	25.000000
0.110000	32.880000	80.340000	296.000000	0.000000	134.000000	56.000000	6.000000	20.000000
0.120000	32.880000	80.570000	305.000000	0.000000	134.000000	56.000000	0.000000	23.000000
0.130000	32.940000	80.620000	309.000000	0.000000	134.000000	56.000000	6.000000	5.000000
0.140000	32.990000	80.970000	320.000000	0.000000	134.000000	56.000000	5.000000	35.000000
0.150000	32.990000	81.510000	337.000000	0.000000	134.000000	56.000000	0.000000	54.000000
0.160000	32.990000	81.920000	345.000000	0.000000	134.000000	56.000000	0.000000	41.000000
0.170000	32.990000	82.360000	343.000000	0.000000	135.000000	55.000000	0.000000	44.000000
0.180000	32.830000	82.830000	348.000000	0.000000	135.000000	55.000000	-16.000000	47.000000
0.190000	32.670000	83.110000	358.000000	0.000000	135.000000	55.000000	-16.000000	28.000000
0.200000	32.490000	83.730000	363.000000	0.000000	136.000000	55.000000	-18.000000	62.000000
0.210000	32.310000	84.340000	363.000000	0.000000	136.000000	55.000000	-18.000000	61.000000
0.220000	32.100000	84.830000	364.000000	0.000000	136.000000	55.000000	-21.000000	49.000000
0.230000	31.870000	85.390000	363.000000	0.000000	137.000000	54.000000	-23.000000	56.000000
0.240000	31.710000	85.800000	361.000000	0.000000	137.000000	54.000000	-16.000000	41.000000
0.250000	31.500000	86.110000	356.000000	0.000000	137.000000	54.000000	-21.000000	31.000000
0.260000	31.260000	86.300000	354.000000	0.000000	136.000000	55.000000	-24.000000	19.000000
0.270000	31.000000	86.450000	358.000000	0.000000	136.000000	55.000000	-26.000000	15.000000
0.280000	30.730000	86.530000	353.000000	0.000000	135.000000	54.000000	-27.000000	8.000000
0.290000	30.440000	86.530000	351.000000	0.000000	135.000000	54.000000	-29.000000	0.000000
0.300000	30.170000	86.440000	344.000000	0.000000	136.000000	55.000000	-27.000000	-9.000000
0.310000	29.910000	86.320000	336.000000	0.000000	136.000000	55.000000	-26.000000	-12.000000
0.320000	29.690000	86.190000	337.000000	0.000000	136.000000	55.000000	-22.000000	-13.000000
0.330000	29.500000	85.940000	325.000000	0.000000	136.000000	55.000000	-19.000000	-25.000000
0.340000	29.330000	85.650000	317.000000	0.000000	136.000000	55.000000	-17.000000	-29.000000
0.350000	29.170000	85.330000	314.000000	0.000000	136.000000	55.000000	-16.000000	-32.000000
0.360000	29.050000	84.980000	310.000000	0.000000	138.000000	55.000000	-12.000000	-35.000000
0.370000	28.940000	84.540000	314.000000	0.000000	138.000000	55.000000	-11.000000	-44.000000
0.380000	28.820000	83.980000	310.000000	0.000000	138.000000	55.000000	-12.000000	-56.000000
0.390000	28.720000	83.480000	310.000000	0.000000	139.000000	56.000000	-10.000000	-50.000000
0.400000	28.620000	83.010000	309.000000	0.000000	140.000000	55.000000	-10.000000	-47.000000
0.410000	28.530000	82.460000	304.000000	0.000000	140.000000	55.000000	-9.000000	-55.000000
0.420000	28.450000	81.940000	304.000000	0.000000	141.000000	56.000000	-8.000000	-52.000000
0.430000	28.390000	81.400000	316.000000	0.000000	141.000000	56.000000	-6.000000	-54.000000
0.440000	28.390000	80.830000	311.000000	0.000000	143.000000	56.000000	0.000000	-57.000000
0.450000	28.260000	80.230000	307.000000	0.000000	143.000000	56.000000	-13.000000	-60.000000
0.460000	28.100000	79.630000	306.000000	0.000000	142.000000	57.000000	-16.000000	-60.000000
0.470000	27.950000	79.020000	299.000000	0.000000	142.000000	57.000000	-15.000000	-61.000000
0.480000	27.780000	78.490000	294.000000	0.000000	142.000000	57.000000	-17.000000	-53.000000
0.490000	27.570000	78.000000	296.000000	0.000000	139.000000	57.000000	-21.000000	-49.000000
0.500000	27.340000	77.480000	292.000000	0.000000	138.000000	57.000000	-23.000000	-52.000000
0.510000	27.080000	77.020000	296.000000	0.000000	136.000000	57.000000	-26.000000	-46.000000
0.520000	26.810000	76.610000	292.000000	0.000000	135.000000	57.000000	-27.000000	-41.000000
0.530000	26.530000	76.180000	296.000000	0.000000	134.000000	56.000000	-28.000000	-43.000000
0.540000	26.270000	75.730000	299.000000	0.000000	134.000000	56.000000	-26.000000	-45.000000
0.550000	26.040000	75.350000	299.000000	0.000000	134.000000	56.000000	-23.000000	-38.000000
0.560000	25.820000	75.020000	301.000000	0.000000	132.000000	55.000000	-22.000000	-33.000000
0.570000	25.590000	74.680000	306.000000	0.000000	132.000000	55.000000	-23.000000	-34.000000
0.580000	25.360000	74.390000	306.000000	0.000000	132.000000	55.000000	-23.000000	-29.000000
0.590000	25.130000	74.130000	311.000000	0.000000	134.000000	56.000000	-23.000000	-26.000000
0.600000	24.880000	73.900000	312.000000	0.000000	134.000000	56.000000	-25.000000	-23.000000
0.610000	24.610000	73.670000	304.000000	0.000000	134.000000	56.000000	-27.000000	-23.000000
0.620000	24.400000	73.450000	319.000000	0.000000	134.000000	56.000000	-21.000000	-22.000000
0.630000	24.220000	73.280000	324.000000	0.000000	134.000000	56.000000	-18.000000	-17.000000
0.640000	24.080000	73.180000	327.000000	0.000000	132.000000	55.000000	-14.000000	-10.000000
0.650000	23.980000	73.180000	330.000000	0.000000	134.000000	55.000000	-10.000000	0.000000
0.660000	23.880000	73.180000	329.000000	0.000000	133.000000	54.000000	-10.000000	0.000000
0.670000	23.790000	73.130000	334.000000	0.000000	133.000000	54.000000	-9.000000	-5.000000
0.680000	23.700000	73.130000	335.000000	0.000000	133.000000	54.000000	-9.000000	0.000000
0.690000	23.620000	73.130000	335.000000	0.000000	131.000000	54.000000	-8.000000	0.000000
0.700000	23.520000	73.220000	334.000000	0.000000	131.000000	54.000000	-10.000000	9.000000
0.710000	23.400000	72.990000	332.000000	0.000000	131.000000	54.000000	-12.000000	-23.000000
0.720000	23.260000	73.160000	329.000000	0.000000	131.000000	54.000000	-14.000000	17.000000
0.730000	23.110000	73.600000	332.000000	0.000000	131.000000	54.000000	-15.000000	44.000000
0.740000	23.000000	73.710000	332.000000	0.000000	131.000000	54.000000	-11.000000	11.000000
0.750000	22.940000	73.840000	334.000000	0.000000	130.000000	53.000000	-6.000000	13.000000
0.760000	22.890000	73.980000	335.000000	0.000000	130.000000	53.000000	-5.000000	14.000000
0.770000	22.840000	74.080000	334.000000	0.000000	131.000000	54.000000	-5.000000	10.000000
0.780000	22.840000	74.200000	335.000000	0.000000	131.000000	54.000000	0.000000	12.000000
0.790000	22.780000	74.330000	337.000000	0.000000	131.000000	54.000000	-6.000000	13.000000
0.800000	22.730000	74.500000	339.000000	0.000000	131.000000	54.000000	-5.000000	17.000000
0.810000	22.730000	74.650000	340.000000	0.000000	131.000000	55.000000	0.000000	15.000000
0.820000	22.730000	74.780000	339.000000	0.000000	131.000000	55.000000	0.000000	13.000000
0.830000	22.730000	74.970000	344.000000	0.000000	131.000000	55.000000	0.000000	19.000000
0.840000	22.730000	75.220000	344.000000	0.000000	131.000000	55.000000	0.000000	25.000000
0.850000	22.730000	75.400000	344.000000	0.000000	131.000000	55.000000	0.000000	18.000000
0.860000	22.730000	75.530000	344.000000	0.000000	131.000000	55.000000	0.000000	13.000000
0.870000	22.730000	75.660000	344.000000	0.000000	131.000000	55.000000	0.000000	13.000000
0.880000	22.730000	75.800000	344.000000	0.000000	131.000000	55.000000	0.000000	14.000000
0.890000	22.810000	75.920000	345.000000	0.000000	131.000000	55.000000	8.000000	12.000000
0.900000	22.810000	76.050000	345.000000	0.000000	131.000000	55.000000	0.000000	13.000000
0.910000	22.860000	76.180000	344.000000	0.000000	131.000000	55.000000	5.000000	13.000000
0.920000	22.860000	76.340000	344.000000	0.000000	130.000000	55.000000	0.000000	16.000000
0.930000	22.920000	76.520000	344.000000	0.000000	130.000000	55.000000	6.000000	18.000000
0.940000	22.920000	76.670000	342.000000	0.000000	130.000000	55.000000	0.000000	15.000000
0.950000	22.920000	76.800000	344.000000	0.000000	130.000000	55.000000	0.000000	13.000000
0.960000	22.920000	76.940000	339.000000	0.000000	130.000000	55.000000	0.000000	14.000000
0.970000	22.920000	77.090000	344.000000	0.000000	130.000000	55.000000	0.000000	15.000000
0.980000	22.920000	77.230000	340.000000	0.000000	130.000000	55.000000	0.000000	14.000000
0.990000	22.920000	77.380000	339.000000	0.000000	130.000000	55.000000	0.000000	15.000000
1.000000	22.920000	77.530000	340.000000	0.000000	130.000000	55.000000	0.000000	15.000000
1.010000	22.980000	77.690000	339.000000	0.000000	130.000000	55.000000	6.000000	16.000000
1.020000	23.030000	77.870000	335.000000	0.000000	130.000000	55.000000	5.000000	18.000000
1.030000	23.090000	78.090000	334.000000	0.000000	130.000000	55.000000	6.000000	22.000000
1.040000	23.090000	78.300000	334.000000	0.000000	130.000000	55.000000	0.000000	21.000000
1.050000	23.140000	78.490000	332.000000	0.000000	131.000000	55.000000	5.000000	19.000000
1.060000	23.140000	78.490000	329.000000	0.000000	131.000000	55.000000	0.000000	0.000000
1.070000	23.210000	78.860000	330.000000	0.000000	133.000000	54.000000	7.000000	37.000000
1.080000	23.210000	79.130000	329.000000	0.000000	133.000000	54.000000	0.000000	27.000000
1.090000	23.210000	79.450000	327.000000	0.000000	133.000000	54.000000	0.000000	32.000000
1.100000	23.260000	79.810000	324.000000	0.000000	134.000000	54.000000	5.000000	36.000000
1.110000	23.320000	80.170000	319.000000	0.000000	134.000000	54.000000	6.000000	36.000000
1.120000	23.420000	80.550000	314.000000	0.000000	134.000000	54.000000	10.000000	38.000000
1.130000	23.510000	80.940000	314.000000	0.000000	134.000000	54.000000	9.000000	39.000000
1.140000	23.560000	81.240000	314.000000	0.000000	134.000000	54.000000	5.000000	30.000000
1.150000	23.560000	81.540000	314.000000	0.000000	133.000000	53.000000	0.000000	30.000000
1.160000	23.630000	81.830000	317.000000	0.000000	133.000000	53.000000	7.000000	29.000000
1.170000	23.700000	82.120000	315.000000	0.000000	133.000000	53.000000	7.000000	29.000000
1.180000	23.800000	82.470000	315.000000	0.000000	133.000000	53.000000	10.000000	35.000000
1.190000	23.970000	82.860000	309.000000	0.000000	133.000000	53.000000	17.000000	39.000000
1.200000	24.210000	83.260000	309.000000	0.000000	134.000000	54.000000	24.000000	40.000000
1.210000	24.500000	83.640000	307.000000	0.000000	134.000000	54.000000	29.000000	38.000000
1.220000	24.810000	83.970000	305.000000	0.000000	135.000000	53.000000	31.000000	33.000000
1.230000	25.020000	84.190000	304.000000	0.000000	135.000000	53.000000	21.000000	22.000000
1.240000	25.170000	84.350000	317.000000	0.000000	135.000000	53.000000	15.000000	16.000000
1.250000	25.310000	84.450000	304.000000	0.000000	135.000000	53.000000	14.000000	10.000000
1.260000	25.440000	84.500000	314.000000	0.000000	136.000000	54.000000	13.000000	5.000000
1.270000	25.550000	84.500000	304.000000	0.000000	136.000000	54.000000	11.000000	0.000000
1.280000	25.670000	84.380000	312.000000	0.000000	136.000000	54.000000	12.000000	-12.000000
1.290000	25.810000	84.120000	317.000000	0.000000	136.000000	54.000000	14.000000	-26.000000
1.300000	25.940000	83.730000	305.000000	0.000000	136.000000	54.000000	13.000000	-39.000000
1.310000	26.130000	83.240000	314.000000	0.000000	137.000000	54.000000	19.000000	-49.000000
1.320000	26.270000	82.520000	327.000000	0.000000	137.000000	54.000000	14.000000	-72.000000
1.330000	26.390000	81.650000	332.000000	0.000000	137.000000	54.000000	12.000000	-87.000000
1.340000	26.390000	80.730000	334.000000	0.000000	137.000000	54.000000	0.000000	-92.000000
1.350000	26.440000	79.910000	333.000000	0.000000	137.000000	54.000000	5.000000	-82.000000
1.360000	26.440000	79.170000	333.000000	0.000000	137.000000	54.000000	0.000000	-74.000000
1.370000	26.440000	78.730000	334.000000	0.000000	137.000000	54.000000	0.000000	-44.000000
1.380000	26.360000	78.430000	333.000000	0.000000	139.000000	55.000000	-8.000000	-30.000000
1.390000	26.360000	78.230000	332.000000	0.000000	138.000000	55.000000	0.000000	-20.000000
1.400000	26.470000	78.230000	314.000000	0.000000	138.000000	55.000000	11.000000	0.000000
1.410000	26.470000	78.230000	304.000000	0.000000	138.000000	55.000000	0.000000	0.000000
1.420000	26.540000	78.230000	274.000000	0.000000	138.000000	55.000000	7.000000	0.000000
1.430000	26.590000	78.550000	252.000000	0.000000	138.000000	55.000000	5.000000	32.000000
1.440000	26.660000	78.900000	249.000000	0.000000	138.000000	55.000000	7.000000	35.000000
1.450000	26.770000	79.300000	250.000000	0.000000	138.000000	55.000000	11.000000	40.000000
1.460000	26.880000	79.530000	250.000000	0.000000	136.000000	56.000000	11.000000	23.000000
1.470000	26.970000	79.700000	259.000000	0.000000	135.000000	55.000000	9.000000	17.000000
1.480000	27.060000	79.700000	270.000000	0.000000	135.000000	55.000000	9.000000	0.000000
1.490000	27.110000	79.700000	286.000000	0.000000	135.000000	55.000000	5.000000	0.000000
1.500000	27.110000	79.510000	311.000000	0.000000	135.000000	55.000000	0.000000	-19.000000
1.510000	27.220000	79.230000	315.000000	0.000000	135.000000	55.000000	11.000000	-28.000000
1.520000	27.310000	79.050000	327.000000	0.000000	135.000000	55.000000	9.000000	-18.000000
1.530000	27.420000	78.850000	327.000000	0.000000	135.000000	55.000000	11.000000	-20.000000
1.540000	27.520000	78.740000	325.000000	0.000000	135.000000	55.000000	10.000000	-11.000000
1.550000	27.640000	78.740000	314.000000	0.000000	135.000000	55.000000	12.000000	0.000000
1.560000	27.810000	78.740000	301.000000	0.000000	136.000000	55.000000	17.000000	0.000000
1.570000	28.020000	78.740000	279.000000	0.000000	136.000000	55.000000	21.000000	0.000000
1.580000	28.220000	78.870000	274.000000	0.000000	138.000000	55.000000	20.000000	13.000000
1.590000	28.420000	78.980000	257.000000	0.000000	139.000000	55.000000	20.000000	11.000000
1.600000	28.530000	79.070000	257.000000	0.000000	139.000000	55.000000	11.000000	9.000000
1.610000	28.580000	79.140000	260.000000	0.000000	140.000000	55.000000	5.000000	7.000000
1.620000	28.580000	79.140000	274.000000	0.000000	141.000000	55.000000	0.000000	0.000000
1.630000	28.580000	79.140000	284.000000	0.000000	141.000000	55.000000	0.000000	0.000000
1.640000	28.580000	79.140000	274.000000	0.000000	141.000000	55.000000	0.000000	0.000000
1.650000	28.580000	79.140000	282.000000	0.000000	141.000000	55.000000	0.000000	0.000000
1.660000	28.640000	79.140000	292.000000	0.000000	141.000000	55.000000	6.000000	0.000000
1.670000	28.640000	79.050000	302.000000	0.000000	141.000000	55.000000	0.000000	-9.000000
1.680000	28.720000	78.940000	312.000000	0.000000	141.000000	55.000000	8.000000	-11.000000
1.690000	28.720000	78.820000	315.000000	0.000000	141.000000	55.000000	0.000000	-12.000000
1.700000	28.790000	78.670000	327.000000	0.000000	141.000000	55.000000	7.000000	-15.000000
1.710000	28.790000	78.530000	335.000000	0.000000	141.000000	55.000000	0.000000	-14.000000
1.720000	28.900000	78.440000	335.000000	0.000000	141.000000	55.000000	11.000000	-9.000000
1.730000	29.000000	78.380000	337.000000	0.000000	140.000000	55.000000	10.000000	-6.000000
1.740000	29.110000	78.310000	335.000000	0.000000	139.000000	55.000000	11.000000	-7.000000
1.750000	29.280000	78.250000	335.000000	0.000000	139.000000	55.000000	17.000000	-6.000000
1.760000	29.450000	78.200000	332.000000	0.000000	139.000000	55.000000	17.000000	-5.000000
1.770000	29.650000	78.200000	327.000000	0.000000	138.000000	55.000000	20.000000	0.000000
1.780000	29.830000	78.120000	324.000000	0.000000	138.000000	55.000000	18.000000	-8.000000
1.790000	30.020000	78.120000	325.000000	0.000000	138.000000	55.000000	19.000000	0.000000
1.800000	30.220000	78.120000	319.000000	0.000000	138.000000	55.000000	20.000000	0.000000
1.810000	30.460000	78.120000	317.000000	0.000000	136.000000	55.000000	24.000000	0.000000
1.820000	30.720000	78.120000	314.000000	0.000000	136.000000	55.000000	26.000000	0.000000
1.830000	30.990000	78.120000	307.000000	0.000000	136.000000	55.000000	27.000000	0.000000
1.840000	31.170000	78.120000	312.000000	0.000000	136.000000	55.000000	18.000000	0.000000
1.850000	31.300000	78.120000	311.000000	0.000000	135.000000	54.000000	13.000000	0.000000
1.860000	31.400000	78.120000	307.000000	0.000000	136.000000	54.000000	10.000000	0.000000
1.870000	31.470000	78.120000	306.000000	0.000000	136.000000	54.000000	7.000000	0.000000
1.880000	31.550000	78.120000	306.000000	0.000000	136.000000	54.000000	8.000000	0.000000
1.890000	31.620000	78.120000	304.000000	0.000000	136.000000	54.000000	7.000000	0.000000
1.900000	31.670000	78.120000	301.000000	0.000000	136.000000	54.000000	5.000000	0.000000
1.910000	31.670000	78.120000	302.000000	0.000000	135.000000	53.000000	0.000000	0.000000
1.920000	31.740000	78.120000	301.000000	0.000000	134.000000	54.000000	7.000000	0.000000
1.930000	31.740000	78.120000	302.000000	0.000000	134.000000	54.000000	0.000000	0.000000
1.940000	31.740000	78.120000	301.000000	0.000000	134.000000	54.000000	0.000000	0.000000
1.950000	31.810000	78.120000	301.000000	0.000000	134.000000	54.000000	7.000000	0.000000
1.960000	31.810000	78.200000	299.000000	0.000000	134.000000	54.000000	0.000000	8.000000
1.970000	31.890000	78.200000	286.000000	0.000000	134.000000	54.000000	8.000000	0.000000
1.980000	31.890000	78.250000	279.000000	0.000000	134.000000	54.000000	0.000000	5.000000
1.990000	31.940000	78.300000	259.000000	0.000000	134.000000	54.000000	5.000000	5.000000
2.000000	32.000000	78.380000	245.000000	0.000000	134.000000	54.000000	6.000000	8.000000
2.010000	32.070000	78.460000	256.000000	0.000000	134.000000	54.000000	7.000000	8.000000
2.020000	32.120000	78.520000	241.000000	0.000000	135.000000	53.000000	5.000000	6.000000
2.030000	32.120000	78.520000	247.000000	0.000000	135.000000	53.000000	0.000000	0.000000
2.040000	32.120000	78.570000	264.000000	0.000000	135.000000	53.000000	0.000000	5.000000
2.050000	32.050000	78.570000	275.000000	0.000000	135.000000	53.000000	-7.000000	0.000000
2.060000	31.970000	78.570000	294.000000	0.000000	135.000000	53.000000	-8.000000	0.000000
2.070000	31.840000	78.570000	309.000000	0.000000	135.000000	53.000000	-13.000000	0.000000
2.080000	31.670000	78.570000	312.000000	0.000000	135.000000	53.000000	-17.000000	0.000000
2.090000	31.450000	78.640000	305.000000	0.000000	136.000000	52.000000	-22.000000	7.000000
2.100000	31.170000	78.740000	325.000000	0.000000	137.000000	53.000000	-28.000000	10.000000
2.110000	30.840000	78.900000	334.000000	0.000000	137.000000	53.000000	-33.000000	16.000000
2.120000	30.410000	79.100000	334.000000	0.000000	137.000000	53.000000	-43.000000	20.000000
2.130000	29.950000	79.340000	359.000000	0.000000	139.000000	54.000000	-46.000000	24.000000
2.140000	29.480000	79.620000	371.000000	0.000000	139.000000	54.000000	-47.000000	28.000000
2.150000	28.990000	79.930000	377.000000	0.000000	137.000000	54.000000	-49.000000	31.000000
2.160000	28.410000	80.230000	404.000000	0.000000	139.000000	55.000000	-58.000000	30.000000
2.170000	27.760000	80.520000	422.000000	0.000000	140.000000	55.000000	-65.000000	29.000000
2.180000	27.100000	80.870000	444.000000	0.000000	140.000000	55.000000	-66.000000	35.000000
2.190000	26.480000	81.280000	455.000000	0.000000	140.000000	55.000000	-62.000000	41.000000
2.200000	26.110000	81.770000	458.000000	0.000000	140.000000	55.000000	-37.000000	49.000000
2.210000	25.880000	82.150000	456.000000	0.000000	140.000000	55.000000	-23.000000	38.000000
