t	x	y	pressure	penup	azimuth	inclination	v_x	v_y
0.000000	90.870000	79.560000	149.000000	1.000000	167.000000	52.000000	0.000000	0.000000
0.010000	90.690000	79.080000	256.000000	0.000000	167.000000	52.000000	-18.000000	-48.000000
0.020000	90.520000	78.830000	267.000000	0.000000	167.000000	52.000000	-17.000000	-25.000000
0.030000	90.610000	78.610000	317.000000	0.000000	168.000000	52.000000	9.000000	-22.000000
0.040000	90.760000	78.390000	396.000000	0.000000	169.000000	51.000000	15.000000	-22.000000
0.050000	91.000000	78.250000	473.000000	0.000000	169.000000	51.000000	24.000000	-14.000000
0.060000	91.530000	78.170000	517.000000	0.000000	169.000000	51.000000	53.000000	-8.000000
0.070000	92.240000	78.350000	562.000000	0.000000	169.000000	51.000000	71.000000	18.000000
0.080000	93.350000	78.730000	594.000000	0.000000	169.000000	51.000000	111.000000	38.000000
0.090000	94.510000	79.240000	630.000000	0.000000	167.000000	52.000000	116.000000	51.000000
0.100000	95.690000	79.940000	637.000000	0.000000	167.000000	52.000000	118.000000	70.000000
0.110000	96.630000	80.640000	643.000000	0.000000	166.000000	52.000000	94.000000	70.000000
0.120000	97.400000	81.470000	644.000000	0.000000	164.000000	52.000000	77.000000	83.000000
0.130000	98.050000	82.390000	643.000000	0.000000	163.000000	52.000000	65.000000	92.000000
0.140000	98.630000	83.480000	634.000000	0.000000	162.000000	52.000000	58.000000	109.000000
0.150000	98.920000	84.790000	630.000000	0.000000	161.000000	52.000000	29.000000	131.000000
0.160000	99.010000	86.240000	624.000000	0.000000	161.000000	52.000000	9.000000	145.000000
0.170000	98.790000	87.400000	619.000000	0.000000	161.000000	52.000000	-22.000000	116.000000
0.180000	98.630000	87.930000	616.000000	0.000000	162.000000	54.000000	-16.000000	53.000000
0.190000	98.510000	88.040000	599.000000	0.000000	162.000000	54.000000	-12.000000	11.000000
0.200000	98.330000	87.690000	600.000000	0.000000	162.000000	54.000000	-18.000000	-35.000000
0.210000	97.740000	86.510000	613.000000	0.000000	163.000000	54.000000	-59.000000	-118.000000
0.220000	96.900000	84.770000	622.000000	0.000000	163.000000	54.000000	-84.000000	-174.000000
0.230000	96.370000	83.030000	641.000000	0.000000	163.000000	54.000000	-53.000000	-174.000000
0.240000	96.190000	81.400000	668.000000	0.000000	162.000000	53.000000	-18.000000	-163.000000
0.250000	96.240000	79.850000	666.000000	0.000000	162.000000	53.000000	5.000000	-155.000000
0.260000	96.450000	78.500000	669.000000	0.000000	162.000000	53.000000	21.000000	-135.000000
0.270000	96.780000	77.600000	681.000000	0.000000	162.000000	53.000000	33.000000	-90.000000
0.280000	97.200000	77.010000	691.000000	0.000000	162.000000	53.000000	42.000000	-59.000000
0.290000	97.560000	76.610000	696.000000	0.000000	164.000000	53.000000	36.000000	-40.000000
0.300000	97.800000	76.430000	696.000000	0.000000	163.000000	54.000000	24.000000	-18.000000
0.310000	97.960000	76.430000	745.000000	0.000000	164.000000	54.000000	16.000000	0.000000
0.320000	97.960000	76.430000	770.000000	0.000000	166.000000	54.000000	0.000000	0.000000
0.330000	97.890000	76.750000	787.000000	0.000000	166.000000	54.000000	-7.000000	32.000000
0.340000	97.760000	77.190000	784.000000	0.000000	166.000000	54.000000	-13.000000	44.000000
0.350000	97.200000	77.510000	774.000000	0.000000	166.000000	54.000000	-56.000000	32.000000
0.360000	96.300000	77.510000	756.000000	0.000000	166.000000	54.000000	-90.000000	0.000000
0.370000	95.160000	77.400000	748.000000	0.000000	166.000000	54.000000	-114.000000	-11.000000
0.380000	93.660000	77.140000	754.000000	0.000000	166.000000	54.000000	-150.000000	-26.000000
0.390000	92.750000	76.880000	749.000000	0.000000	167.000000	54.000000	-91.000000	-26.000000
0.400000	92.240000	76.630000	746.000000	0.000000	167.000000	54.000000	-51.000000	-25.000000
0.410000	92.240000	76.390000	734.000000	0.000000	167.000000	54.000000	0.000000	-24.000000
0.420000	92.420000	76.220000	740.000000	0.000000	169.000000	54.000000	18.000000	-17.000000
0.430000	92.710000	76.050000	739.000000	0.000000	169.000000	53.000000	29.000000	-17.000000
0.440000	93.540000	75.910000	739.000000	0.000000	169.000000	53.000000	83.000000	-14.000000
0.450000	94.430000	76.020000	743.000000	0.000000	169.000000	53.000000	89.000000	11.000000
0.460000	95.310000	76.270000	754.000000	0.000000	169.000000	53.000000	88.000000	25.000000
0.470000	96.170000	76.650000	757.000000	0.000000	169.000000	53.000000	86.000000	38.000000
0.480000	96.930000	77.040000	760.000000	0.000000	168.000000	53.000000	76.000000	39.000000
0.490000	97.610000	77.410000	757.000000	0.000000	168.000000	53.000000	68.000000	37.000000
0.500000	98.240000	77.770000	757.000000	0.000000	168.000000	53.000000	63.000000	36.000000
0.510000	98.820000	78.060000	757.000000	0.000000	166.000000	53.000000	58.000000	29.000000
0.520000	99.260000	78.330000	761.000000	0.000000	166.000000	53.000000	44.000000	27.000000
0.530000	99.600000	78.530000	763.000000	0.000000	166.000000	53.000000	34.000000	20.000000
0.540000	99.650000	78.630000	753.000000	0.000000	166.000000	53.000000	5.000000	10.000000
0.550000	99.650000	78.720000	759.000000	0.000000	168.000000	53.000000	0.000000	9.000000
0.560000	99.650000	78.820000	779.000000	0.000000	168.000000	53.000000	0.000000	10.000000
0.570000	99.650000	78.870000	790.000000	0.000000	168.000000	53.000000	0.000000	5.000000
0.580000	99.650000	78.870000	793.000000	0.000000	168.000000	53.000000	0.000000	0.000000
0.590000	99.650000	78.870000	793.000000	0.000000	168.000000	52.000000	0.000000	0.000000
0.600000	99.650000	78.870000	790.000000	0.000000	168.000000	52.000000	0.000000	0.000000
0.610000	99.650000	78.870000	790.000000	0.000000	168.000000	52.000000	0.000000	0.000000
0.620000	99.650000	78.870000	791.000000	0.000000	167.000000	52.000000	0.000000	0.000000
0.630000	99.700000	78.870000	790.000000	0.000000	166.000000	52.000000	5.000000	0.000000
0.640000	99.700000	78.870000	791.000000	0.000000	166.000000	51.000000	0.000000	0.000000
0.650000	99.700000	78.870000	794.000000	0.000000	165.000000	51.000000	0.000000	0.000000
0.660000	99.700000	78.870000	794.000000	0.000000	165.000000	51.000000	0.000000	0.000000
0.670000	99.700000	78.870000	796.000000	0.000000	165.000000	51.000000	0.000000	0.000000
0.680000	99.700000	78.870000	797.000000	0.000000	165.000000	51.000000	0.000000	0.000000
0.690000	99.700000	78.870000	796.000000	0.000000	165.000000	51.000000	0.000000	0.000000
0.700000	99.700000	78.870000	797.000000	0.000000	165.000000	51.000000	0.000000	0.000000
0.710000	99.760000	78.870000	784.000000	0.000000	165.000000	51.000000	6.000000	0.000000
0.720000	99.830000	78.870000	787.000000	0.000000	165.000000	51.000000	7.000000	0.000000
0.730000	99.830000	78.870000	788.000000	0.000000	165.000000	51.000000	0.000000	0.000000
0.740000	99.830000	78.870000	788.000000	0.000000	165.000000	51.000000	0.000000	0.000000
0.750000	99.830000	78.870000	790.000000	0.000000	165.000000	51.000000	0.000000	0.000000
0.760000	99.830000	78.870000	788.000000	0.000000	165.000000	51.000000	0.000000	0.000000
0.770000	99.830000	78.870000	788.000000	0.000000	165.000000	51.000000	0.000000	0.000000
0.780000	99.830000	78.870000	788.000000	0.000000	165.000000	51.000000	0.000000	0.000000
0.790000	99.830000	78.870000	790.000000	0.000000	165.000000	51.000000	0.000000	0.000000
0.800000	99.830000	78.870000	790.000000	0.000000	165.000000	51.000000	0.000000	0.000000
0.810000	99.830000	78.920000	790.000000	0.000000	165.000000	51.000000	0.000000	5.000000
0.820000	99.830000	78.920000	791.000000	0.000000	165.000000	51.000000	0.000000	0.000000
0.830000	99.830000	78.920000	791.000000	0.000000	165.000000	51.000000	0.000000	0.000000
0.840000	99.830000	79.030000	790.000000	0.000000	165.000000	51.000000	0.000000	11.000000
0.850000	99.900000	79.190000	787.000000	0.000000	165.000000	51.000000	7.000000	16.000000
0.860000	99.980000	79.400000	785.000000	0.000000	166.000000	51.000000	8.000000	21.000000
0.870000	100.080000	79.560000	785.000000	0.000000	166.000000	52.000000	10.000000	16.000000
0.880000	100.180000	79.730000	794.000000	0.000000	166.000000	52.000000	10.000000	17.000000
0.890000	100.280000	79.920000	794.000000	0.000000	167.000000	52.000000	10.000000	19.000000
0.900000	100.340000	80.100000	791.000000	0.000000	167.000000	52.000000	6.000000	18.000000
0.910000	100.340000	80.270000	790.000000	0.000000	168.000000	53.000000	0.000000	17.000000
0.920000	100.460000	80.430000	787.000000	0.000000	168.000000	53.000000	12.000000	16.000000
0.930000	100.530000	80.630000	787.000000	0.000000	169.000000	53.000000	7.000000	20.000000
0.940000	100.530000	80.700000	767.000000	0.000000	169.000000	54.000000	0.000000	7.000000
0.950000	100.530000	80.700000	758.000000	0.000000	170.000000	55.000000	0.000000	0.000000
0.960000	100.530000	80.640000	752.000000	0.000000	170.000000	55.000000	0.000000	-6.000000
0.970000	100.530000	80.350000	751.000000	0.000000	170.000000	54.000000	0.000000	-29.000000
0.980000	100.530000	79.900000	749.000000	0.000000	170.000000	54.000000	0.000000	-45.000000
0.990000	100.470000	79.180000	752.000000	0.000000	170.000000	54.000000	-6.000000	-72.000000
1.000000	100.470000	78.620000	754.000000	0.000000	170.000000	54.000000	0.000000	-56.000000
1.010000	100.400000	78.160000	758.000000	0.000000	170.000000	54.000000	-7.000000	-46.000000
1.020000	100.400000	77.820000	763.000000	0.000000	170.000000	54.000000	0.000000	-34.000000
1.030000	100.500000	77.640000	763.000000	0.000000	169.000000	53.000000	10.000000	-18.000000
1.040000	100.660000	77.570000	782.000000	0.000000	169.000000	53.000000	16.000000	-7.000000
1.050000	100.850000	77.570000	784.000000	0.000000	169.000000	53.000000	19.000000	0.000000
1.060000	101.180000	77.720000	785.000000	0.000000	169.000000	54.000000	33.000000	15.000000
1.070000	101.620000	77.980000	787.000000	0.000000	169.000000	54.000000	44.000000	26.000000
1.080000	101.970000	78.360000	788.000000	0.000000	169.000000	54.000000	35.000000	38.000000
1.090000	102.260000	78.860000	790.000000	0.000000	170.000000	55.000000	29.000000	50.000000
1.100000	102.520000	79.440000	787.000000	0.000000	170.000000	55.000000	26.000000	58.000000
1.110000	102.840000	80.240000	794.000000	0.000000	170.000000	55.000000	32.000000	80.000000
1.120000	103.160000	81.000000	794.000000	0.000000	172.000000	54.000000	32.000000	76.000000
1.130000	103.310000	81.360000	787.000000	0.000000	172.000000	54.000000	15.000000	36.000000
1.140000	103.310000	81.460000	777.000000	0.000000	172.000000	54.000000	0.000000	10.000000
1.150000	103.310000	81.380000	776.000000	0.000000	172.000000	54.000000	0.000000	-8.000000
1.160000	103.230000	81.040000	774.000000	0.000000	172.000000	54.000000	-8.000000	-34.000000
1.170000	103.060000	80.520000	773.000000	0.000000	173.000000	54.000000	-17.000000	-52.000000
1.180000	102.990000	79.910000	780.000000	0.000000	173.000000	54.000000	-7.000000	-61.000000
1.190000	102.940000	79.280000	785.000000	0.000000	173.000000	54.000000	-5.000000	-63.000000
1.200000	102.940000	78.820000	794.000000	0.000000	173.000000	54.000000	0.000000	-46.000000
1.210000	103.040000	78.490000	791.000000	0.000000	173.000000	54.000000	10.000000	-33.000000
1.220000	103.160000	78.160000	805.000000	0.000000	172.000000	54.000000	12.000000	-33.000000
1.230000	103.280000	77.960000	814.000000	0.000000	172.000000	54.000000	12.000000	-20.000000
1.240000	103.480000	77.860000	829.000000	0.000000	170.000000	54.000000	20.000000	-10.000000
1.250000	103.720000	77.860000	819.000000	0.000000	170.000000	54.000000	24.000000	0.000000
1.260000	104.030000	77.860000	825.000000	0.000000	169.000000	53.000000	31.000000	0.000000
1.270000	104.350000	77.990000	831.000000	0.000000	169.000000	54.000000	32.000000	13.000000
1.280000	104.560000	78.060000	837.000000	0.000000	169.000000	54.000000	21.000000	7.000000
1.290000	104.690000	78.130000	849.000000	0.000000	167.000000	54.000000	13.000000	7.000000
1.300000	104.690000	78.180000	853.000000	0.000000	167.000000	54.000000	0.000000	5.000000
1.310000	104.760000	78.180000	879.000000	0.000000	167.000000	54.000000	7.000000	0.000000
1.320000	104.760000	78.180000	897.000000	0.000000	167.000000	54.000000	0.000000	0.000000
1.330000	104.760000	78.180000	906.000000	0.000000	166.000000	54.000000	0.000000	0.000000
1.340000	104.760000	78.180000	908.000000	0.000000	166.000000	53.000000	0.000000	0.000000
1.350000	104.760000	78.180000	909.000000	0.000000	166.000000	53.000000	0.000000	0.000000
1.360000	104.760000	78.180000	908.000000	0.000000	166.000000	53.000000	0.000000	0.000000
1.370000	104.760000	78.180000	903.000000	0.000000	166.000000	53.000000	0.000000	0.000000
1.380000	104.760000	78.180000	906.000000	0.000000	166.000000	53.000000	0.000000	0.000000
1.390000	104.830000	78.180000	906.000000	0.000000	166.000000	53.000000	7.000000	0.000000
1.400000	105.110000	78.180000	908.000000	0.000000	166.000000	53.000000	28.000000	0.000000
1.410000	105.530000	78.290000	905.000000	0.000000	166.000000	53.000000	42.000000	11.000000
1.420000	105.950000	78.430000	905.000000	0.000000	166.000000	53.000000	42.000000	14.000000
1.430000	106.430000	78.580000	906.000000	0.000000	166.000000	53.000000	48.000000	15.000000
1.440000	107.030000	78.820000	903.000000	0.000000	166.000000	53.000000	60.000000	24.000000
1.450000	107.700000	79.120000	900.000000	0.000000	165.000000	53.000000	67.000000	30.000000
1.460000	108.410000	79.510000	899.000000	0.000000	166.000000	53.000000	71.000000	39.000000
1.470000	108.940000	80.020000	896.000000	0.000000	166.000000	54.000000	53.000000	51.000000
1.480000	109.350000	80.620000	890.000000	0.000000	166.000000	54.000000	41.000000	60.000000
1.490000	109.730000	81.230000	888.000000	0.000000	167.000000	54.000000	38.000000	61.000000
1.500000	109.930000	81.820000	887.000000	0.000000	169.000000	54.000000	20.000000	59.000000
1.510000	110.010000	82.380000	878.000000	0.000000	170.000000	55.000000	8.000000	56.000000
1.520000	109.780000	82.720000	860.000000	0.000000	170.000000	55.000000	-23.000000	34.000000
1.530000	109.300000	82.930000	828.000000	0.000000	171.000000	55.000000	-48.000000	21.000000
1.540000	108.640000	82.930000	827.000000	0.000000	171.000000	55.000000	-66.000000	0.000000
1.550000	107.900000	82.600000	821.000000	0.000000	171.000000	55.000000	-74.000000	-33.000000
1.560000	107.260000	82.060000	820.000000	0.000000	171.000000	55.000000	-64.000000	-54.000000
1.570000	106.680000	81.180000	823.000000	0.000000	170.000000	55.000000	-58.000000	-88.000000
1.580000	106.140000	80.270000	826.000000	0.000000	169.000000	54.000000	-54.000000	-91.000000
1.590000	105.930000	79.510000	829.000000	0.000000	169.000000	54.000000	-21.000000	-76.000000
1.600000	105.930000	78.860000	830.000000	0.000000	167.000000	54.000000	0.000000	-65.000000
1.610000	106.120000	78.460000	819.000000	0.000000	166.000000	54.000000	19.000000	-40.000000
1.620000	106.410000	78.310000	833.000000	0.000000	164.000000	54.000000	29.000000	-15.000000
1.630000	106.770000	78.310000	843.000000	0.000000	164.000000	54.000000	36.000000	0.000000
1.640000	107.140000	78.420000	852.000000	0.000000	164.000000	54.000000	37.000000	11.000000
1.650000	107.520000	78.610000	858.000000	0.000000	163.000000	54.000000	38.000000	19.000000
1.660000	107.850000	78.870000	860.000000	0.000000	163.000000	54.000000	33.000000	26.000000
1.670000	108.140000	79.400000	869.000000	0.000000	163.000000	54.000000	29.000000	53.000000
1.680000	108.630000	80.040000	863.000000	0.000000	163.000000	54.000000	49.000000	64.000000
1.690000	109.020000	80.760000	857.000000	0.000000	164.000000	54.000000	39.000000	72.000000
1.700000	109.340000	81.580000	852.000000	0.000000	164.000000	54.000000	32.000000	82.000000
1.710000	109.460000	81.970000	849.000000	0.000000	166.000000	54.000000	12.000000	39.000000
1.720000	109.460000	82.080000	843.000000	0.000000	167.000000	54.000000	0.000000	11.000000
1.730000	109.320000	82.080000	839.000000	0.000000	169.000000	54.000000	-14.000000	0.000000
1.740000	109.140000	81.690000	837.000000	0.000000	170.000000	55.000000	-18.000000	-39.000000
1.750000	108.890000	81.140000	837.000000	0.000000	170.000000	55.000000	-25.000000	-55.000000
1.760000	108.590000	80.510000	845.000000	0.000000	170.000000	55.000000	-30.000000	-63.000000
1.770000	108.540000	79.980000	843.000000	0.000000	170.000000	55.000000	-5.000000	-53.000000
1.780000	108.540000	79.530000	851.000000	0.000000	170.000000	55.000000	0.000000	-45.000000
1.790000	108.650000	79.160000	854.000000	0.000000	170.000000	55.000000	11.000000	-37.000000
1.800000	108.890000	78.920000	860.000000	0.000000	169.000000	54.000000	24.000000	-24.000000
1.810000	109.130000	78.760000	853.000000	0.000000	169.000000	54.000000	24.000000	-16.000000
1.820000	109.610000	78.700000	861.000000	0.000000	167.000000	54.000000	48.000000	-6.000000
1.830000	110.240000	78.760000	861.000000	0.000000	167.000000	54.000000	63.000000	6.000000
1.840000	111.030000	78.900000	867.000000	0.000000	167.000000	54.000000	79.000000	14.000000
1.850000	111.750000	79.210000	869.000000	0.000000	167.000000	54.000000	72.000000	31.000000
1.860000	112.420000	79.590000	872.000000	0.000000	167.000000	54.000000	67.000000	38.000000
1.870000	112.900000	80.030000	872.000000	0.000000	168.000000	55.000000	48.000000	44.000000
1.880000	113.090000	80.030000	870.000000	0.000000	170.000000	56.000000	19.000000	0.000000
1.890000	113.090000	80.030000	869.000000	0.000000	171.000000	56.000000	0.000000	0.000000
1.900000	113.090000	79.960000	870.000000	0.000000	172.000000	57.000000	0.000000	-7.000000
1.910000	112.940000	79.870000	873.000000	0.000000	174.000000	57.000000	-15.000000	-9.000000
1.920000	112.770000	79.680000	876.000000	0.000000	174.000000	58.000000	-17.000000	-19.000000
1.930000	112.440000	79.460000	878.000000	0.000000	175.000000	58.000000	-33.000000	-22.000000
1.940000	112.270000	79.180000	873.000000	0.000000	175.000000	58.000000	-17.000000	-28.000000
1.950000	112.210000	78.870000	876.000000	0.000000	175.000000	58.000000	-6.000000	-31.000000
1.960000	112.280000	78.530000	876.000000	0.000000	175.000000	58.000000	7.000000	-34.000000
1.970000	112.370000	78.190000	879.000000	0.000000	175.000000	57.000000	9.000000	-34.000000
1.980000	112.490000	77.920000	881.000000	0.000000	175.000000	57.000000	12.000000	-27.000000
1.990000	112.630000	77.710000	881.000000	0.000000	175.000000	57.000000	14.000000	-21.000000
2.000000	112.770000	77.520000	888.000000	0.000000	175.000000	57.000000	14.000000	-19.000000
2.010000	112.840000	77.440000	891.000000	0.000000	177.000000	57.000000	7.000000	-8.000000
2.020000	112.840000	77.440000	896.000000	0.000000	177.000000	57.000000	0.000000	0.000000
2.030000	112.840000	77.440000	926.000000	0.000000	177.000000	57.000000	0.000000	0.000000
2.040000	112.840000	77.540000	939.000000	0.000000	177.000000	58.000000	0.000000	10.000000
2.050000	112.660000	77.660000	936.000000	0.000000	177.000000	58.000000	-18.000000	12.000000
2.060000	112.440000	77.940000	930.000000	0.000000	177.000000	58.000000	-22.000000	28.000000
2.070000	111.950000	78.280000	888.000000	0.000000	177.000000	58.000000	-49.000000	34.000000
2.080000	110.940000	78.660000	863.000000	0.000000	177.000000	58.000000	-101.000000	38.000000
2.090000	109.570000	79.070000	826.000000	0.000000	175.000000	57.000000	-137.000000	41.000000
2.100000	107.840000	78.980000	812.000000	0.000000	176.000000	56.000000	-173.000000	-9.000000
2.110000	105.760000	78.550000	809.000000	0.000000	174.000000	56.000000	-208.000000	-43.000000
2.120000	103.440000	77.670000	830.000000	0.000000	173.000000	55.000000	-232.000000	-88.000000
2.130000	101.210000	76.550000	866.000000	0.000000	173.000000	55.000000	-223.000000	-112.000000
2.140000	99.470000	75.260000	861.000000	0.000000	172.000000	54.000000	-174.000000	-129.000000
2.150000	98.060000	74.120000	861.000000	0.000000	172.000000	54.000000	-141.000000	-114.000000
2.160000	97.800000	73.580000	872.000000	0.000000	170.000000	54.000000	-26.000000	-54.000000
2.170000	97.970000	73.430000	882.000000	0.000000	169.000000	53.000000	17.000000	-15.000000
2.180000	98.420000	73.430000	888.000000	0.000000	169.000000	53.000000	45.000000	0.000000
2.190000	99.660000	73.720000	872.000000	0.000000	169.000000	53.000000	124.000000	29.000000
