t	x	y	pressure	penup	azimuth	inclination	v_x	v_y
0.000000	12.570000	29.220000	66.000000	1.000000	109.000000	59.000000	0.000000	0.000000
0.010000	12.570000	29.220000	136.000000	0.000000	110.000000	58.000000	0.000000	0.000000
0.020000	12.570000	29.220000	158.000000	0.000000	110.000000	58.000000	0.000000	0.000000
0.030000	12.570000	29.220000	179.000000	0.000000	112.000000	58.000000	0.000000	0.000000
0.040000	12.570000	29.220000	221.000000	0.000000	112.000000	58.000000	0.000000	0.000000
0.050000	12.570000	29.220000	317.000000	0.000000	112.000000	58.000000	0.000000	0.000000
0.060000	12.570000	29.220000	391.000000	0.000000	113.000000	58.000000	0.000000	0.000000
0.070000	13.090000	29.580000	423.000000	0.000000	113.000000	58.000000	52.000000	36.000000
0.080000	13.440000	30.070000	460.000000	0.000000	113.000000	58.000000	35.000000	49.000000
0.090000	13.820000	30.720000	504.000000	0.000000	113.000000	58.000000	38.000000	65.000000
0.100000	14.270000	31.590000	514.000000	0.000000	113.000000	58.000000	45.000000	87.000000
0.110000	14.790000	32.730000	533.000000	0.000000	113.000000	58.000000	52.000000	114.000000
0.120000	15.350000	34.040000	535.000000	0.000000	113.000000	58.000000	56.000000	131.000000
0.130000	15.940000	35.330000	537.000000	0.000000	113.000000	57.000000	59.000000	129.000000
0.140000	16.380000	36.570000	532.000000	0.000000	113.000000	57.000000	44.000000	124.000000
0.150000	16.730000	37.560000	530.000000	0.000000	112.000000	56.000000	35.000000	99.000000
0.160000	16.850000	38.410000	526.000000	0.000000	111.000000	55.000000	12.000000	85.000000
0.170000	16.710000	38.920000	513.000000	0.000000	110.000000	54.000000	-14.000000	51.000000
0.180000	16.400000	39.160000	520.000000	0.000000	111.000000	53.000000	-31.000000	24.000000
0.190000	16.090000	39.230000	512.000000	0.000000	111.000000	53.000000	-31.000000	7.000000
0.200000	15.850000	39.180000	509.000000	0.000000	112.000000	52.000000	-24.000000	-5.000000
0.210000	15.620000	38.950000	488.000000	0.000000	112.000000	52.000000	-23.000000	-23.000000
0.220000	15.380000	38.610000	488.000000	0.000000	112.000000	53.000000	-24.000000	-34.000000
0.230000	15.180000	38.020000	485.000000	0.000000	114.000000	53.000000	-20.000000	-59.000000
0.240000	15.010000	37.400000	483.000000	0.000000	114.000000	53.000000	-17.000000	-62.000000
0.250000	15.010000	36.720000	485.000000	0.000000	115.000000	54.000000	0.000000	-68.000000
0.260000	15.140000	36.070000	481.000000	0.000000	115.000000	55.000000	13.000000	-65.000000
0.270000	15.330000	35.500000	485.000000	0.000000	115.000000	55.000000	19.000000	-57.000000
0.280000	15.530000	34.980000	483.000000	0.000000	115.000000	55.000000	20.000000	-52.000000
0.290000	15.760000	34.530000	485.000000	0.000000	113.000000	56.000000	23.000000	-45.000000
0.300000	15.960000	34.130000	488.000000	0.000000	113.000000	56.000000	20.000000	-40.000000
0.310000	16.120000	33.770000	486.000000	0.000000	112.000000	56.000000	16.000000	-36.000000
0.320000	16.250000	33.520000	486.000000	0.000000	112.000000	56.000000	13.000000	-25.000000
0.330000	16.400000	33.400000	483.000000	0.000000	111.000000	55.000000	15.000000	-12.000000
0.340000	16.550000	33.400000	488.000000	0.000000	110.000000	54.000000	15.000000	0.000000
0.350000	16.700000	33.400000	488.000000	0.000000	110.000000	54.000000	15.000000	0.000000
0.360000	16.790000	33.580000	488.000000	0.000000	110.000000	53.000000	9.000000	18.000000
0.370000	16.790000	33.800000	491.000000	0.000000	110.000000	53.000000	0.000000	22.000000
0.380000	16.790000	34.020000	488.000000	0.000000	110.000000	53.000000	0.000000	22.000000
0.390000	16.790000	34.220000	510.000000	0.000000	110.000000	53.000000	0.000000	20.000000
0.400000	16.640000	34.330000	515.000000	0.000000	110.000000	53.000000	-15.000000	11.000000
0.410000	16.500000	34.330000	535.000000	0.000000	110.000000	53.000000	-14.000000	0.000000
0.420000	16.390000	34.330000	541.000000	0.000000	110.000000	53.000000	-11.000000	0.000000
0.430000	16.340000	34.250000	537.000000	0.000000	109.000000	52.000000	-5.000000	-8.000000
0.440000	16.340000	34.250000	537.000000	0.000000	109.000000	52.000000	0.000000	0.000000
0.450000	16.340000	34.250000	538.000000	0.000000	109.000000	52.000000	0.000000	0.000000
0.460000	16.340000	34.200000	537.000000	0.000000	109.000000	52.000000	0.000000	-5.000000
0.470000	16.340000	34.200000	540.000000	0.000000	109.000000	52.000000	0.000000	0.000000
0.480000	16.390000	34.200000	541.000000	0.000000	109.000000	52.000000	5.000000	0.000000
0.490000	16.390000	34.200000	541.000000	0.000000	109.000000	52.000000	0.000000	0.000000
0.500000	16.390000	34.200000	543.000000	0.000000	109.000000	52.000000	0.000000	0.000000
0.510000	16.390000	34.200000	565.000000	0.000000	109.000000	52.000000	0.000000	0.000000
0.520000	16.390000	34.200000	575.000000	0.000000	109.000000	52.000000	0.000000	0.000000
0.530000	16.390000	34.200000	589.000000	0.000000	109.000000	52.000000	0.000000	0.000000
0.540000	16.390000	34.200000	592.000000	0.000000	109.000000	52.000000	0.000000	0.000000
0.550000	16.390000	34.200000	594.000000	0.000000	109.000000	52.000000	0.000000	0.000000
0.560000	16.390000	34.200000	588.000000	0.000000	109.000000	52.000000	0.000000	0.000000
0.570000	16.390000	34.200000	595.000000	0.000000	109.000000	52.000000	0.000000	0.000000
0.580000	16.390000	34.200000	588.000000	0.000000	109.000000	52.000000	0.000000	0.000000
0.590000	16.390000	34.200000	592.000000	0.000000	110.000000	52.000000	0.000000	0.000000
0.600000	16.390000	34.200000	595.000000	0.000000	110.000000	52.000000	0.000000	0.000000
0.610000	16.390000	34.200000	605.000000	0.000000	110.000000	52.000000	0.000000	0.000000
0.620000	16.390000	34.200000	610.000000	0.000000	110.000000	52.000000	0.000000	0.000000
0.630000	16.390000	34.200000	627.000000	0.000000	110.000000	52.000000	0.000000	0.000000
0.640000	16.390000	34.200000	634.000000	0.000000	110.000000	52.000000	0.000000	0.000000
0.650000	16.390000	34.200000	644.000000	0.000000	110.000000	52.000000	0.000000	0.000000
0.660000	16.390000	34.200000	636.000000	0.000000	110.000000	52.000000	0.000000	0.000000
0.670000	16.390000	34.200000	641.000000	0.000000	110.000000	52.000000	0.000000	0.000000
0.680000	16.390000	34.200000	637.000000	0.000000	110.000000	52.000000	0.000000	0.000000
0.690000	16.390000	34.200000	641.000000	0.000000	110.000000	52.000000	0.000000	0.000000
0.700000	16.390000	34.200000	646.000000	0.000000	110.000000	52.000000	0.000000	0.000000
0.710000	16.390000	34.200000	655.000000	0.000000	110.000000	52.000000	0.000000	0.000000
0.720000	16.390000	34.200000	665.000000	0.000000	110.000000	52.000000	0.000000	0.000000
0.730000	16.390000	34.200000	673.000000	0.000000	110.000000	52.000000	0.000000	0.000000
0.740000	16.390000	34.200000	664.000000	0.000000	110.000000	52.000000	0.000000	0.000000
0.750000	16.390000	34.200000	664.000000	0.000000	110.000000	52.000000	0.000000	0.000000
0.760000	16.390000	34.200000	673.000000	0.000000	110.000000	52.000000	0.000000	0.000000
0.770000	16.390000	34.200000	673.000000	0.000000	110.000000	52.000000	0.000000	0.000000
0.780000	16.390000	34.200000	671.000000	0.000000	110.000000	52.000000	0.000000	0.000000
0.790000	16.390000	34.200000	671.000000	0.000000	110.000000	52.000000	0.000000	0.000000
0.800000	16.390000	34.200000	673.000000	0.000000	110.000000	52.000000	0.000000	0.000000
0.810000	16.390000	34.200000	664.000000	0.000000	110.000000	52.000000	0.000000	0.000000
0.820000	16.440000	34.200000	666.000000	0.000000	110.000000	52.000000	5.000000	0.000000
0.830000	16.440000	34.100000	666.000000	0.000000	110.000000	52.000000	0.000000	-10.000000
0.840000	16.490000	34.040000	663.000000	0.000000	110.000000	52.000000	5.000000	-6.000000
0.850000	16.490000	34.040000	664.000000	0.000000	110.000000	52.000000	0.000000	0.000000
0.860000	16.490000	34.040000	664.000000	0.000000	110.000000	52.000000	0.000000	0.000000
0.870000	16.700000	33.720000	664.000000	0.000000	110.000000	52.000000	21.000000	-32.000000
0.880000	16.830000	33.470000	669.000000	0.000000	110.000000	52.000000	13.000000	-25.000000
0.890000	16.980000	33.130000	666.000000	0.000000	111.000000	53.000000	15.000000	-34.000000
0.900000	17.170000	32.720000	666.000000	0.000000	111.000000	53.000000	19.000000	-41.000000
0.910000	17.380000	32.260000	667.000000	0.000000	111.000000	53.000000	21.000000	-46.000000
0.920000	17.580000	31.920000	672.000000	0.000000	111.000000	53.000000	20.000000	-34.000000
0.930000	17.790000	31.580000	675.000000	0.000000	113.000000	54.000000	21.000000	-34.000000
0.940000	18.010000	31.340000	669.000000	0.000000	113.000000	54.000000	22.000000	-24.000000
0.950000	18.180000	31.180000	670.000000	0.000000	113.000000	54.000000	17.000000	-16.000000
0.960000	18.270000	31.070000	670.000000	0.000000	115.000000	54.000000	9.000000	-11.000000
0.970000	18.270000	31.000000	673.000000	0.000000	115.000000	54.000000	0.000000	-7.000000
0.980000	18.270000	31.000000	673.000000	0.000000	115.000000	54.000000	0.000000	0.000000
0.990000	18.270000	30.950000	679.000000	0.000000	115.000000	54.000000	0.000000	-5.000000
1.000000	18.320000	30.950000	684.000000	0.000000	115.000000	54.000000	5.000000	0.000000
1.010000	18.260000	30.950000	687.000000	0.000000	117.000000	54.000000	-6.000000	0.000000
1.020000	18.140000	30.950000	691.000000	0.000000	117.000000	54.000000	-12.000000	0.000000
1.030000	17.890000	30.950000	688.000000	0.000000	117.000000	54.000000	-25.000000	0.000000
1.040000	17.480000	30.810000	685.000000	0.000000	117.000000	54.000000	-41.000000	-14.000000
1.050000	16.960000	30.640000	679.000000	0.000000	117.000000	54.000000	-52.000000	-17.000000
1.060000	16.290000	30.430000	675.000000	0.000000	117.000000	54.000000	-67.000000	-21.000000
1.070000	15.630000	30.280000	673.000000	0.000000	115.000000	54.000000	-66.000000	-15.000000
1.080000	14.960000	30.160000	673.000000	0.000000	115.000000	54.000000	-67.000000	-12.000000
1.090000	14.460000	29.930000	669.000000	0.000000	116.000000	55.000000	-50.000000	-23.000000
1.100000	14.080000	29.670000	667.000000	0.000000	116.000000	55.000000	-38.000000	-26.000000
1.110000	13.790000	29.360000	666.000000	0.000000	115.000000	55.000000	-29.000000	-31.000000
1.120000	13.680000	29.180000	664.000000	0.000000	116.000000	56.000000	-11.000000	-18.000000
1.130000	13.680000	29.090000	670.000000	0.000000	116.000000	56.000000	0.000000	-9.000000
1.140000	13.780000	29.040000	662.000000	0.000000	116.000000	57.000000	10.000000	-5.000000
1.150000	14.070000	29.140000	659.000000	0.000000	116.000000	57.000000	29.000000	10.000000
1.160000	14.490000	29.330000	656.000000	0.000000	116.000000	57.000000	42.000000	19.000000
1.170000	15.080000	29.870000	647.000000	0.000000	118.000000	57.000000	59.000000	54.000000
1.180000	15.810000	30.530000	643.000000	0.000000	118.000000	57.000000	73.000000	66.000000
1.190000	16.640000	31.280000	641.000000	0.000000	118.000000	57.000000	83.000000	75.000000
1.200000	17.250000	31.930000	641.000000	0.000000	117.000000	56.000000	61.000000	65.000000
1.210000	17.730000	32.570000	638.000000	0.000000	117.000000	56.000000	48.000000	64.000000
1.220000	18.110000	33.160000	640.000000	0.000000	116.000000	55.000000	38.000000	59.000000
1.230000	18.420000	33.670000	640.000000	0.000000	116.000000	55.000000	31.000000	51.000000
1.240000	18.570000	33.960000	641.000000	0.000000	116.000000	55.000000	15.000000	29.000000
1.250000	18.570000	34.100000	638.000000	0.000000	115.000000	54.000000	0.000000	14.000000
1.260000	18.570000	34.100000	644.000000	0.000000	115.000000	54.000000	0.000000	0.000000
1.270000	18.570000	34.150000	644.000000	0.000000	115.000000	55.000000	0.000000	5.000000
1.280000	18.570000	34.150000	644.000000	0.000000	115.000000	55.000000	0.000000	0.000000
1.290000	18.570000	34.150000	646.000000	0.000000	115.000000	55.000000	0.000000	0.000000
1.300000	18.570000	34.150000	647.000000	0.000000	115.000000	55.000000	0.000000	0.000000
1.310000	18.570000	34.100000	650.000000	0.000000	115.000000	55.000000	0.000000	-5.000000
1.320000	18.460000	33.900000	647.000000	0.000000	115.000000	55.000000	-11.000000	-20.000000
1.330000	18.350000	33.590000	644.000000	0.000000	115.000000	55.000000	-11.000000	-31.000000
1.340000	18.230000	33.140000	644.000000	0.000000	115.000000	55.000000	-12.000000	-45.000000
1.350000	18.230000	32.690000	643.000000	0.000000	115.000000	55.000000	0.000000	-45.000000
1.360000	18.410000	32.330000	644.000000	0.000000	115.000000	55.000000	18.000000	-36.000000
1.370000	18.630000	32.020000	641.000000	0.000000	116.000000	55.000000	22.000000	-31.000000
1.380000	18.870000	31.820000	641.000000	0.000000	116.000000	55.000000	24.000000	-20.000000
1.390000	19.150000	31.820000	640.000000	0.000000	116.000000	55.000000	28.000000	0.000000
1.400000	19.440000	32.020000	640.000000	0.000000	116.000000	55.000000	29.000000	20.000000
1.410000	19.730000	32.280000	643.000000	0.000000	115.000000	54.000000	29.000000	26.000000
1.420000	20.020000	32.720000	641.000000	0.000000	115.000000	54.000000	29.000000	44.000000
1.430000	20.250000	33.270000	641.000000	0.000000	115.000000	54.000000	23.000000	55.000000
1.440000	20.440000	33.670000	643.000000	0.000000	114.000000	53.000000	19.000000	40.000000
1.450000	20.560000	34.020000	640.000000	0.000000	113.000000	54.000000	12.000000	35.000000
1.460000	20.610000	34.270000	643.000000	0.000000	113.000000	54.000000	5.000000	25.000000
1.470000	20.610000	34.420000	644.000000	0.000000	113.000000	54.000000	0.000000	15.000000
1.480000	20.610000	34.420000	646.000000	0.000000	113.000000	54.000000	0.000000	0.000000
1.490000	20.610000	34.420000	644.000000	0.000000	113.000000	54.000000	0.000000	0.000000
1.500000	20.610000	34.420000	637.000000	0.000000	113.000000	54.000000	0.000000	0.000000
1.510000	20.610000	34.420000	641.000000	0.000000	113.000000	54.000000	0.000000	0.000000
1.520000	20.560000	34.140000	641.000000	0.000000	113.000000	54.000000	-5.000000	-28.000000
1.530000	20.560000	33.750000	643.000000	0.000000	113.000000	54.000000	0.000000	-39.000000
1.540000	20.560000	33.410000	643.000000	0.000000	113.000000	54.000000	0.000000	-34.000000
1.550000	20.680000	33.190000	643.000000	0.000000	113.000000	54.000000	12.000000	-22.000000
1.560000	20.850000	33.040000	644.000000	0.000000	113.000000	54.000000	17.000000	-15.000000
1.570000	21.040000	32.900000	641.000000	0.000000	113.000000	54.000000	19.000000	-14.000000
1.580000	21.260000	32.800000	643.000000	0.000000	113.000000	54.000000	22.000000	-10.000000
1.590000	21.470000	32.730000	649.000000	0.000000	113.000000	54.000000	21.000000	-7.000000
1.600000	21.640000	32.730000	647.000000	0.000000	114.000000	53.000000	17.000000	0.000000
1.610000	21.820000	32.790000	652.000000	0.000000	114.000000	53.000000	18.000000	6.000000
1.620000	21.990000	32.950000	659.000000	0.000000	114.000000	53.000000	17.000000	16.000000
1.630000	22.210000	33.160000	662.000000	0.000000	114.000000	53.000000	22.000000	21.000000
1.640000	22.420000	33.330000	662.000000	0.000000	114.000000	53.000000	21.000000	17.000000
1.650000	22.590000	33.450000	659.000000	0.000000	112.000000	53.000000	17.000000	12.000000
1.660000	22.730000	33.530000	661.000000	0.000000	112.000000	53.000000	14.000000	8.000000
1.670000	22.890000	33.680000	658.000000	0.000000	112.000000	53.000000	16.000000	15.000000
1.680000	23.010000	33.870000	655.000000	0.000000	112.000000	53.000000	12.000000	19.000000
1.690000	23.060000	33.960000	656.000000	0.000000	112.000000	53.000000	5.000000	9.000000
1.700000	23.060000	34.030000	655.000000	0.000000	112.000000	53.000000	0.000000	7.000000
1.710000	23.060000	34.030000	656.000000	0.000000	112.000000	53.000000	0.000000	0.000000
1.720000	23.060000	34.030000	658.000000	0.000000	112.000000	53.000000	0.000000	0.000000
1.730000	23.060000	34.030000	658.000000	0.000000	111.000000	53.000000	0.000000	0.000000
1.740000	23.060000	34.030000	656.000000	0.000000	111.000000	53.000000	0.000000	0.000000
1.750000	23.060000	34.030000	653.000000	0.000000	111.000000	53.000000	0.000000	0.000000
1.760000	23.060000	34.030000	653.000000	0.000000	111.000000	53.000000	0.000000	0.000000
1.770000	23.060000	34.030000	652.000000	0.000000	111.000000	53.000000	0.000000	0.000000
1.780000	23.060000	34.030000	653.000000	0.000000	111.000000	53.000000	0.000000	0.000000
1.790000	23.060000	34.030000	655.000000	0.000000	111.000000	53.000000	0.000000	0.000000
1.800000	23.060000	34.030000	655.000000	0.000000	112.000000	53.000000	0.000000	0.000000
1.810000	23.060000	34.030000	650.000000	0.000000	112.000000	53.000000	0.000000	0.000000
1.820000	23.060000	34.030000	641.000000	0.000000	112.000000	53.000000	0.000000	0.000000
1.830000	23.060000	34.030000	647.000000	0.000000	112.000000	53.000000	0.000000	0.000000
1.840000	23.060000	34.030000	639.000000	0.000000	112.000000	53.000000	0.000000	0.000000
1.850000	23.060000	34.030000	628.000000	0.000000	112.000000	53.000000	0.000000	0.000000
1.860000	23.060000	34.030000	620.000000	0.000000	112.000000	53.000000	0.000000	0.000000
1.870000	23.110000	34.030000	613.000000	0.000000	112.000000	53.000000	5.000000	0.000000
1.880000	23.180000	34.030000	586.000000	0.000000	111.000000	53.000000	7.000000	0.000000
1.890000	23.330000	34.030000	512.000000	0.000000	111.000000	53.000000	15.000000	0.000000
1.900000	23.450000	34.110000	405.000000	0.000000	112.000000	54.000000	12.000000	8.000000
1.910000	23.530000	34.190000	332.000000	0.000000	112.000000	54.000000	8.000000	8.000000
1.920000	23.630000	34.300000	279.000000	0.000000	112.000000	54.000000	10.000000	11.000000
1.930000	23.750000	34.450000	252.000000	0.000000	112.000000	54.000000	12.000000	15.000000
1.940000	23.950000	34.690000	257.000000	0.000000	112.000000	54.000000	20.000000	24.000000
1.950000	24.210000	35.030000	279.000000	0.000000	112.000000	55.000000	26.000000	34.000000
1.960000	24.540000	35.450000	315.000000	0.000000	112.000000	55.000000	33.000000	42.000000
1.970000	24.910000	35.990000	369.000000	0.000000	112.000000	55.000000	37.000000	54.000000
1.980000	25.320000	36.580000	448.000000	0.000000	112.000000	55.000000	41.000000	59.000000
1.990000	25.690000	37.200000	504.000000	0.000000	112.000000	55.000000	37.000000	62.000000
2.000000	25.850000	37.700000	539.000000	0.000000	113.000000	56.000000	16.000000	50.000000
2.010000	25.850000	37.930000	588.000000	0.000000	115.000000	55.000000	0.000000	23.000000
2.020000	25.670000	37.980000	589.000000	0.000000	115.000000	55.000000	-18.000000	5.000000
2.030000	25.040000	37.790000	592.000000	0.000000	116.000000	55.000000	-63.000000	-19.000000
2.040000	24.140000	37.330000	595.000000	0.000000	116.000000	55.000000	-90.000000	-46.000000
2.050000	23.190000	36.680000	585.000000	0.000000	116.000000	55.000000	-95.000000	-65.000000
2.060000	22.260000	35.980000	594.000000	0.000000	115.000000	54.000000	-93.000000	-70.000000
2.070000	21.750000	35.290000	594.000000	0.000000	115.000000	54.000000	-51.000000	-69.000000
2.080000	21.510000	34.770000	591.000000	0.000000	115.000000	54.000000	-24.000000	-52.000000
2.090000	21.660000	34.360000	591.000000	0.000000	113.000000	54.000000	15.000000	-41.000000
2.100000	22.070000	33.980000	586.000000	0.000000	113.000000	54.000000	41.000000	-38.000000
2.110000	22.660000	33.770000	591.000000	0.000000	113.000000	54.000000	59.000000	-21.000000
2.120000	23.350000	33.670000	600.000000	0.000000	112.000000	54.000000	69.000000	-10.000000
2.130000	24.060000	33.780000	610.000000	0.000000	112.000000	54.000000	71.000000	11.000000
2.140000	24.800000	34.070000	630.000000	0.000000	112.000000	54.000000	74.000000	29.000000
2.150000	25.540000	34.470000	647.000000	0.000000	112.000000	54.000000	74.000000	40.000000
2.160000	26.280000	34.960000	665.000000	0.000000	112.000000	55.000000	74.000000	49.000000
2.170000	26.770000	35.510000	671.000000	0.000000	114.000000	55.000000	49.000000	55.000000
2.180000	27.070000	36.100000	671.000000	0.000000	114.000000	55.000000	30.000000	59.000000
2.190000	27.240000	36.590000	670.000000	0.000000	115.000000	55.000000	17.000000	49.000000
2.200000	27.240000	37.030000	661.000000	0.000000	115.000000	55.000000	0.000000	44.000000
2.210000	27.030000	37.300000	645.000000	0.000000	115.000000	55.000000	-21.000000	27.000000
