t	x	y	pressure	penup	azimuth	inclination	v_x	v_y
0.000000	90.250000	42.680000	191.000000	1.000000	165.000000	49.000000	0.000000	0.000000
0.010000	90.030000	42.050000	226.000000	0.000000	164.000000	50.000000	-22.000000	-63.000000
0.020000	90.080000	42.050000	272.000000	0.000000	164.000000	50.000000	5.000000	0.000000
0.030000	90.230000	42.050000	366.000000	0.000000	163.000000	50.000000	15.000000	0.000000
0.040000	90.550000	42.170000	423.000000	0.000000	163.000000	50.000000	32.000000	12.000000
0.050000	91.060000	42.400000	458.000000	0.000000	162.000000	51.000000	51.000000	23.000000
0.060000	91.700000	42.870000	498.000000	0.000000	161.000000	50.000000	64.000000	47.000000
0.070000	92.450000	43.550000	545.000000	0.000000	162.000000	51.000000	75.000000	68.000000
0.080000	93.190000	44.370000	588.000000	0.000000	162.000000	52.000000	74.000000	82.000000
0.090000	93.930000	45.200000	620.000000	0.000000	162.000000	52.000000	74.000000	83.000000
0.100000	94.530000	46.150000	628.000000	0.000000	162.000000	52.000000	60.000000	95.000000
0.110000	95.040000	47.190000	638.000000	0.000000	162.000000	52.000000	51.000000	104.000000
0.120000	95.380000	48.260000	641.000000	0.000000	162.000000	52.000000	34.000000	107.000000
0.130000	95.730000	49.450000	647.000000	0.000000	162.000000	52.000000	35.000000	119.000000
0.140000	95.970000	50.720000	639.000000	0.000000	162.000000	52.000000	24.000000	127.000000
0.150000	96.130000	51.700000	636.000000	0.000000	162.000000	51.000000	16.000000	98.000000
0.160000	96.250000	52.670000	627.000000	0.000000	161.000000	50.000000	12.000000	97.000000
0.170000	96.250000	53.220000	628.000000	0.000000	162.000000	50.000000	0.000000	55.000000
0.180000	96.250000	53.510000	631.000000	0.000000	161.000000	48.000000	0.000000	29.000000
0.190000	96.170000	53.510000	628.000000	0.000000	162.000000	48.000000	-8.000000	0.000000
0.200000	96.120000	53.510000	616.000000	0.000000	163.000000	47.000000	-5.000000	0.000000
0.210000	96.120000	53.510000	620.000000	0.000000	163.000000	47.000000	0.000000	0.000000
0.220000	95.890000	53.130000	620.000000	0.000000	165.000000	47.000000	-23.000000	-38.000000
0.230000	95.570000	52.530000	614.000000	0.000000	165.000000	46.000000	-32.000000	-60.000000
0.240000	95.210000	51.800000	614.000000	0.000000	166.000000	46.000000	-36.000000	-73.000000
0.250000	94.930000	51.020000	613.000000	0.000000	166.000000	46.000000	-28.000000	-78.000000
0.260000	94.670000	50.010000	616.000000	0.000000	167.000000	46.000000	-26.000000	-101.000000
0.270000	94.380000	48.860000	610.000000	0.000000	167.000000	47.000000	-29.000000	-115.000000
0.280000	94.160000	47.680000	620.000000	0.000000	167.000000	47.000000	-22.000000	-118.000000
0.290000	93.970000	46.760000	610.000000	0.000000	167.000000	47.000000	-19.000000	-92.000000
0.300000	93.790000	46.020000	613.000000	0.000000	167.000000	48.000000	-18.000000	-74.000000
0.310000	93.920000	45.400000	611.000000	0.000000	167.000000	49.000000	13.000000	-62.000000
0.320000	94.060000	44.850000	613.000000	0.000000	167.000000	50.000000	14.000000	-55.000000
0.330000	94.170000	44.340000	617.000000	0.000000	166.000000	51.000000	11.000000	-51.000000
0.340000	94.260000	43.990000	616.000000	0.000000	167.000000	51.000000	9.000000	-35.000000
0.350000	94.400000	43.840000	620.000000	0.000000	167.000000	51.000000	14.000000	-15.000000
0.360000	94.510000	43.840000	631.000000	0.000000	167.000000	51.000000	11.000000	0.000000
0.370000	94.560000	43.840000	641.000000	0.000000	167.000000	51.000000	5.000000	0.000000
0.380000	94.560000	43.840000	673.000000	0.000000	166.000000	51.000000	0.000000	0.000000
0.390000	94.560000	43.840000	694.000000	0.000000	166.000000	51.000000	0.000000	0.000000
0.400000	94.560000	43.840000	714.000000	0.000000	166.000000	51.000000	0.000000	0.000000
0.410000	94.560000	43.890000	721.000000	0.000000	166.000000	51.000000	0.000000	5.000000
0.420000	94.560000	43.890000	731.000000	0.000000	166.000000	51.000000	0.000000	0.000000
0.430000	94.560000	43.890000	736.000000	0.000000	166.000000	51.000000	0.000000	0.000000
0.440000	94.560000	43.890000	739.000000	0.000000	166.000000	51.000000	0.000000	0.000000
0.450000	94.560000	43.890000	740.000000	0.000000	166.000000	51.000000	0.000000	0.000000
0.460000	94.560000	43.890000	748.000000	0.000000	166.000000	51.000000	0.000000	0.000000
0.470000	94.560000	43.890000	757.000000	0.000000	166.000000	51.000000	0.000000	0.000000
0.480000	94.560000	43.890000	763.000000	0.000000	166.000000	51.000000	0.000000	0.000000
0.490000	94.560000	43.890000	761.000000	0.000000	166.000000	51.000000	0.000000	0.000000
0.500000	94.560000	43.890000	753.000000	0.000000	166.000000	51.000000	0.000000	0.000000
0.510000	94.560000	43.890000	753.000000	0.000000	166.000000	51.000000	0.000000	0.000000
0.520000	94.560000	43.890000	757.000000	0.000000	166.000000	51.000000	0.000000	0.000000
0.530000	94.560000	43.840000	760.000000	0.000000	166.000000	51.000000	0.000000	-5.000000
0.540000	94.560000	43.840000	762.000000	0.000000	166.000000	51.000000	0.000000	0.000000
0.550000	94.560000	43.840000	762.000000	0.000000	166.000000	51.000000	0.000000	0.000000
0.560000	94.560000	43.840000	773.000000	0.000000	166.000000	51.000000	0.000000	0.000000
0.570000	94.560000	43.840000	779.000000	0.000000	166.000000	51.000000	0.000000	0.000000
0.580000	94.560000	43.840000	784.000000	0.000000	166.000000	51.000000	0.000000	0.000000
0.590000	94.560000	43.840000	787.000000	0.000000	166.000000	51.000000	0.000000	0.000000
0.600000	94.560000	43.840000	787.000000	0.000000	166.000000	51.000000	0.000000	0.000000
0.610000	94.560000	43.840000	787.000000	0.000000	166.000000	51.000000	0.000000	0.000000
0.620000	94.560000	43.840000	791.000000	0.000000	166.000000	51.000000	0.000000	0.000000
0.630000	94.560000	43.840000	790.000000	0.000000	166.000000	51.000000	0.000000	0.000000
0.640000	94.560000	43.840000	794.000000	0.000000	167.000000	51.000000	0.000000	0.000000
0.650000	94.560000	43.840000	794.000000	0.000000	167.000000	51.000000	0.000000	0.000000
0.660000	94.560000	43.840000	790.000000	0.000000	167.000000	51.000000	0.000000	0.000000
0.670000	94.560000	43.840000	790.000000	0.000000	167.000000	51.000000	0.000000	0.000000
0.680000	94.560000	43.840000	790.000000	0.000000	167.000000	51.000000	0.000000	0.000000
0.690000	94.560000	43.840000	791.000000	0.000000	167.000000	51.000000	0.000000	0.000000
0.700000	94.560000	43.840000	791.000000	0.000000	167.000000	51.000000	0.000000	0.000000
0.710000	94.560000	43.840000	790.000000	0.000000	167.000000	51.000000	0.000000	0.000000
0.720000	94.560000	43.840000	790.000000	0.000000	167.000000	51.000000	0.000000	0.000000
0.730000	94.560000	43.840000	793.000000	0.000000	167.000000	51.000000	0.000000	0.000000
0.740000	94.560000	43.840000	791.000000	0.000000	167.000000	51.000000	0.000000	0.000000
0.750000	94.560000	43.840000	790.000000	0.000000	167.000000	51.000000	0.000000	0.000000
0.760000	94.560000	43.840000	788.000000	0.000000	167.000000	51.000000	0.000000	0.000000
0.770000	94.560000	43.840000	787.000000	0.000000	168.000000	50.000000	0.000000	0.000000
0.780000	94.560000	43.840000	787.000000	0.000000	168.000000	50.000000	0.000000	0.000000
0.790000	94.560000	43.840000	787.000000	0.000000	168.000000	50.000000	0.000000	0.000000
0.800000	94.560000	43.790000	788.000000	0.000000	167.000000	51.000000	0.000000	-5.000000
0.810000	94.560000	43.740000	788.000000	0.000000	167.000000	51.000000	0.000000	-5.000000
0.820000	94.640000	43.680000	790.000000	0.000000	167.000000	51.000000	8.000000	-6.000000
0.830000	94.730000	43.560000	788.000000	0.000000	167.000000	51.000000	9.000000	-12.000000
0.840000	94.890000	43.440000	788.000000	0.000000	167.000000	51.000000	16.000000	-12.000000
0.850000	95.060000	43.320000	788.000000	0.000000	167.000000	51.000000	17.000000	-12.000000
0.860000	95.240000	43.220000	787.000000	0.000000	167.000000	51.000000	18.000000	-10.000000
0.870000	95.460000	43.120000	790.000000	0.000000	167.000000	51.000000	22.000000	-10.000000
0.880000	95.600000	43.060000	788.000000	0.000000	166.000000	51.000000	14.000000	-6.000000
0.890000	95.600000	43.060000	788.000000	0.000000	166.000000	51.000000	0.000000	0.000000
0.900000	95.600000	43.060000	791.000000	0.000000	166.000000	51.000000	0.000000	0.000000
0.910000	95.860000	42.880000	791.000000	0.000000	167.000000	50.000000	26.000000	-18.000000
0.920000	95.960000	42.880000	794.000000	0.000000	167.000000	50.000000	10.000000	0.000000
0.930000	96.050000	42.820000	783.000000	0.000000	167.000000	50.000000	9.000000	-6.000000
0.940000	96.050000	42.820000	790.000000	0.000000	167.000000	50.000000	0.000000	0.000000
0.950000	96.050000	42.820000	797.000000	0.000000	168.000000	50.000000	0.000000	0.000000
0.960000	96.050000	42.820000	806.000000	0.000000	168.000000	50.000000	0.000000	0.000000
0.970000	96.050000	42.820000	806.000000	0.000000	168.000000	50.000000	0.000000	0.000000
0.980000	95.890000	42.900000	806.000000	0.000000	168.000000	50.000000	-16.000000	8.000000
0.990000	95.540000	42.900000	802.000000	0.000000	168.000000	50.000000	-35.000000	0.000000
1.000000	95.030000	42.960000	796.000000	0.000000	168.000000	50.000000	-51.000000	6.000000
1.010000	94.060000	42.780000	787.000000	0.000000	168.000000	50.000000	-97.000000	-18.000000
1.020000	92.930000	42.560000	783.000000	0.000000	168.000000	50.000000	-113.000000	-22.000000
1.030000	91.680000	42.160000	794.000000	0.000000	168.000000	50.000000	-125.000000	-40.000000
1.040000	90.380000	41.650000	797.000000	0.000000	168.000000	50.000000	-130.000000	-51.000000
1.050000	89.530000	41.170000	790.000000	0.000000	168.000000	50.000000	-85.000000	-48.000000
1.060000	88.970000	40.820000	788.000000	0.000000	167.000000	50.000000	-56.000000	-35.000000
1.070000	88.850000	40.550000	779.000000	0.000000	167.000000	50.000000	-12.000000	-27.000000
1.080000	88.780000	40.420000	777.000000	0.000000	167.000000	50.000000	-7.000000	-13.000000
1.090000	88.830000	40.360000	777.000000	0.000000	165.000000	50.000000	5.000000	-6.000000
1.100000	88.930000	40.360000	779.000000	0.000000	165.000000	50.000000	10.000000	0.000000
1.110000	89.210000	40.360000	785.000000	0.000000	164.000000	50.000000	28.000000	0.000000
1.120000	89.610000	40.280000	785.000000	0.000000	164.000000	50.000000	40.000000	-8.000000
1.130000	89.970000	40.280000	784.000000	0.000000	164.000000	50.000000	36.000000	0.000000
1.140000	90.120000	40.280000	787.000000	0.000000	164.000000	50.000000	15.000000	0.000000
1.150000	90.120000	40.280000	790.000000	0.000000	164.000000	50.000000	0.000000	0.000000
1.160000	90.210000	40.280000	796.000000	0.000000	164.000000	50.000000	9.000000	0.000000
1.170000	90.270000	40.280000	785.000000	0.000000	164.000000	51.000000	6.000000	0.000000
1.180000	90.560000	40.450000	788.000000	0.000000	165.000000	51.000000	29.000000	17.000000
1.190000	91.010000	40.670000	790.000000	0.000000	165.000000	51.000000	45.000000	22.000000
1.200000	91.610000	40.940000	794.000000	0.000000	165.000000	51.000000	60.000000	27.000000
1.210000	92.250000	41.280000	800.000000	0.000000	166.000000	51.000000	64.000000	34.000000
1.220000	93.190000	41.690000	805.000000	0.000000	166.000000	51.000000	94.000000	41.000000
1.230000	94.310000	42.140000	805.000000	0.000000	167.000000	50.000000	112.000000	45.000000
1.240000	95.300000	42.680000	805.000000	0.000000	167.000000	50.000000	99.000000	54.000000
1.250000	96.010000	43.190000	808.000000	0.000000	167.000000	50.000000	71.000000	51.000000
1.260000	96.530000	43.660000	802.000000	0.000000	167.000000	50.000000	52.000000	47.000000
1.270000	97.120000	44.270000	791.000000	0.000000	166.000000	51.000000	59.000000	61.000000
1.280000	97.780000	44.960000	797.000000	0.000000	166.000000	51.000000	66.000000	69.000000
1.290000	98.360000	45.640000	790.000000	0.000000	166.000000	51.000000	58.000000	68.000000
1.300000	98.870000	46.200000	770.000000	0.000000	167.000000	52.000000	51.000000	56.000000
1.310000	99.160000	46.680000	770.000000	0.000000	167.000000	52.000000	29.000000	48.000000
1.320000	99.250000	46.960000	765.000000	0.000000	167.000000	52.000000	9.000000	28.000000
1.330000	99.250000	47.100000	757.000000	0.000000	167.000000	52.000000	0.000000	14.000000
1.340000	99.110000	47.160000	759.000000	0.000000	168.000000	52.000000	-14.000000	6.000000
1.350000	99.060000	47.160000	750.000000	0.000000	168.000000	52.000000	-5.000000	0.000000
1.360000	98.970000	47.160000	760.000000	0.000000	168.000000	52.000000	-9.000000	0.000000
1.370000	98.850000	46.780000	757.000000	0.000000	168.000000	52.000000	-12.000000	-38.000000
1.380000	98.500000	46.190000	758.000000	0.000000	168.000000	52.000000	-35.000000	-59.000000
1.390000	98.200000	45.420000	757.000000	0.000000	169.000000	51.000000	-30.000000	-77.000000
1.400000	98.130000	44.710000	758.000000	0.000000	169.000000	51.000000	-7.000000	-71.000000
1.410000	98.210000	44.140000	761.000000	0.000000	169.000000	51.000000	8.000000	-57.000000
1.420000	98.350000	43.640000	759.000000	0.000000	169.000000	51.000000	14.000000	-50.000000
1.430000	98.530000	43.260000	771.000000	0.000000	167.000000	52.000000	18.000000	-38.000000
1.440000	98.530000	43.260000	790.000000	0.000000	168.000000	52.000000	0.000000	0.000000
1.450000	99.060000	43.180000	790.000000	0.000000	168.000000	52.000000	53.000000	-8.000000
1.460000	99.530000	43.330000	793.000000	0.000000	168.000000	52.000000	47.000000	15.000000
1.470000	100.100000	43.700000	796.000000	0.000000	169.000000	53.000000	57.000000	37.000000
1.480000	100.540000	44.210000	800.000000	0.000000	169.000000	53.000000	44.000000	51.000000
1.490000	100.910000	44.730000	797.000000	0.000000	169.000000	53.000000	37.000000	52.000000
1.500000	101.230000	45.350000	796.000000	0.000000	171.000000	53.000000	32.000000	62.000000
1.510000	101.480000	46.040000	783.000000	0.000000	171.000000	53.000000	25.000000	69.000000
1.520000	101.640000	46.730000	797.000000	0.000000	171.000000	53.000000	16.000000	69.000000
1.530000	101.750000	47.320000	794.000000	0.000000	172.000000	53.000000	11.000000	59.000000
1.540000	101.750000	47.400000	785.000000	0.000000	172.000000	53.000000	0.000000	8.000000
1.550000	101.690000	47.170000	782.000000	0.000000	172.000000	53.000000	-6.000000	-23.000000
1.560000	101.600000	46.910000	780.000000	0.000000	173.000000	53.000000	-9.000000	-26.000000
1.570000	101.440000	46.410000	779.000000	0.000000	173.000000	53.000000	-16.000000	-50.000000
1.580000	101.310000	45.740000	780.000000	0.000000	173.000000	53.000000	-13.000000	-67.000000
1.590000	101.200000	45.060000	782.000000	0.000000	173.000000	53.000000	-11.000000	-68.000000
1.600000	101.250000	44.490000	787.000000	0.000000	173.000000	53.000000	5.000000	-57.000000
1.610000	101.420000	43.990000	788.000000	0.000000	173.000000	53.000000	17.000000	-50.000000
1.620000	101.680000	43.700000	794.000000	0.000000	172.000000	53.000000	26.000000	-29.000000
1.630000	101.860000	43.510000	790.000000	0.000000	173.000000	53.000000	18.000000	-19.000000
1.640000	102.050000	43.380000	800.000000	0.000000	173.000000	53.000000	19.000000	-13.000000
1.650000	102.150000	43.380000	830.000000	0.000000	173.000000	53.000000	10.000000	0.000000
1.660000	102.150000	43.380000	846.000000	0.000000	173.000000	53.000000	0.000000	0.000000
1.670000	102.150000	43.380000	869.000000	0.000000	173.000000	53.000000	0.000000	0.000000
1.680000	102.150000	43.380000	900.000000	0.000000	173.000000	53.000000	0.000000	0.000000
1.690000	102.150000	43.380000	903.000000	0.000000	173.000000	53.000000	0.000000	0.000000
1.700000	102.200000	43.380000	917.000000	0.000000	173.000000	53.000000	5.000000	0.000000
1.710000	102.200000	43.430000	932.000000	0.000000	172.000000	53.000000	0.000000	5.000000
1.720000	102.140000	43.430000	948.000000	0.000000	171.000000	53.000000	-6.000000	0.000000
1.730000	102.190000	43.430000	938.000000	0.000000	171.000000	53.000000	5.000000	0.000000
1.740000	102.190000	43.430000	953.000000	0.000000	169.000000	53.000000	0.000000	0.000000
1.750000	102.190000	43.430000	962.000000	0.000000	169.000000	53.000000	0.000000	0.000000
1.760000	102.190000	43.430000	965.000000	0.000000	169.000000	53.000000	0.000000	0.000000
1.770000	102.190000	43.430000	974.000000	0.000000	168.000000	52.000000	0.000000	0.000000
1.780000	102.190000	43.430000	973.000000	0.000000	168.000000	52.000000	0.000000	0.000000
1.790000	102.190000	43.430000	968.000000	0.000000	168.000000	52.000000	0.000000	0.000000
1.800000	102.190000	43.430000	982.000000	0.000000	168.000000	52.000000	0.000000	0.000000
1.810000	102.190000	43.430000	982.000000	0.000000	168.000000	52.000000	0.000000	0.000000
1.820000	102.190000	43.430000	980.000000	0.000000	168.000000	52.000000	0.000000	0.000000
1.830000	102.190000	43.430000	976.000000	0.000000	168.000000	52.000000	0.000000	0.000000
1.840000	102.190000	43.430000	976.000000	0.000000	167.000000	52.000000	0.000000	0.000000
1.850000	102.190000	43.430000	985.000000	0.000000	167.000000	52.000000	0.000000	0.000000
1.860000	102.190000	43.430000	985.000000	0.000000	167.000000	52.000000	0.000000	0.000000
1.870000	102.190000	43.430000	989.000000	0.000000	167.000000	52.000000	0.000000	0.000000
1.880000	102.190000	43.430000	994.000000	0.000000	167.000000	52.000000	0.000000	0.000000
1.890000	102.190000	43.430000	995.000000	0.000000	166.000000	52.000000	0.000000	0.000000
1.900000	102.190000	43.430000	992.000000	0.000000	166.000000	52.000000	0.000000	0.000000
1.910000	102.190000	43.430000	994.000000	0.000000	166.000000	52.000000	0.000000	0.000000
1.920000	102.190000	43.430000	991.000000	0.000000	166.000000	52.000000	0.000000	0.000000
1.930000	102.190000	43.430000	994.000000	0.000000	166.000000	51.000000	0.000000	0.000000
1.940000	102.190000	43.430000	992.000000	0.000000	166.000000	51.000000	0.000000	0.000000
1.950000	102.190000	43.430000	992.000000	0.000000	166.000000	51.000000	0.000000	0.000000
1.960000	102.190000	43.430000	992.000000	0.000000	166.000000	51.000000	0.000000	0.000000
1.970000	102.190000	43.430000	992.000000	0.000000	166.000000	51.000000	0.000000	0.000000
1.980000	102.110000	43.430000	992.000000	0.000000	166.000000	51.000000	-8.000000	0.000000
1.990000	102.110000	43.430000	991.000000	0.000000	166.000000	51.000000	0.000000	0.000000
2.000000	102.110000	43.430000	991.000000	0.000000	166.000000	51.000000	0.000000	0.000000
2.010000	102.110000	43.430000	985.000000	0.000000	166.000000	51.000000	0.000000	0.000000
2.020000	102.110000	43.430000	983.000000	0.000000	166.000000	51.000000	0.000000	0.000000
2.030000	102.110000	43.430000	982.000000	0.000000	166.000000	51.000000	0.000000	0.000000
2.040000	102.110000	43.430000	982.000000	0.000000	166.000000	51.000000	0.000000	0.000000
2.050000	102.200000	43.380000	982.000000	0.000000	167.000000	51.000000	9.000000	-5.000000
2.060000	102.200000	43.380000	982.000000	0.000000	167.000000	51.000000	0.000000	0.000000
2.070000	102.110000	43.450000	983.000000	0.000000	167.000000	51.000000	-9.000000	7.000000
2.080000	102.110000	43.450000	980.000000	0.000000	167.000000	51.000000	0.000000	0.000000
2.090000	102.110000	43.450000	965.000000	0.000000	167.000000	51.000000	0.000000	0.000000
2.100000	102.110000	43.450000	944.000000	0.000000	167.000000	51.000000	0.000000	0.000000
2.110000	102.110000	43.450000	947.000000	0.000000	167.000000	51.000000	0.000000	0.000000
2.120000	102.110000	43.400000	936.000000	0.000000	167.000000	51.000000	0.000000	-5.000000
2.130000	102.110000	43.400000	932.000000	0.000000	167.000000	51.000000	0.000000	0.000000
2.140000	102.110000	43.400000	933.000000	0.000000	167.000000	51.000000	0.000000	0.000000
2.150000	102.110000	43.400000	933.000000	0.000000	167.000000	51.000000	0.000000	0.000000
2.160000	102.110000	43.400000	932.000000	0.000000	167.000000	51.000000	0.000000	0.000000
2.170000	102.110000	43.400000	932.000000	0.000000	167.000000	51.000000	0.000000	0.000000
2.180000	102.110000	43.400000	932.000000	0.000000	167.000000	51.000000	0.000000	0.000000
2.190000	102.110000	43.400000	932.000000	0.000000	167.000000	51.000000	0.000000	0.000000
2.200000	102.110000	43.400000	929.000000	0.000000	167.000000	51.000000	0.000000	0.000000
2.210000	102.110000	43.400000	930.000000	0.000000	167.000000	51.000000	0.000000	0.000000
