t	x	y	pressure	penup	azimuth	inclination	v_x	v_y
0.000000	14.120000	61.740000	423.000000	1.000000	295.000000	58.000000	0.000000	0.000000
0.010000	12.900000	61.630000	453.000000	0.000000	294.000000	59.000000	-122.000000	-11.000000
0.020000	12.900000	61.630000	536.000000	0.000000	295.000000	60.000000	0.000000	0.000000
0.030000	12.900000	61.630000	636.000000	0.000000	295.000000	62.000000	0.000000	0.000000
0.040000	13.090000	61.890000	671.000000	0.000000	297.000000	63.000000	19.000000	26.000000
0.050000	13.390000	62.300000	688.000000	0.000000	298.000000	65.000000	30.000000	41.000000
0.060000	14.040000	63.150000	687.000000	0.000000	299.000000	66.000000	65.000000	85.000000
0.070000	15.170000	64.300000	671.000000	0.000000	302.000000	68.000000	113.000000	115.000000
0.080000	16.630000	65.640000	670.000000	0.000000	302.000000	68.000000	146.000000	134.000000
0.090000	17.970000	67.030000	653.000000	0.000000	300.000000	67.000000	134.000000	139.000000
0.100000	18.990000	68.390000	641.000000	0.000000	296.000000	66.000000	102.000000	136.000000
0.110000	19.800000	69.720000	617.000000	0.000000	294.000000	64.000000	81.000000	133.000000
0.120000	20.440000	70.910000	595.000000	0.000000	291.000000	64.000000	64.000000	119.000000
0.130000	21.040000	72.000000	592.000000	0.000000	289.000000	62.000000	60.000000	109.000000
0.140000	21.430000	73.030000	589.000000	0.000000	286.000000	60.000000	39.000000	103.000000
0.150000	21.690000	73.730000	592.000000	0.000000	284.000000	59.000000	26.000000	70.000000
0.160000	21.780000	74.100000	594.000000	0.000000	281.000000	58.000000	9.000000	37.000000
0.170000	21.780000	74.250000	602.000000	0.000000	281.000000	57.000000	0.000000	15.000000
0.180000	21.780000	74.160000	609.000000	0.000000	279.000000	57.000000	0.000000	-9.000000
0.190000	21.640000	73.590000	614.000000	0.000000	279.000000	57.000000	-14.000000	-57.000000
0.200000	21.450000	72.710000	636.000000	0.000000	279.000000	56.000000	-19.000000	-88.000000
0.210000	21.270000	71.590000	658.000000	0.000000	279.000000	56.000000	-18.000000	-112.000000
0.220000	21.180000	70.180000	699.000000	0.000000	279.000000	56.000000	-9.000000	-141.000000
0.230000	21.180000	68.570000	703.000000	0.000000	279.000000	56.000000	0.000000	-161.000000
0.240000	21.180000	66.900000	720.000000	0.000000	279.000000	57.000000	0.000000	-167.000000
0.250000	21.400000	65.300000	746.000000	0.000000	279.000000	57.000000	22.000000	-160.000000
0.260000	21.690000	63.950000	757.000000	0.000000	281.000000	57.000000	29.000000	-135.000000
0.270000	22.050000	62.730000	780.000000	0.000000	281.000000	57.000000	36.000000	-122.000000
0.280000	22.350000	61.970000	788.000000	0.000000	283.000000	57.000000	30.000000	-76.000000
0.290000	22.620000	61.620000	787.000000	0.000000	284.000000	57.000000	27.000000	-35.000000
0.300000	22.620000	61.540000	770.000000	0.000000	286.000000	57.000000	0.000000	-8.000000
0.310000	22.320000	61.540000	756.000000	0.000000	286.000000	57.000000	-30.000000	0.000000
0.320000	21.870000	61.470000	761.000000	0.000000	286.000000	57.000000	-45.000000	-7.000000
0.330000	20.990000	61.630000	755.000000	0.000000	287.000000	57.000000	-88.000000	16.000000
0.340000	19.820000	61.900000	754.000000	0.000000	288.000000	58.000000	-117.000000	27.000000
0.350000	18.450000	62.180000	754.000000	0.000000	288.000000	58.000000	-137.000000	28.000000
0.360000	16.880000	62.350000	758.000000	0.000000	288.000000	58.000000	-157.000000	17.000000
0.370000	15.520000	62.440000	757.000000	0.000000	288.000000	58.000000	-136.000000	9.000000
0.380000	14.300000	62.520000	761.000000	0.000000	289.000000	59.000000	-122.000000	8.000000
0.390000	13.260000	62.520000	761.000000	0.000000	288.000000	60.000000	-104.000000	0.000000
0.400000	12.620000	62.450000	763.000000	0.000000	288.000000	61.000000	-64.000000	-7.000000
0.410000	12.250000	62.370000	751.000000	0.000000	289.000000	62.000000	-37.000000	-8.000000
0.420000	12.200000	62.370000	770.000000	0.000000	291.000000	64.000000	-5.000000	0.000000
0.430000	12.200000	62.370000	796.000000	0.000000	292.000000	64.000000	0.000000	0.000000
0.440000	12.320000	62.370000	806.000000	0.000000	293.000000	65.000000	12.000000	0.000000
0.450000	12.550000	62.470000	791.000000	0.000000	291.000000	67.000000	23.000000	10.000000
0.460000	13.200000	62.620000	790.000000	0.000000	291.000000	67.000000	65.000000	15.000000
0.470000	14.140000	62.820000	794.000000	0.000000	291.000000	67.000000	94.000000	20.000000
0.480000	15.290000	63.040000	777.000000	0.000000	291.000000	67.000000	115.000000	22.000000
0.490000	16.620000	63.380000	754.000000	0.000000	293.000000	65.000000	133.000000	34.000000
0.500000	18.070000	63.770000	730.000000	0.000000	292.000000	64.000000	145.000000	39.000000
0.510000	19.690000	64.240000	722.000000	0.000000	291.000000	64.000000	162.000000	47.000000
0.520000	21.280000	64.730000	728.000000	0.000000	291.000000	61.000000	159.000000	49.000000
0.530000	22.300000	65.200000	728.000000	0.000000	290.000000	60.000000	102.000000	47.000000
0.540000	22.940000	65.550000	719.000000	0.000000	289.000000	59.000000	64.000000	35.000000
0.550000	23.450000	65.840000	702.000000	0.000000	288.000000	58.000000	51.000000	29.000000
0.560000	23.830000	66.190000	697.000000	0.000000	289.000000	57.000000	38.000000	35.000000
0.570000	24.130000	66.550000	687.000000	0.000000	289.000000	57.000000	30.000000	36.000000
0.580000	24.230000	66.920000	659.000000	0.000000	289.000000	57.000000	10.000000	37.000000
0.590000	24.230000	67.100000	628.000000	0.000000	289.000000	57.000000	0.000000	18.000000
0.600000	24.110000	67.160000	613.000000	0.000000	288.000000	56.000000	-12.000000	6.000000
0.610000	23.870000	67.160000	616.000000	0.000000	288.000000	56.000000	-24.000000	0.000000
0.620000	23.560000	66.820000	620.000000	0.000000	288.000000	56.000000	-31.000000	-34.000000
0.630000	23.150000	66.360000	627.000000	0.000000	288.000000	56.000000	-41.000000	-46.000000
0.640000	22.690000	65.770000	631.000000	0.000000	288.000000	56.000000	-46.000000	-59.000000
0.650000	22.360000	65.180000	637.000000	0.000000	288.000000	56.000000	-33.000000	-59.000000
0.660000	22.120000	64.580000	652.000000	0.000000	288.000000	56.000000	-24.000000	-60.000000
0.670000	21.980000	64.060000	673.000000	0.000000	288.000000	56.000000	-14.000000	-52.000000
0.680000	21.980000	63.520000	675.000000	0.000000	288.000000	56.000000	0.000000	-54.000000
0.690000	22.030000	62.950000	675.000000	0.000000	287.000000	55.000000	5.000000	-57.000000
0.700000	22.440000	62.610000	685.000000	0.000000	288.000000	56.000000	41.000000	-34.000000
0.710000	23.050000	62.410000	696.000000	0.000000	288.000000	56.000000	61.000000	-20.000000
0.720000	23.800000	62.410000	690.000000	0.000000	288.000000	56.000000	75.000000	0.000000
0.730000	24.540000	62.690000	691.000000	0.000000	289.000000	57.000000	74.000000	28.000000
0.740000	25.140000	63.090000	691.000000	0.000000	289.000000	57.000000	60.000000	40.000000
0.750000	25.650000	63.570000	690.000000	0.000000	289.000000	57.000000	51.000000	48.000000
0.760000	26.050000	64.120000	694.000000	0.000000	289.000000	57.000000	40.000000	55.000000
0.770000	26.410000	64.730000	685.000000	0.000000	289.000000	57.000000	36.000000	61.000000
0.780000	26.680000	65.330000	676.000000	0.000000	289.000000	57.000000	27.000000	60.000000
0.790000	26.760000	65.860000	670.000000	0.000000	289.000000	57.000000	8.000000	53.000000
0.800000	26.760000	66.180000	659.000000	0.000000	289.000000	57.000000	0.000000	32.000000
0.810000	26.660000	66.380000	644.000000	0.000000	289.000000	57.000000	-10.000000	20.000000
0.820000	26.600000	66.440000	641.000000	0.000000	289.000000	57.000000	-6.000000	6.000000
0.830000	26.600000	66.380000	644.000000	0.000000	289.000000	57.000000	0.000000	-6.000000
0.840000	26.530000	66.240000	644.000000	0.000000	289.000000	57.000000	-7.000000	-14.000000
0.850000	26.450000	65.850000	653.000000	0.000000	289.000000	57.000000	-8.000000	-39.000000
0.860000	26.400000	65.420000	662.000000	0.000000	289.000000	57.000000	-5.000000	-43.000000
0.870000	26.400000	64.960000	671.000000	0.000000	289.000000	57.000000	0.000000	-46.000000
0.880000	26.450000	64.480000	669.000000	0.000000	289.000000	57.000000	5.000000	-48.000000
0.890000	26.590000	64.010000	673.000000	0.000000	289.000000	57.000000	14.000000	-47.000000
0.900000	26.800000	63.510000	696.000000	0.000000	289.000000	57.000000	21.000000	-50.000000
0.910000	27.160000	63.130000	691.000000	0.000000	289.000000	57.000000	36.000000	-38.000000
0.920000	27.690000	62.850000	705.000000	0.000000	289.000000	57.000000	53.000000	-28.000000
0.930000	28.320000	62.740000	714.000000	0.000000	289.000000	57.000000	63.000000	-11.000000
0.940000	28.930000	62.850000	717.000000	0.000000	289.000000	57.000000	61.000000	11.000000
0.950000	29.500000	63.120000	714.000000	0.000000	287.000000	57.000000	57.000000	27.000000
0.960000	29.980000	63.560000	714.000000	0.000000	287.000000	57.000000	48.000000	44.000000
0.970000	30.140000	63.970000	710.000000	0.000000	287.000000	57.000000	16.000000	41.000000
0.980000	30.090000	64.360000	696.000000	0.000000	287.000000	57.000000	-5.000000	39.000000
0.990000	29.900000	64.780000	697.000000	0.000000	287.000000	57.000000	-19.000000	42.000000
1.000000	29.520000	65.140000	694.000000	0.000000	287.000000	57.000000	-38.000000	36.000000
1.010000	29.020000	65.370000	691.000000	0.000000	287.000000	57.000000	-50.000000	23.000000
1.020000	28.370000	65.550000	690.000000	0.000000	287.000000	57.000000	-65.000000	18.000000
1.030000	27.620000	65.640000	694.000000	0.000000	287.000000	57.000000	-75.000000	9.000000
1.040000	26.810000	65.490000	700.000000	0.000000	289.000000	57.000000	-81.000000	-15.000000
1.050000	26.220000	65.180000	702.000000	0.000000	289.000000	57.000000	-59.000000	-31.000000
1.060000	25.840000	64.750000	710.000000	0.000000	289.000000	57.000000	-38.000000	-43.000000
1.070000	25.590000	64.330000	733.000000	0.000000	289.000000	57.000000	-25.000000	-42.000000
1.080000	25.590000	63.910000	742.000000	0.000000	289.000000	57.000000	0.000000	-42.000000
1.090000	25.700000	63.560000	755.000000	0.000000	290.000000	58.000000	11.000000	-35.000000
1.100000	25.940000	63.250000	751.000000	0.000000	290.000000	58.000000	24.000000	-31.000000
1.110000	26.590000	63.100000	751.000000	0.000000	290.000000	58.000000	65.000000	-15.000000
1.120000	27.400000	63.050000	746.000000	0.000000	290.000000	58.000000	81.000000	-5.000000
1.130000	28.320000	63.120000	737.000000	0.000000	289.000000	59.000000	92.000000	7.000000
1.140000	29.130000	63.350000	728.000000	0.000000	289.000000	59.000000	81.000000	23.000000
1.150000	29.860000	63.690000	721.000000	0.000000	288.000000	58.000000	73.000000	34.000000
1.160000	30.530000	64.190000	717.000000	0.000000	288.000000	58.000000	67.000000	50.000000
1.170000	31.070000	64.700000	713.000000	0.000000	287.000000	57.000000	54.000000	51.000000
1.180000	31.330000	65.200000	711.000000	0.000000	287.000000	57.000000	26.000000	50.000000
1.190000	31.400000	65.490000	708.000000	0.000000	287.000000	57.000000	7.000000	29.000000
1.200000	31.400000	65.670000	708.000000	0.000000	288.000000	56.000000	0.000000	18.000000
1.210000	31.400000	65.790000	707.000000	0.000000	288.000000	56.000000	0.000000	12.000000
1.220000	31.400000	65.710000	707.000000	0.000000	288.000000	56.000000	0.000000	-8.000000
1.230000	31.340000	65.490000	708.000000	0.000000	287.000000	56.000000	-6.000000	-22.000000
1.240000	31.280000	65.200000	714.000000	0.000000	287.000000	56.000000	-6.000000	-29.000000
1.250000	31.230000	64.740000	717.000000	0.000000	287.000000	56.000000	-5.000000	-46.000000
1.260000	31.330000	64.160000	719.000000	0.000000	287.000000	56.000000	10.000000	-58.000000
1.270000	31.520000	63.430000	717.000000	0.000000	287.000000	56.000000	19.000000	-73.000000
1.280000	31.820000	62.710000	727.000000	0.000000	287.000000	56.000000	30.000000	-72.000000
1.290000	32.060000	62.000000	730.000000	0.000000	285.000000	56.000000	24.000000	-71.000000
1.300000	32.220000	61.590000	721.000000	0.000000	285.000000	55.000000	16.000000	-41.000000
1.310000	32.170000	61.210000	720.000000	0.000000	285.000000	55.000000	-5.000000	-38.000000
1.320000	31.990000	60.940000	727.000000	0.000000	283.000000	55.000000	-18.000000	-27.000000
1.330000	31.410000	60.720000	736.000000	0.000000	283.000000	54.000000	-58.000000	-22.000000
1.340000	30.380000	60.520000	751.000000	0.000000	281.000000	54.000000	-103.000000	-20.000000
1.350000	29.060000	60.280000	780.000000	0.000000	282.000000	55.000000	-132.000000	-24.000000
1.360000	27.180000	60.030000	805.000000	0.000000	282.000000	55.000000	-188.000000	-25.000000
1.370000	25.540000	59.830000	818.000000	0.000000	282.000000	55.000000	-164.000000	-20.000000
1.380000	24.070000	59.720000	828.000000	0.000000	282.000000	56.000000	-147.000000	-11.000000
1.390000	22.820000	59.670000	845.000000	0.000000	283.000000	57.000000	-125.000000	-5.000000
1.400000	21.880000	59.670000	852.000000	0.000000	283.000000	57.000000	-94.000000	0.000000
1.410000	21.140000	59.670000	852.000000	0.000000	283.000000	58.000000	-74.000000	0.000000
1.420000	21.020000	59.600000	857.000000	0.000000	283.000000	58.000000	-12.000000	-7.000000
1.430000	21.020000	59.600000	860.000000	0.000000	285.000000	58.000000	0.000000	0.000000
1.440000	21.080000	59.600000	837.000000	0.000000	285.000000	58.000000	6.000000	0.000000
1.450000	21.340000	59.600000	797.000000	0.000000	285.000000	58.000000	26.000000	0.000000
1.460000	21.820000	59.650000	682.000000	0.000000	285.000000	58.000000	48.000000	5.000000
1.470000	22.440000	59.650000	568.000000	0.000000	285.000000	58.000000	62.000000	0.000000
1.480000	22.930000	59.710000	200.000000	0.000000	285.000000	58.000000	49.000000	6.000000
1.490000	22.930000	59.710000	0.000000	1.000000	286.000000	58.000000	0.000000	0.000000
1.500000	24.060000	59.830000	0.000000	0.000000	286.000000	58.000000	113.000000	12.000000
1.510000	24.730000	59.970000	0.000000	0.000000	286.000000	58.000000	67.000000	14.000000
1.520000	25.620000	60.150000	0.000000	0.000000	286.000000	58.000000	89.000000	18.000000
1.530000	26.340000	60.220000	0.000000	0.000000	286.000000	58.000000	72.000000	7.000000
1.540000	26.950000	60.220000	0.000000	0.000000	288.000000	58.000000	61.000000	0.000000
1.550000	27.750000	60.160000	0.000000	0.000000	289.000000	57.000000	80.000000	-6.000000
1.560000	28.460000	60.110000	0.000000	0.000000	289.000000	57.000000	71.000000	-5.000000
1.570000	29.100000	60.110000	0.000000	0.000000	290.000000	56.000000	64.000000	0.000000
1.580000	29.570000	60.210000	0.000000	0.000000	290.000000	56.000000	47.000000	10.000000
1.590000	29.920000	60.310000	0.000000	0.000000	292.000000	56.000000	35.000000	10.000000
1.600000	30.200000	60.400000	0.000000	0.000000	292.000000	56.000000	28.000000	9.000000
1.610000	30.580000	60.540000	0.000000	0.000000	291.000000	55.000000	38.000000	14.000000
1.620000	31.020000	60.600000	0.000000	0.000000	292.000000	55.000000	44.000000	6.000000
1.630000	31.490000	60.600000	0.000000	0.000000	292.000000	54.000000	47.000000	0.000000
1.640000	31.870000	60.600000	0.000000	0.000000	292.000000	54.000000	38.000000	0.000000
1.650000	31.980000	60.600000	0.000000	0.000000	291.000000	53.000000	11.000000	0.000000
1.660000	31.920000	60.660000	0.000000	0.000000	290.000000	52.000000	-6.000000	6.000000
1.670000	31.920000	60.750000	0.000000	0.000000	290.000000	52.000000	0.000000	9.000000
1.680000	32.080000	60.830000	0.000000	0.000000	290.000000	51.000000	16.000000	8.000000
1.690000	32.320000	60.890000	0.000000	0.000000	288.000000	52.000000	24.000000	6.000000
1.700000	32.410000	60.970000	0.000000	0.000000	288.000000	52.000000	9.000000	8.000000
1.710000	32.410000	60.970000	594.000000	1.000000	288.000000	52.000000	0.000000	0.000000
1.720000	32.580000	61.520000	659.000000	0.000000	287.000000	52.000000	17.000000	55.000000
1.730000	32.940000	61.390000	777.000000	0.000000	286.000000	53.000000	36.000000	-13.000000
1.740000	33.090000	61.300000	881.000000	0.000000	285.000000	53.000000	15.000000	-9.000000
1.750000	33.090000	61.300000	932.000000	0.000000	285.000000	53.000000	0.000000	0.000000
1.760000	33.090000	61.300000	943.000000	0.000000	284.000000	54.000000	0.000000	0.000000
1.770000	33.090000	61.300000	955.000000	0.000000	283.000000	54.000000	0.000000	0.000000
1.780000	33.090000	61.300000	958.000000	0.000000	283.000000	54.000000	0.000000	0.000000
1.790000	33.090000	61.300000	940.000000	0.000000	281.000000	54.000000	0.000000	0.000000
1.800000	33.090000	61.300000	870.000000	0.000000	281.000000	54.000000	0.000000	0.000000
1.810000	33.090000	61.300000	731.000000	0.000000	281.000000	54.000000	0.000000	0.000000
1.820000	32.970000	61.300000	376.000000	0.000000	281.000000	54.000000	-12.000000	0.000000
