t	x	y	pressure	penup	azimuth	inclination	v_x	v_y
0.000000	14.950000	86.060000	369.000000	1.000000	288.000000	53.000000	0.000000	0.000000
0.010000	14.950000	86.060000	449.000000	0.000000	286.000000	53.000000	0.000000	0.000000
0.020000	14.810000	85.630000	509.000000	0.000000	286.000000	54.000000	-14.000000	-43.000000
0.030000	14.860000	85.030000	591.000000	0.000000	284.000000	54.000000	5.000000	-60.000000
0.040000	14.860000	84.260000	611.000000	0.000000	285.000000	55.000000	0.000000	-77.000000
0.050000	14.920000	83.370000	620.000000	0.000000	284.000000	56.000000	6.000000	-89.000000
0.060000	14.990000	82.350000	616.000000	0.000000	285.000000	58.000000	7.000000	-102.000000
0.070000	15.060000	81.440000	595.000000	0.000000	285.000000	59.000000	7.000000	-91.000000
0.080000	15.060000	80.800000	489.000000	0.000000	286.000000	60.000000	0.000000	-64.000000
0.090000	15.060000	80.300000	191.000000	0.000000	286.000000	60.000000	0.000000	-50.000000
0.100000	15.060000	80.300000	0.000000	1.000000	287.000000	61.000000	0.000000	0.000000
0.110000	14.730000	80.030000	0.000000	0.000000	287.000000	61.000000	-33.000000	-27.000000
0.120000	14.630000	80.110000	0.000000	0.000000	287.000000	61.000000	-10.000000	8.000000
0.130000	14.560000	80.420000	0.000000	0.000000	288.000000	61.000000	-7.000000	31.000000
0.140000	14.290000	80.790000	0.000000	0.000000	288.000000	61.000000	-27.000000	37.000000
0.150000	13.980000	81.330000	0.000000	0.000000	289.000000	60.000000	-31.000000	54.000000
0.160000	13.620000	81.960000	0.000000	0.000000	289.000000	59.000000	-36.000000	63.000000
0.170000	13.260000	82.640000	0.000000	0.000000	289.000000	59.000000	-36.000000	68.000000
0.180000	12.960000	83.300000	0.000000	0.000000	289.000000	57.000000	-30.000000	66.000000
0.190000	12.690000	83.890000	0.000000	0.000000	289.000000	57.000000	-27.000000	59.000000
0.200000	12.440000	84.450000	0.000000	0.000000	289.000000	57.000000	-25.000000	56.000000
0.210000	12.310000	84.880000	0.000000	0.000000	289.000000	57.000000	-13.000000	43.000000
0.220000	12.260000	85.270000	0.000000	0.000000	289.000000	57.000000	-5.000000	39.000000
0.230000	12.260000	85.270000	184.000000	1.000000	289.000000	59.000000	0.000000	0.000000
0.240000	12.360000	85.890000	241.000000	0.000000	289.000000	59.000000	10.000000	62.000000
0.250000	12.500000	86.130000	320.000000	0.000000	289.000000	59.000000	14.000000	24.000000
0.260000	12.660000	86.360000	364.000000	0.000000	288.000000	60.000000	16.000000	23.000000
0.270000	12.890000	86.640000	460.000000	0.000000	288.000000	60.000000	23.000000	28.000000
0.280000	13.160000	86.830000	496.000000	0.000000	286.000000	60.000000	27.000000	19.000000
0.290000	13.530000	86.970000	542.000000	0.000000	286.000000	60.000000	37.000000	14.000000
0.300000	13.980000	87.030000	592.000000	0.000000	284.000000	60.000000	45.000000	6.000000
0.310000	14.470000	86.950000	616.000000	0.000000	284.000000	60.000000	49.000000	-8.000000
0.320000	15.090000	86.770000	614.000000	0.000000	284.000000	60.000000	62.000000	-18.000000
0.330000	16.040000	86.700000	613.000000	0.000000	284.000000	60.000000	95.000000	-7.000000
0.340000	17.200000	86.700000	614.000000	0.000000	282.000000	59.000000	116.000000	0.000000
0.350000	18.380000	86.700000	613.000000	0.000000	282.000000	59.000000	118.000000	0.000000
0.360000	19.270000	86.700000	627.000000	0.000000	282.000000	59.000000	89.000000	0.000000
0.370000	19.960000	86.440000	641.000000	0.000000	282.000000	59.000000	69.000000	-26.000000
0.380000	20.220000	85.990000	637.000000	0.000000	282.000000	59.000000	26.000000	-45.000000
0.390000	20.220000	85.460000	636.000000	0.000000	282.000000	60.000000	0.000000	-53.000000
0.400000	20.100000	84.800000	643.000000	0.000000	282.000000	60.000000	-12.000000	-66.000000
0.410000	19.660000	84.060000	644.000000	0.000000	282.000000	60.000000	-44.000000	-74.000000
0.420000	19.000000	83.460000	640.000000	0.000000	282.000000	60.000000	-66.000000	-60.000000
0.430000	18.180000	82.910000	638.000000	0.000000	282.000000	60.000000	-82.000000	-55.000000
0.440000	16.970000	82.390000	644.000000	0.000000	282.000000	60.000000	-121.000000	-52.000000
0.450000	15.850000	81.870000	652.000000	0.000000	282.000000	60.000000	-112.000000	-52.000000
0.460000	14.800000	81.250000	664.000000	0.000000	282.000000	60.000000	-105.000000	-62.000000
0.470000	13.780000	80.580000	662.000000	0.000000	283.000000	61.000000	-102.000000	-67.000000
0.480000	13.030000	79.880000	690.000000	0.000000	284.000000	62.000000	-75.000000	-70.000000
0.490000	12.460000	79.270000	697.000000	0.000000	284.000000	63.000000	-57.000000	-61.000000
0.500000	12.190000	78.670000	740.000000	0.000000	287.000000	64.000000	-27.000000	-60.000000
0.510000	12.190000	78.290000	788.000000	0.000000	285.000000	65.000000	0.000000	-38.000000
0.520000	12.370000	78.040000	808.000000	0.000000	286.000000	66.000000	18.000000	-25.000000
0.530000	12.790000	77.800000	818.000000	0.000000	288.000000	68.000000	42.000000	-24.000000
0.540000	13.470000	77.630000	818.000000	0.000000	289.000000	69.000000	68.000000	-17.000000
0.550000	14.310000	77.570000	815.000000	0.000000	289.000000	69.000000	84.000000	-6.000000
0.560000	14.930000	77.670000	773.000000	0.000000	287.000000	70.000000	62.000000	10.000000
0.570000	15.550000	77.860000	685.000000	0.000000	286.000000	69.000000	62.000000	19.000000
0.580000	16.180000	78.110000	521.000000	0.000000	286.000000	69.000000	63.000000	25.000000
0.590000	16.620000	78.370000	182.000000	0.000000	285.000000	68.000000	44.000000	26.000000
0.600000	16.620000	78.370000	0.000000	1.000000	285.000000	67.000000	0.000000	0.000000
0.610000	17.380000	79.250000	0.000000	0.000000	286.000000	66.000000	76.000000	88.000000
0.620000	17.550000	79.630000	0.000000	0.000000	285.000000	65.000000	17.000000	38.000000
0.630000	17.620000	80.030000	0.000000	0.000000	287.000000	64.000000	7.000000	40.000000
0.640000	17.620000	80.470000	0.000000	0.000000	287.000000	64.000000	0.000000	44.000000
0.650000	17.620000	80.920000	0.000000	0.000000	289.000000	64.000000	0.000000	45.000000
0.660000	17.620000	81.350000	0.000000	0.000000	290.000000	63.000000	0.000000	43.000000
0.670000	17.500000	81.660000	0.000000	0.000000	290.000000	63.000000	-12.000000	31.000000
0.680000	17.500000	81.660000	151.000000	1.000000	290.000000	63.000000	0.000000	0.000000
0.690000	17.250000	81.950000	284.000000	0.000000	292.000000	62.000000	-25.000000	29.000000
0.700000	17.170000	81.890000	422.000000	0.000000	290.000000	63.000000	-8.000000	-6.000000
0.710000	17.110000	81.750000	510.000000	0.000000	290.000000	63.000000	-6.000000	-14.000000
0.720000	16.930000	81.540000	570.000000	0.000000	289.000000	62.000000	-18.000000	-21.000000
0.730000	16.790000	81.370000	577.000000	0.000000	288.000000	61.000000	-14.000000	-17.000000
0.740000	16.730000	81.180000	614.000000	0.000000	286.000000	60.000000	-6.000000	-19.000000
0.750000	16.730000	80.960000	653.000000	0.000000	285.000000	59.000000	0.000000	-22.000000
0.760000	16.730000	80.850000	667.000000	0.000000	285.000000	58.000000	0.000000	-11.000000
0.770000	16.920000	80.690000	672.000000	0.000000	284.000000	57.000000	19.000000	-16.000000
0.780000	17.210000	80.490000	699.000000	0.000000	284.000000	57.000000	29.000000	-20.000000
0.790000	17.600000	80.340000	690.000000	0.000000	284.000000	57.000000	39.000000	-15.000000
0.800000	18.160000	80.340000	702.000000	0.000000	285.000000	58.000000	56.000000	0.000000
0.810000	18.750000	80.340000	705.000000	0.000000	285.000000	59.000000	59.000000	0.000000
0.820000	19.360000	80.500000	708.000000	0.000000	286.000000	60.000000	61.000000	16.000000
0.830000	19.730000	80.670000	707.000000	0.000000	287.000000	61.000000	37.000000	17.000000
0.840000	19.900000	80.920000	702.000000	0.000000	285.000000	62.000000	17.000000	25.000000
0.850000	19.900000	81.160000	702.000000	0.000000	285.000000	62.000000	0.000000	24.000000
0.860000	19.740000	81.380000	705.000000	0.000000	286.000000	63.000000	-16.000000	22.000000
0.870000	19.330000	81.670000	705.000000	0.000000	286.000000	63.000000	-41.000000	29.000000
0.880000	18.780000	81.960000	707.000000	0.000000	285.000000	62.000000	-55.000000	29.000000
0.890000	18.150000	82.200000	708.000000	0.000000	285.000000	62.000000	-63.000000	24.000000
0.900000	17.490000	82.410000	710.000000	0.000000	285.000000	62.000000	-66.000000	21.000000
0.910000	16.750000	82.460000	694.000000	0.000000	285.000000	62.000000	-74.000000	5.000000
0.920000	16.270000	82.390000	643.000000	0.000000	285.000000	61.000000	-48.000000	-7.000000
0.930000	15.970000	82.250000	499.000000	0.000000	284.000000	60.000000	-30.000000	-14.000000
0.940000	15.780000	82.030000	202.000000	0.000000	285.000000	59.000000	-19.000000	-22.000000
0.950000	15.780000	82.030000	0.000000	1.000000	285.000000	58.000000	0.000000	0.000000
0.960000	16.050000	81.820000	0.000000	0.000000	284.000000	57.000000	27.000000	-21.000000
0.970000	16.600000	81.820000	0.000000	0.000000	284.000000	56.000000	55.000000	0.000000
0.980000	17.330000	81.890000	0.000000	0.000000	284.000000	56.000000	73.000000	7.000000
0.990000	18.170000	81.980000	0.000000	0.000000	284.000000	57.000000	84.000000	9.000000
1.000000	19.010000	82.100000	0.000000	0.000000	286.000000	57.000000	84.000000	12.000000
1.010000	19.870000	82.310000	0.000000	0.000000	286.000000	58.000000	86.000000	21.000000
1.020000	20.750000	82.630000	0.000000	0.000000	286.000000	58.000000	88.000000	32.000000
1.030000	21.700000	83.030000	0.000000	0.000000	287.000000	59.000000	95.000000	40.000000
1.040000	22.610000	83.500000	0.000000	0.000000	288.000000	60.000000	91.000000	47.000000
1.050000	22.610000	83.500000	151.000000	1.000000	288.000000	60.000000	0.000000	0.000000
1.060000	24.190000	84.650000	223.000000	0.000000	288.000000	60.000000	158.000000	115.000000
1.070000	24.710000	85.060000	265.000000	0.000000	288.000000	60.000000	52.000000	41.000000
1.080000	25.080000	85.340000	371.000000	0.000000	288.000000	60.000000	37.000000	28.000000
1.090000	25.260000	85.650000	396.000000	0.000000	285.000000	59.000000	18.000000	31.000000
1.100000	25.190000	85.900000	415.000000	0.000000	285.000000	59.000000	-7.000000	25.000000
1.110000	24.940000	86.060000	420.000000	0.000000	285.000000	59.000000	-25.000000	16.000000
1.120000	24.490000	86.220000	430.000000	0.000000	285.000000	59.000000	-45.000000	16.000000
1.130000	23.890000	86.220000	431.000000	0.000000	285.000000	59.000000	-60.000000	0.000000
1.140000	23.200000	86.220000	438.000000	0.000000	285.000000	59.000000	-69.000000	0.000000
1.150000	22.440000	86.170000	438.000000	0.000000	285.000000	59.000000	-76.000000	-5.000000
1.160000	21.710000	85.940000	441.000000	0.000000	285.000000	59.000000	-73.000000	-23.000000
1.170000	21.160000	85.610000	441.000000	0.000000	285.000000	58.000000	-55.000000	-33.000000
1.180000	20.730000	85.270000	448.000000	0.000000	285.000000	58.000000	-43.000000	-34.000000
1.190000	20.470000	84.940000	463.000000	0.000000	285.000000	58.000000	-26.000000	-33.000000
1.200000	20.300000	84.650000	495.000000	0.000000	285.000000	58.000000	-17.000000	-29.000000
1.210000	20.200000	84.380000	543.000000	0.000000	285.000000	58.000000	-10.000000	-27.000000
1.220000	20.200000	84.150000	561.000000	0.000000	285.000000	58.000000	0.000000	-23.000000
1.230000	20.410000	83.920000	586.000000	0.000000	285.000000	59.000000	21.000000	-23.000000
1.240000	20.670000	83.670000	595.000000	0.000000	285.000000	59.000000	26.000000	-25.000000
1.250000	21.090000	83.420000	605.000000	0.000000	285.000000	59.000000	42.000000	-25.000000
1.260000	21.630000	83.230000	614.000000	0.000000	285.000000	59.000000	54.000000	-19.000000
1.270000	22.250000	83.040000	616.000000	0.000000	284.000000	60.000000	62.000000	-19.000000
1.280000	23.090000	82.890000	616.000000	0.000000	284.000000	60.000000	84.000000	-15.000000
1.290000	23.900000	82.700000	619.000000	0.000000	284.000000	60.000000	81.000000	-19.000000
1.300000	24.420000	82.460000	610.000000	0.000000	284.000000	60.000000	52.000000	-24.000000
1.310000	24.750000	82.070000	611.000000	0.000000	282.000000	60.000000	33.000000	-39.000000
1.320000	24.860000	81.600000	619.000000	0.000000	282.000000	60.000000	11.000000	-47.000000
1.330000	24.740000	81.070000	620.000000	0.000000	283.000000	61.000000	-12.000000	-53.000000
1.340000	24.460000	80.510000	617.000000	0.000000	281.000000	62.000000	-28.000000	-56.000000
1.350000	23.930000	79.990000	614.000000	0.000000	281.000000	62.000000	-53.000000	-52.000000
1.360000	23.360000	79.760000	616.000000	0.000000	281.000000	62.000000	-57.000000	-23.000000
1.370000	22.620000	79.760000	619.000000	0.000000	281.000000	62.000000	-74.000000	0.000000
1.380000	21.770000	79.820000	619.000000	0.000000	281.000000	62.000000	-85.000000	6.000000
1.390000	21.040000	79.950000	619.000000	0.000000	281.000000	61.000000	-73.000000	13.000000
1.400000	20.460000	80.150000	603.000000	0.000000	281.000000	61.000000	-58.000000	20.000000
1.410000	19.980000	80.410000	539.000000	0.000000	281.000000	61.000000	-48.000000	26.000000
1.420000	19.700000	80.730000	420.000000	0.000000	281.000000	61.000000	-28.000000	32.000000
1.430000	19.700000	81.100000	245.000000	0.000000	281.000000	61.000000	0.000000	37.000000
1.440000	19.980000	81.460000	90.000000	0.000000	282.000000	60.000000	28.000000	36.000000
1.450000	20.430000	81.800000	42.000000	0.000000	282.000000	60.000000	45.000000	34.000000
1.460000	20.960000	82.050000	81.000000	0.000000	282.000000	60.000000	53.000000	25.000000
1.470000	21.540000	82.250000	129.000000	0.000000	284.000000	60.000000	58.000000	20.000000
1.480000	22.120000	82.090000	219.000000	0.000000	284.000000	60.000000	58.000000	-16.000000
1.490000	22.720000	81.970000	315.000000	0.000000	284.000000	59.000000	60.000000	-12.000000
1.500000	23.340000	81.860000	396.000000	0.000000	284.000000	59.000000	62.000000	-11.000000
1.510000	23.990000	81.750000	465.000000	0.000000	284.000000	59.000000	65.000000	-11.000000
1.520000	24.610000	81.700000	480.000000	0.000000	284.000000	59.000000	62.000000	-5.000000
1.530000	25.200000	81.700000	498.000000	0.000000	284.000000	60.000000	59.000000	0.000000
1.540000	25.810000	81.700000	519.000000	0.000000	284.000000	60.000000	61.000000	0.000000
1.550000	26.420000	81.850000	515.000000	0.000000	284.000000	60.000000	61.000000	15.000000
1.560000	26.850000	81.980000	522.000000	0.000000	284.000000	60.000000	43.000000	13.000000
1.570000	27.070000	82.120000	519.000000	0.000000	285.000000	61.000000	22.000000	14.000000
1.580000	27.160000	82.290000	519.000000	0.000000	285.000000	61.000000	9.000000	17.000000
1.590000	27.160000	82.540000	519.000000	0.000000	285.000000	61.000000	0.000000	25.000000
1.600000	27.000000	82.780000	518.000000	0.000000	285.000000	61.000000	-16.000000	24.000000
1.610000	26.710000	83.010000	519.000000	0.000000	285.000000	61.000000	-29.000000	23.000000
1.620000	26.330000	83.260000	519.000000	0.000000	285.000000	61.000000	-38.000000	25.000000
1.630000	25.910000	83.390000	526.000000	0.000000	285.000000	61.000000	-42.000000	13.000000
1.640000	25.440000	83.450000	529.000000	0.000000	285.000000	61.000000	-47.000000	6.000000
1.650000	25.000000	83.350000	543.000000	0.000000	285.000000	61.000000	-44.000000	-10.000000
1.660000	24.690000	83.110000	570.000000	0.000000	285.000000	61.000000	-31.000000	-24.000000
1.670000	24.440000	82.790000	592.000000	0.000000	285.000000	61.000000	-25.000000	-32.000000
1.680000	24.300000	82.400000	602.000000	0.000000	285.000000	61.000000	-14.000000	-39.000000
1.690000	24.360000	81.940000	624.000000	0.000000	285.000000	61.000000	6.000000	-46.000000
1.700000	24.540000	81.440000	637.000000	0.000000	283.000000	61.000000	18.000000	-50.000000
1.710000	24.810000	81.090000	644.000000	0.000000	283.000000	61.000000	27.000000	-35.000000
1.720000	25.250000	80.800000	664.000000	0.000000	283.000000	61.000000	44.000000	-29.000000
1.730000	25.810000	80.630000	700.000000	0.000000	283.000000	61.000000	56.000000	-17.000000
1.740000	26.320000	80.520000	697.000000	0.000000	283.000000	61.000000	51.000000	-11.000000
1.750000	26.820000	80.520000	696.000000	0.000000	281.000000	62.000000	50.000000	0.000000
1.760000	27.270000	80.700000	696.000000	0.000000	281.000000	62.000000	45.000000	18.000000
1.770000	27.640000	80.960000	690.000000	0.000000	281.000000	62.000000	37.000000	26.000000
1.780000	27.980000	81.260000	691.000000	0.000000	281.000000	62.000000	34.000000	30.000000
1.790000	28.320000	81.640000	684.000000	0.000000	281.000000	62.000000	34.000000	38.000000
1.800000	28.490000	82.070000	679.000000	0.000000	281.000000	62.000000	17.000000	43.000000
1.810000	28.590000	82.560000	675.000000	0.000000	281.000000	62.000000	10.000000	49.000000
1.820000	28.590000	82.930000	672.000000	0.000000	283.000000	61.000000	0.000000	37.000000
1.830000	28.490000	83.230000	672.000000	0.000000	283.000000	61.000000	-10.000000	30.000000
1.840000	28.410000	83.230000	682.000000	0.000000	282.000000	60.000000	-8.000000	0.000000
1.850000	28.410000	83.230000	690.000000	0.000000	282.000000	60.000000	0.000000	0.000000
1.860000	28.410000	83.110000	697.000000	0.000000	282.000000	60.000000	0.000000	-12.000000
1.870000	28.330000	82.850000	699.000000	0.000000	282.000000	60.000000	-8.000000	-26.000000
1.880000	28.330000	82.440000	702.000000	0.000000	282.000000	60.000000	0.000000	-41.000000
1.890000	28.500000	81.920000	705.000000	0.000000	282.000000	60.000000	17.000000	-52.000000
1.900000	28.620000	81.580000	697.000000	0.000000	281.000000	61.000000	12.000000	-34.000000
1.910000	28.790000	81.410000	671.000000	0.000000	281.000000	61.000000	17.000000	-17.000000
1.920000	28.990000	81.350000	536.000000	0.000000	281.000000	61.000000	20.000000	-6.000000
1.930000	29.270000	81.400000	249.000000	0.000000	281.000000	61.000000	28.000000	5.000000
1.940000	29.270000	81.400000	0.000000	1.000000	281.000000	61.000000	0.000000	0.000000
1.950000	29.870000	82.120000	0.000000	0.000000	280.000000	60.000000	60.000000	72.000000
1.960000	30.210000	82.780000	0.000000	0.000000	280.000000	60.000000	34.000000	66.000000
1.970000	30.490000	83.450000	0.000000	0.000000	282.000000	59.000000	28.000000	67.000000
1.980000	30.700000	84.180000	0.000000	0.000000	282.000000	58.000000	21.000000	73.000000
1.990000	30.870000	84.960000	0.000000	0.000000	283.000000	58.000000	17.000000	78.000000
2.000000	30.870000	85.800000	0.000000	0.000000	283.000000	58.000000	0.000000	84.000000
2.010000	30.870000	86.640000	0.000000	0.000000	285.000000	58.000000	0.000000	84.000000
2.020000	30.800000	87.490000	0.000000	0.000000	285.000000	58.000000	-7.000000	85.000000
2.030000	30.800000	87.490000	68.000000	1.000000	285.000000	58.000000	0.000000	0.000000
2.040000	30.750000	88.700000	170.000000	0.000000	285.000000	58.000000	-5.000000	121.000000
2.050000	30.810000	88.810000	277.000000	0.000000	285.000000	58.000000	6.000000	11.000000
2.060000	30.810000	88.750000	371.000000	0.000000	285.000000	58.000000	0.000000	-6.000000
2.070000	30.750000	88.580000	420.000000	0.000000	283.000000	58.000000	-6.000000	-17.000000
2.080000	30.680000	88.110000	485.000000	0.000000	283.000000	58.000000	-7.000000	-47.000000
2.090000	30.680000	87.480000	533.000000	0.000000	283.000000	58.000000	0.000000	-63.000000
2.100000	30.750000	86.750000	575.000000	0.000000	283.000000	58.000000	7.000000	-73.000000
2.110000	30.810000	85.980000	610.000000	0.000000	283.000000	58.000000	6.000000	-77.000000
2.120000	30.870000	85.050000	619.000000	0.000000	283.000000	58.000000	6.000000	-93.000000
2.130000	30.960000	84.010000	620.000000	0.000000	283.000000	58.000000	9.000000	-104.000000
2.140000	31.080000	82.930000	613.000000	0.000000	283.000000	58.000000	12.000000	-108.000000
2.150000	31.220000	82.110000	588.000000	0.000000	282.000000	58.000000	14.000000	-82.000000
2.160000	31.330000	81.470000	517.000000	0.000000	281.000000	58.000000	11.000000	-64.000000
2.170000	31.410000	81.080000	342.000000	0.000000	281.000000	58.000000	8.000000	-39.000000
2.180000	31.460000	80.980000	1.000000	1.000000	280.000000	58.000000	0.000000	0.000000
2.190000	31.460000	80.980000	0.000000	0.000000	280.000000	58.000000	0.000000	0.000000
2.200000	31.610000	81.520000	0.000000	0.000000	280.000000	58.000000	15.000000	54.000000
