t	x	y	pressure	penup	azimuth	inclination	v_x	v_y
0.000000	12.080000	11.800000	53.000000	1.000000	179.000000	37.000000	0.000000	0.000000
0.010000	11.760000	11.900000	99.000000	0.000000	179.000000	37.000000	-32.000000	10.000000
0.020000	11.610000	12.150000	141.000000	0.000000	179.000000	38.000000	-15.000000	25.000000
0.030000	11.510000	12.320000	178.000000	0.000000	178.000000	38.000000	-10.000000	17.000000
0.040000	11.700000	12.620000	200.000000	0.000000	178.000000	39.000000	19.000000	30.000000
0.050000	12.060000	13.020000	203.000000	0.000000	178.000000	39.000000	36.000000	40.000000
0.060000	13.040000	13.370000	200.000000	0.000000	178.000000	40.000000	98.000000	35.000000
0.070000	14.300000	13.500000	211.000000	0.000000	179.000000	40.000000	126.000000	13.000000
0.080000	15.750000	13.500000	214.000000	0.000000	179.000000	41.000000	145.000000	0.000000
0.090000	17.070000	13.160000	232.000000	0.000000	179.000000	41.000000	132.000000	-34.000000
0.100000	17.960000	12.610000	233.000000	0.000000	179.000000	41.000000	89.000000	-55.000000
0.110000	18.570000	11.900000	242.000000	0.000000	179.000000	42.000000	61.000000	-71.000000
0.120000	18.700000	11.170000	249.000000	0.000000	178.000000	42.000000	13.000000	-73.000000
0.130000	18.310000	10.550000	254.000000	0.000000	178.000000	43.000000	-39.000000	-62.000000
0.140000	17.570000	10.000000	245.000000	0.000000	177.000000	44.000000	-74.000000	-55.000000
0.150000	16.490000	9.370000	245.000000	0.000000	177.000000	44.000000	-108.000000	-63.000000
0.160000	15.480000	8.830000	257.000000	0.000000	177.000000	44.000000	-101.000000	-54.000000
0.170000	14.520000	8.360000	265.000000	0.000000	178.000000	44.000000	-96.000000	-47.000000
0.180000	14.170000	8.110000	265.000000	0.000000	179.000000	44.000000	-35.000000	-25.000000
0.190000	14.100000	7.960000	267.000000	0.000000	180.000000	43.000000	-7.000000	-15.000000
0.200000	14.210000	7.880000	269.000000	0.000000	182.000000	43.000000	11.000000	-8.000000
0.210000	14.650000	7.750000	279.000000	0.000000	184.000000	42.000000	44.000000	-13.000000
0.220000	15.130000	7.610000	287.000000	0.000000	185.000000	42.000000	48.000000	-14.000000
0.230000	15.640000	7.470000	307.000000	0.000000	185.000000	42.000000	51.000000	-14.000000
0.240000	15.880000	7.350000	334.000000	0.000000	186.000000	41.000000	24.000000	-12.000000
0.250000	15.970000	7.120000	373.000000	0.000000	187.000000	41.000000	9.000000	-23.000000
0.260000	15.970000	6.860000	396.000000	0.000000	188.000000	41.000000	0.000000	-26.000000
0.270000	15.710000	6.490000	412.000000	0.000000	189.000000	41.000000	-26.000000	-37.000000
0.280000	15.260000	6.060000	418.000000	0.000000	190.000000	41.000000	-45.000000	-43.000000
0.290000	14.670000	5.710000	422.000000	0.000000	190.000000	41.000000	-59.000000	-35.000000
0.300000	13.940000	5.400000	361.000000	0.000000	190.000000	40.000000	-73.000000	-31.000000
0.310000	13.040000	5.120000	202.000000	0.000000	191.000000	39.000000	-90.000000	-28.000000
0.320000	13.040000	5.120000	0.000000	1.000000	190.000000	39.000000	0.000000	0.000000
0.330000	11.330000	5.070000	0.000000	0.000000	189.000000	38.000000	-171.000000	-5.000000
0.340000	11.070000	5.350000	0.000000	0.000000	189.000000	38.000000	-26.000000	28.000000
0.350000	11.070000	6.100000	0.000000	0.000000	188.000000	37.000000	0.000000	75.000000
0.360000	11.300000	6.840000	0.000000	0.000000	188.000000	37.000000	23.000000	74.000000
0.370000	11.560000	7.570000	0.000000	0.000000	188.000000	37.000000	26.000000	73.000000
0.380000	11.870000	8.210000	0.000000	0.000000	187.000000	36.000000	31.000000	64.000000
0.390000	12.240000	8.690000	0.000000	0.000000	187.000000	36.000000	37.000000	48.000000
0.400000	12.630000	9.060000	0.000000	0.000000	186.000000	36.000000	39.000000	37.000000
0.410000	13.030000	9.230000	0.000000	0.000000	186.000000	36.000000	40.000000	17.000000
0.420000	13.310000	9.300000	0.000000	0.000000	186.000000	36.000000	28.000000	7.000000
0.430000	13.570000	9.300000	0.000000	0.000000	185.000000	36.000000	26.000000	0.000000
0.440000	13.800000	9.300000	0.000000	0.000000	185.000000	36.000000	23.000000	0.000000
0.450000	14.020000	9.230000	0.000000	0.000000	185.000000	37.000000	22.000000	-7.000000
0.460000	14.200000	9.030000	0.000000	0.000000	185.000000	37.000000	18.000000	-20.000000
0.470000	14.340000	8.740000	0.000000	0.000000	185.000000	37.000000	14.000000	-29.000000
0.480000	14.450000	8.470000	0.000000	0.000000	185.000000	38.000000	11.000000	-27.000000
0.490000	14.510000	8.210000	0.000000	0.000000	185.000000	38.000000	6.000000	-26.000000
0.500000	14.510000	7.990000	0.000000	0.000000	186.000000	39.000000	0.000000	-22.000000
0.510000	14.510000	7.820000	0.000000	0.000000	186.000000	39.000000	0.000000	-17.000000
0.520000	14.510000	7.690000	0.000000	0.000000	187.000000	40.000000	0.000000	-13.000000
0.530000	14.510000	7.690000	0.000000	0.000000	187.000000	40.000000	0.000000	0.000000
0.540000	14.510000	7.760000	0.000000	0.000000	188.000000	40.000000	0.000000	7.000000
0.550000	14.510000	7.940000	0.000000	0.000000	188.000000	40.000000	0.000000	18.000000
0.560000	14.510000	8.180000	0.000000	0.000000	188.000000	40.000000	0.000000	24.000000
0.570000	14.510000	8.510000	0.000000	0.000000	188.000000	40.000000	0.000000	33.000000
0.580000	14.510000	8.910000	0.000000	0.000000	188.000000	40.000000	0.000000	40.000000
0.590000	14.580000	9.330000	0.000000	0.000000	187.000000	39.000000	7.000000	42.000000
0.600000	14.690000	9.870000	0.000000	0.000000	187.000000	39.000000	11.000000	54.000000
0.610000	14.800000	10.480000	0.000000	0.000000	186.000000	39.000000	11.000000	61.000000
0.620000	14.910000	11.090000	0.000000	0.000000	186.000000	39.000000	11.000000	61.000000
0.630000	15.020000	11.670000	0.000000	0.000000	185.000000	38.000000	11.000000	58.000000
0.640000	15.120000	12.160000	0.000000	0.000000	185.000000	38.000000	10.000000	49.000000
0.650000	15.120000	12.390000	0.000000	0.000000	183.000000	38.000000	0.000000	23.000000
0.660000	15.190000	12.460000	0.000000	0.000000	182.000000	38.000000	7.000000	7.000000
0.670000	15.190000	12.460000	37.000000	1.000000	182.000000	38.000000	0.000000	0.000000
0.680000	15.190000	12.460000	41.000000	0.000000	181.000000	39.000000	0.000000	0.000000
0.690000	15.190000	12.460000	68.000000	0.000000	181.000000	39.000000	0.000000	0.000000
0.700000	15.240000	11.960000	91.000000	0.000000	180.000000	40.000000	5.000000	-50.000000
0.710000	15.240000	11.310000	101.000000	0.000000	180.000000	41.000000	0.000000	-65.000000
0.720000	15.080000	10.580000	141.000000	0.000000	180.000000	42.000000	-16.000000	-73.000000
0.730000	14.850000	9.840000	132.000000	0.000000	180.000000	43.000000	-23.000000	-74.000000
0.740000	14.740000	9.180000	47.000000	0.000000	180.000000	43.000000	-11.000000	-66.000000
0.750000	14.740000	9.180000	0.000000	1.000000	181.000000	43.000000	0.000000	0.000000
0.760000	14.850000	8.180000	0.000000	0.000000	181.000000	43.000000	11.000000	-100.000000
0.770000	15.170000	8.080000	0.000000	0.000000	182.000000	43.000000	32.000000	-10.000000
0.780000	15.610000	8.180000	0.000000	0.000000	183.000000	43.000000	44.000000	10.000000
0.790000	16.120000	8.400000	0.000000	0.000000	184.000000	43.000000	51.000000	22.000000
0.800000	16.530000	8.600000	0.000000	0.000000	184.000000	42.000000	41.000000	20.000000
0.810000	16.860000	8.780000	0.000000	0.000000	183.000000	42.000000	33.000000	18.000000
0.820000	17.150000	8.890000	0.000000	0.000000	181.000000	41.000000	29.000000	11.000000
0.830000	17.450000	8.960000	0.000000	0.000000	179.000000	41.000000	30.000000	7.000000
0.840000	17.770000	8.960000	0.000000	0.000000	177.000000	40.000000	32.000000	0.000000
0.850000	18.000000	8.960000	0.000000	0.000000	176.000000	40.000000	23.000000	0.000000
0.860000	18.160000	8.960000	0.000000	0.000000	173.000000	40.000000	16.000000	0.000000
0.870000	18.110000	8.880000	0.000000	0.000000	172.000000	39.000000	-5.000000	-8.000000
0.880000	18.030000	8.750000	0.000000	0.000000	170.000000	39.000000	-8.000000	-13.000000
0.890000	17.930000	8.560000	0.000000	0.000000	169.000000	39.000000	-10.000000	-19.000000
0.900000	17.810000	8.310000	0.000000	0.000000	169.000000	39.000000	-12.000000	-25.000000
0.910000	17.680000	8.050000	0.000000	0.000000	169.000000	39.000000	-13.000000	-26.000000
0.920000	17.540000	7.820000	0.000000	0.000000	169.000000	39.000000	-14.000000	-23.000000
0.930000	17.470000	7.670000	0.000000	0.000000	170.000000	40.000000	-7.000000	-15.000000
0.940000	17.470000	7.560000	0.000000	0.000000	170.000000	40.000000	0.000000	-11.000000
0.950000	17.470000	7.430000	0.000000	0.000000	170.000000	41.000000	0.000000	-13.000000
0.960000	17.470000	7.280000	0.000000	0.000000	170.000000	41.000000	0.000000	-15.000000
0.970000	17.550000	7.280000	0.000000	0.000000	170.000000	41.000000	8.000000	0.000000
0.980000	17.690000	7.280000	0.000000	0.000000	170.000000	41.000000	14.000000	0.000000
0.990000	17.930000	7.410000	0.000000	0.000000	171.000000	41.000000	24.000000	13.000000
1.000000	18.140000	7.500000	0.000000	0.000000	171.000000	41.000000	21.000000	9.000000
1.010000	18.320000	7.570000	0.000000	0.000000	172.000000	42.000000	18.000000	7.000000
1.020000	18.400000	7.570000	0.000000	0.000000	172.000000	42.000000	8.000000	0.000000
1.030000	18.450000	7.650000	0.000000	0.000000	172.000000	42.000000	5.000000	8.000000
1.040000	18.450000	7.650000	0.000000	0.000000	172.000000	42.000000	0.000000	0.000000
1.050000	18.500000	7.730000	0.000000	0.000000	172.000000	42.000000	5.000000	8.000000
1.060000	18.500000	7.810000	0.000000	0.000000	172.000000	42.000000	0.000000	8.000000
1.070000	18.380000	7.810000	0.000000	0.000000	172.000000	42.000000	-12.000000	0.000000
1.080000	18.270000	7.890000	0.000000	0.000000	172.000000	42.000000	-11.000000	8.000000
1.090000	18.120000	7.890000	0.000000	0.000000	172.000000	42.000000	-15.000000	0.000000
1.100000	17.950000	7.940000	0.000000	0.000000	172.000000	42.000000	-17.000000	5.000000
1.110000	17.840000	7.940000	0.000000	0.000000	172.000000	42.000000	-11.000000	0.000000
1.120000	17.760000	7.940000	0.000000	0.000000	172.000000	42.000000	-8.000000	0.000000
1.130000	17.760000	7.880000	0.000000	0.000000	172.000000	42.000000	0.000000	-6.000000
1.140000	17.760000	7.880000	0.000000	0.000000	172.000000	42.000000	0.000000	0.000000
1.150000	17.760000	7.820000	0.000000	0.000000	172.000000	42.000000	0.000000	-6.000000
1.160000	17.760000	7.820000	0.000000	0.000000	171.000000	42.000000	0.000000	0.000000
1.170000	17.760000	7.770000	0.000000	0.000000	171.000000	42.000000	0.000000	-5.000000
1.180000	17.690000	7.710000	0.000000	0.000000	171.000000	41.000000	-7.000000	-6.000000
1.190000	17.690000	7.630000	0.000000	0.000000	172.000000	42.000000	0.000000	-8.000000
1.200000	17.630000	7.580000	0.000000	0.000000	172.000000	42.000000	-6.000000	-5.000000
1.210000	17.630000	7.580000	0.000000	0.000000	172.000000	42.000000	0.000000	0.000000
1.220000	17.630000	7.580000	0.000000	0.000000	172.000000	42.000000	0.000000	0.000000
1.230000	17.730000	7.580000	0.000000	0.000000	172.000000	42.000000	10.000000	0.000000
1.240000	17.810000	7.580000	0.000000	0.000000	172.000000	42.000000	8.000000	0.000000
1.250000	17.870000	7.650000	0.000000	0.000000	172.000000	42.000000	6.000000	7.000000
1.260000	17.940000	7.650000	0.000000	0.000000	172.000000	42.000000	7.000000	0.000000
1.270000	18.000000	7.710000	0.000000	0.000000	172.000000	42.000000	6.000000	6.000000
1.280000	18.060000	7.710000	0.000000	0.000000	172.000000	42.000000	6.000000	0.000000
1.290000	18.060000	7.780000	0.000000	0.000000	172.000000	42.000000	0.000000	7.000000
1.300000	18.060000	7.870000	0.000000	0.000000	172.000000	42.000000	0.000000	9.000000
1.310000	18.060000	7.870000	0.000000	0.000000	172.000000	42.000000	0.000000	0.000000
1.320000	18.060000	7.940000	0.000000	0.000000	172.000000	42.000000	0.000000	7.000000
1.330000	18.060000	7.940000	0.000000	0.000000	172.000000	42.000000	0.000000	0.000000
1.340000	18.120000	8.010000	0.000000	0.000000	173.000000	42.000000	6.000000	7.000000
1.350000	18.170000	8.010000	0.000000	0.000000	173.000000	42.000000	5.000000	0.000000
1.360000	18.230000	8.010000	0.000000	0.000000	173.000000	42.000000	6.000000	0.000000
1.370000	18.230000	8.010000	0.000000	0.000000	173.000000	42.000000	0.000000	0.000000
1.380000	18.180000	8.010000	0.000000	0.000000	173.000000	42.000000	-5.000000	0.000000
1.390000	18.180000	8.010000	0.000000	0.000000	173.000000	42.000000	0.000000	0.000000
1.400000	18.180000	8.010000	0.000000	0.000000	173.000000	42.000000	0.000000	0.000000
1.410000	18.110000	8.010000	0.000000	0.000000	173.000000	42.000000	-7.000000	0.000000
1.420000	18.110000	8.010000	56.000000	1.000000	173.000000	42.000000	0.000000	0.000000
1.430000	18.110000	8.010000	101.000000	0.000000	174.000000	42.000000	0.000000	0.000000
1.440000	17.660000	7.880000	129.000000	0.000000	174.000000	42.000000	-45.000000	-13.000000
1.450000	17.420000	7.730000	180.000000	0.000000	174.000000	42.000000	-24.000000	-15.000000
1.460000	17.240000	7.480000	200.000000	0.000000	174.000000	42.000000	-18.000000	-25.000000
1.470000	17.110000	7.170000	221.000000	0.000000	174.000000	42.000000	-13.000000	-31.000000
1.480000	17.110000	6.810000	249.000000	0.000000	174.000000	42.000000	0.000000	-36.000000
1.490000	17.060000	6.440000	255.000000	0.000000	173.000000	42.000000	-5.000000	-37.000000
1.500000	17.250000	6.140000	297.000000	0.000000	173.000000	42.000000	19.000000	-30.000000
1.510000	17.550000	5.890000	339.000000	0.000000	173.000000	42.000000	30.000000	-25.000000
1.520000	18.240000	5.960000	412.000000	0.000000	173.000000	41.000000	69.000000	7.000000
1.530000	18.930000	6.250000	491.000000	0.000000	173.000000	41.000000	69.000000	29.000000
1.540000	19.360000	6.700000	536.000000	0.000000	173.000000	41.000000	43.000000	45.000000
1.550000	19.600000	7.170000	564.000000	0.000000	173.000000	41.000000	24.000000	47.000000
1.560000	19.600000	7.620000	568.000000	0.000000	173.000000	42.000000	0.000000	45.000000
1.570000	19.430000	8.030000	560.000000	0.000000	174.000000	42.000000	-17.000000	41.000000
1.580000	19.220000	8.400000	544.000000	0.000000	174.000000	42.000000	-21.000000	37.000000
1.590000	18.970000	8.750000	469.000000	0.000000	173.000000	43.000000	-25.000000	35.000000
1.600000	18.770000	8.920000	267.000000	0.000000	173.000000	44.000000	-20.000000	17.000000
1.610000	18.770000	8.980000	1.000000	1.000000	173.000000	44.000000	0.000000	0.000000
1.620000	18.770000	8.980000	0.000000	0.000000	173.000000	44.000000	0.000000	0.000000
1.630000	19.090000	8.660000	0.000000	0.000000	173.000000	44.000000	32.000000	-32.000000
1.640000	19.240000	8.490000	0.000000	0.000000	172.000000	44.000000	15.000000	-17.000000
1.650000	19.240000	8.490000	0.000000	0.000000	172.000000	44.000000	0.000000	0.000000
1.660000	19.520000	8.270000	0.000000	0.000000	172.000000	44.000000	28.000000	-22.000000
1.670000	19.730000	8.270000	0.000000	0.000000	171.000000	44.000000	21.000000	0.000000
1.680000	20.000000	8.270000	0.000000	0.000000	171.000000	44.000000	27.000000	0.000000
1.690000	20.230000	8.410000	0.000000	0.000000	172.000000	43.000000	23.000000	14.000000
1.700000	20.430000	8.630000	0.000000	0.000000	171.000000	43.000000	20.000000	22.000000
1.710000	20.430000	8.630000	143.000000	1.000000	171.000000	43.000000	0.000000	0.000000
1.720000	20.570000	9.300000	161.000000	0.000000	170.000000	44.000000	14.000000	67.000000
1.730000	20.410000	9.770000	170.000000	0.000000	170.000000	44.000000	-16.000000	47.000000
1.740000	20.410000	10.280000	173.000000	0.000000	170.000000	44.000000	0.000000	51.000000
1.750000	20.470000	10.890000	196.000000	0.000000	170.000000	45.000000	6.000000	61.000000
1.760000	20.470000	11.530000	212.000000	0.000000	170.000000	46.000000	0.000000	64.000000
1.770000	20.580000	12.190000	214.000000	0.000000	171.000000	46.000000	11.000000	66.000000
1.780000	20.580000	12.310000	233.000000	0.000000	171.000000	46.000000	0.000000	12.000000
1.790000	20.580000	12.080000	247.000000	0.000000	171.000000	46.000000	0.000000	-23.000000
1.800000	20.580000	11.630000	253.000000	0.000000	171.000000	46.000000	0.000000	-45.000000
1.810000	20.580000	10.970000	254.000000	0.000000	170.000000	46.000000	0.000000	-66.000000
1.820000	20.580000	10.270000	256.000000	0.000000	170.000000	46.000000	0.000000	-70.000000
1.830000	20.700000	9.500000	245.000000	0.000000	170.000000	46.000000	12.000000	-77.000000
1.840000	20.870000	8.730000	245.000000	0.000000	171.000000	46.000000	17.000000	-77.000000
1.850000	20.870000	7.960000	257.000000	0.000000	171.000000	46.000000	0.000000	-77.000000
1.860000	20.820000	7.330000	277.000000	0.000000	171.000000	46.000000	-5.000000	-63.000000
1.870000	20.820000	6.910000	291.000000	0.000000	171.000000	46.000000	0.000000	-42.000000
1.880000	20.680000	6.630000	342.000000	0.000000	172.000000	45.000000	-14.000000	-28.000000
1.890000	20.530000	6.460000	364.000000	0.000000	172.000000	45.000000	-15.000000	-17.000000
1.900000	20.530000	6.460000	371.000000	0.000000	172.000000	44.000000	0.000000	0.000000
1.910000	20.530000	6.510000	376.000000	0.000000	172.000000	44.000000	0.000000	5.000000
1.920000	20.530000	6.670000	379.000000	0.000000	172.000000	44.000000	0.000000	16.000000
1.930000	20.580000	6.860000	379.000000	0.000000	173.000000	43.000000	5.000000	19.000000
1.940000	20.640000	7.060000	381.000000	0.000000	173.000000	43.000000	6.000000	20.000000
1.950000	20.730000	7.200000	381.000000	0.000000	173.000000	43.000000	9.000000	14.000000
1.960000	20.860000	7.340000	379.000000	0.000000	172.000000	44.000000	13.000000	14.000000
1.970000	20.950000	7.450000	379.000000	0.000000	172.000000	44.000000	9.000000	11.000000
1.980000	21.000000	7.450000	379.000000	0.000000	172.000000	44.000000	5.000000	0.000000
1.990000	21.250000	7.450000	381.000000	0.000000	172.000000	44.000000	25.000000	0.000000
2.000000	21.440000	7.290000	381.000000	0.000000	172.000000	45.000000	19.000000	-16.000000
2.010000	21.590000	7.100000	382.000000	0.000000	172.000000	45.000000	15.000000	-19.000000
2.020000	21.790000	6.870000	382.000000	0.000000	172.000000	45.000000	20.000000	-23.000000
2.030000	22.010000	6.630000	381.000000	0.000000	172.000000	45.000000	22.000000	-24.000000
2.040000	22.120000	6.460000	379.000000	0.000000	172.000000	44.000000	11.000000	-17.000000
2.050000	22.120000	6.340000	382.000000	0.000000	172.000000	44.000000	0.000000	-12.000000
2.060000	22.060000	6.290000	387.000000	0.000000	172.000000	44.000000	-6.000000	-5.000000
2.070000	21.710000	6.240000	391.000000	0.000000	172.000000	44.000000	-35.000000	-5.000000
2.080000	21.200000	6.240000	391.000000	0.000000	173.000000	43.000000	-51.000000	0.000000
2.090000	20.610000	6.310000	396.000000	0.000000	173.000000	43.000000	-59.000000	7.000000
2.100000	20.200000	6.490000	387.000000	0.000000	173.000000	43.000000	-41.000000	18.000000
2.110000	19.900000	6.670000	343.000000	0.000000	173.000000	43.000000	-30.000000	18.000000
2.120000	19.830000	6.840000	168.000000	0.000000	173.000000	42.000000	-7.000000	17.000000
2.130000	19.830000	6.840000	0.000000	1.000000	173.000000	43.000000	0.000000	0.000000
2.140000	20.000000	7.130000	0.000000	0.000000	173.000000	43.000000	17.000000	29.000000
2.150000	20.270000	7.130000	0.000000	0.000000	173.000000	43.000000	27.000000	0.000000
2.160000	20.540000	7.130000	0.000000	0.000000	173.000000	43.000000	27.000000	0.000000
2.170000	20.810000	7.130000	0.000000	0.000000	173.000000	44.000000	27.000000	0.000000
2.180000	21.320000	7.130000	0.000000	0.000000	173.000000	44.000000	51.000000	0.000000
2.190000	21.840000	7.200000	0.000000	0.000000	172.000000	44.000000	52.000000	7.000000
2.200000	22.270000	7.200000	0.000000	0.000000	172.000000	44.000000	43.000000	0.000000
2.210000	22.620000	7.200000	0.000000	0.000000	172.000000	44.000000	35.000000	0.000000
2.220000	22.910000	7.200000	0.000000	0.000000	172.000000	45.000000	29.000000	0.000000
2.230000	23.130000	7.320000	0.000000	0.000000	172.000000	45.000000	22.000000	12.000000
2.240000	23.310000	7.380000	0.000000	0.000000	171.000000	45.000000	18.000000	6.000000
2.250000	23.390000	7.450000	0.000000	0.000000	171.000000	45.000000	8.000000	7.000000
2.260000	23.390000	7.510000	0.000000	0.000000	171.000000	45.000000	0.000000	6.000000
