t	x	y	pressure	penup	azimuth	inclination	v_x	v_y
0.000000	50.870000	82.660000	91.000000	1.000000	166.000000	52.000000	0.000000	0.000000
0.010000	49.240000	82.910000	131.000000	0.000000	166.000000	52.000000	-163.000000	25.000000
0.020000	48.870000	83.010000	195.000000	0.000000	167.000000	52.000000	-37.000000	10.000000
0.030000	48.730000	83.010000	254.000000	0.000000	167.000000	52.000000	-14.000000	0.000000
0.040000	49.160000	82.950000	279.000000	0.000000	168.000000	52.000000	43.000000	-6.000000
0.050000	50.570000	82.950000	287.000000	0.000000	168.000000	52.000000	141.000000	0.000000
0.060000	52.640000	82.900000	276.000000	0.000000	169.000000	53.000000	207.000000	-5.000000
0.070000	55.480000	82.840000	299.000000	0.000000	169.000000	53.000000	284.000000	-6.000000
0.080000	58.510000	82.590000	305.000000	0.000000	169.000000	53.000000	303.000000	-25.000000
0.090000	61.660000	82.230000	307.000000	0.000000	171.000000	53.000000	315.000000	-36.000000
0.100000	64.440000	81.700000	312.000000	0.000000	172.000000	53.000000	278.000000	-53.000000
0.110000	66.350000	80.950000	314.000000	0.000000	172.000000	53.000000	191.000000	-75.000000
0.120000	67.670000	80.060000	309.000000	0.000000	173.000000	53.000000	132.000000	-89.000000
0.130000	68.090000	79.100000	305.000000	0.000000	173.000000	53.000000	42.000000	-96.000000
0.140000	67.520000	78.290000	314.000000	0.000000	173.000000	54.000000	-57.000000	-81.000000
0.150000	66.280000	77.590000	329.000000	0.000000	173.000000	54.000000	-124.000000	-70.000000
0.160000	64.070000	76.960000	369.000000	0.000000	173.000000	54.000000	-221.000000	-63.000000
0.170000	61.350000	76.480000	458.000000	0.000000	172.000000	54.000000	-272.000000	-48.000000
0.180000	58.300000	76.100000	480.000000	0.000000	170.000000	55.000000	-305.000000	-38.000000
0.190000	55.950000	76.000000	466.000000	0.000000	169.000000	54.000000	-235.000000	-10.000000
0.200000	54.330000	76.140000	440.000000	0.000000	167.000000	54.000000	-162.000000	14.000000
0.210000	53.190000	76.440000	436.000000	0.000000	166.000000	54.000000	-114.000000	30.000000
0.220000	52.380000	77.180000	443.000000	0.000000	164.000000	54.000000	-81.000000	74.000000
0.230000	52.380000	78.220000	415.000000	0.000000	163.000000	54.000000	0.000000	104.000000
0.240000	52.890000	79.470000	291.000000	0.000000	163.000000	54.000000	51.000000	125.000000
0.250000	54.080000	81.300000	235.000000	0.000000	162.000000	54.000000	119.000000	183.000000
0.260000	55.290000	83.170000	207.000000	0.000000	162.000000	54.000000	121.000000	187.000000
0.270000	56.170000	85.080000	217.000000	0.000000	161.000000	52.000000	88.000000	191.000000
0.280000	56.810000	86.540000	207.000000	0.000000	161.000000	52.000000	64.000000	146.000000
0.290000	57.070000	87.030000	222.000000	0.000000	161.000000	52.000000	26.000000	49.000000
0.300000	56.950000	86.880000	249.000000	0.000000	162.000000	52.000000	-12.000000	-15.000000
0.310000	56.570000	86.290000	329.000000	0.000000	162.000000	52.000000	-38.000000	-59.000000
0.320000	55.810000	85.060000	392.000000	0.000000	162.000000	52.000000	-76.000000	-123.000000
0.330000	55.040000	83.410000	422.000000	0.000000	162.000000	52.000000	-77.000000	-165.000000
0.340000	54.250000	81.550000	449.000000	0.000000	162.000000	52.000000	-79.000000	-186.000000
0.350000	53.470000	79.570000	455.000000	0.000000	162.000000	52.000000	-78.000000	-198.000000
0.360000	52.720000	77.520000	450.000000	0.000000	160.000000	51.000000	-75.000000	-205.000000
0.370000	52.300000	76.110000	398.000000	0.000000	160.000000	52.000000	-42.000000	-141.000000
0.380000	52.090000	75.280000	214.000000	0.000000	158.000000	52.000000	-21.000000	-83.000000
0.390000	52.090000	75.280000	0.000000	1.000000	158.000000	52.000000	0.000000	0.000000
0.400000	53.080000	74.910000	0.000000	0.000000	156.000000	53.000000	99.000000	-37.000000
0.410000	53.880000	75.560000	0.000000	0.000000	156.000000	53.000000	80.000000	65.000000
0.420000	54.560000	76.600000	0.000000	0.000000	156.000000	53.000000	68.000000	104.000000
0.430000	55.240000	77.560000	0.000000	0.000000	156.000000	53.000000	68.000000	96.000000
0.440000	55.920000	78.940000	0.000000	0.000000	156.000000	53.000000	68.000000	138.000000
0.450000	56.630000	80.600000	0.000000	0.000000	158.000000	53.000000	71.000000	166.000000
0.460000	57.210000	81.980000	0.000000	0.000000	160.000000	52.000000	58.000000	138.000000
0.470000	57.690000	82.930000	0.000000	0.000000	160.000000	52.000000	48.000000	95.000000
0.480000	58.120000	83.590000	0.000000	0.000000	162.000000	52.000000	43.000000	66.000000
0.490000	58.270000	83.950000	0.000000	0.000000	162.000000	52.000000	15.000000	36.000000
0.500000	58.220000	84.270000	0.000000	0.000000	162.000000	52.000000	-5.000000	32.000000
0.510000	58.010000	84.380000	0.000000	0.000000	162.000000	51.000000	-21.000000	11.000000
0.520000	57.800000	84.380000	0.000000	0.000000	162.000000	51.000000	-21.000000	0.000000
0.530000	57.550000	83.690000	0.000000	0.000000	162.000000	51.000000	-25.000000	-69.000000
0.540000	57.270000	83.740000	0.000000	0.000000	162.000000	51.000000	-28.000000	5.000000
0.550000	57.180000	84.260000	0.000000	0.000000	162.000000	51.000000	-9.000000	52.000000
0.560000	57.180000	84.260000	0.000000	0.000000	162.000000	51.000000	0.000000	0.000000
0.570000	57.340000	84.260000	0.000000	0.000000	162.000000	51.000000	16.000000	0.000000
0.580000	57.460000	84.260000	0.000000	0.000000	164.000000	51.000000	12.000000	0.000000
0.590000	57.580000	84.360000	0.000000	0.000000	164.000000	51.000000	12.000000	10.000000
0.600000	57.580000	84.360000	51.000000	1.000000	164.000000	51.000000	0.000000	0.000000
0.610000	57.830000	84.860000	91.000000	0.000000	163.000000	52.000000	25.000000	50.000000
0.620000	57.930000	85.310000	131.000000	0.000000	163.000000	52.000000	10.000000	45.000000
0.630000	58.060000	85.780000	228.000000	0.000000	163.000000	52.000000	13.000000	47.000000
0.640000	58.150000	86.020000	289.000000	0.000000	163.000000	52.000000	9.000000	24.000000
0.650000	58.150000	86.100000	301.000000	0.000000	163.000000	52.000000	0.000000	8.000000
0.660000	58.070000	86.030000	333.000000	0.000000	163.000000	52.000000	-8.000000	-7.000000
0.670000	57.860000	85.690000	369.000000	0.000000	163.000000	52.000000	-21.000000	-34.000000
0.680000	57.600000	85.170000	381.000000	0.000000	163.000000	52.000000	-26.000000	-52.000000
0.690000	57.310000	84.660000	392.000000	0.000000	163.000000	52.000000	-29.000000	-51.000000
0.700000	57.080000	84.160000	413.000000	0.000000	163.000000	52.000000	-23.000000	-50.000000
0.710000	56.850000	83.680000	420.000000	0.000000	162.000000	52.000000	-23.000000	-48.000000
0.720000	56.620000	83.170000	425.000000	0.000000	162.000000	52.000000	-23.000000	-51.000000
0.730000	56.540000	82.820000	425.000000	0.000000	160.000000	51.000000	-8.000000	-35.000000
0.740000	56.540000	82.580000	425.000000	0.000000	160.000000	51.000000	0.000000	-24.000000
0.750000	56.540000	82.580000	425.000000	0.000000	159.000000	51.000000	0.000000	0.000000
0.760000	56.640000	82.730000	425.000000	0.000000	159.000000	51.000000	10.000000	15.000000
0.770000	56.870000	83.010000	413.000000	0.000000	159.000000	51.000000	23.000000	28.000000
0.780000	57.200000	83.510000	410.000000	0.000000	158.000000	51.000000	33.000000	50.000000
0.790000	57.470000	84.010000	396.000000	0.000000	159.000000	51.000000	27.000000	50.000000
0.800000	57.700000	84.530000	369.000000	0.000000	159.000000	51.000000	23.000000	52.000000
0.810000	57.890000	85.190000	334.000000	0.000000	159.000000	51.000000	19.000000	66.000000
0.820000	58.020000	85.920000	335.000000	0.000000	159.000000	51.000000	13.000000	73.000000
0.830000	58.020000	86.310000	344.000000	0.000000	159.000000	51.000000	0.000000	39.000000
0.840000	58.020000	86.460000	345.000000	0.000000	159.000000	51.000000	0.000000	15.000000
0.850000	58.020000	86.460000	334.000000	0.000000	160.000000	51.000000	0.000000	0.000000
0.860000	58.020000	86.310000	333.000000	0.000000	160.000000	51.000000	0.000000	-15.000000
0.870000	58.020000	86.020000	333.000000	0.000000	160.000000	51.000000	0.000000	-29.000000
0.880000	57.960000	85.620000	333.000000	0.000000	160.000000	51.000000	-6.000000	-40.000000
0.890000	57.900000	85.230000	336.000000	0.000000	160.000000	51.000000	-6.000000	-39.000000
0.900000	57.960000	84.810000	334.000000	0.000000	160.000000	51.000000	6.000000	-42.000000
0.910000	58.040000	84.470000	339.000000	0.000000	160.000000	51.000000	8.000000	-34.000000
0.920000	58.140000	84.180000	339.000000	0.000000	160.000000	51.000000	10.000000	-29.000000
0.930000	58.260000	84.050000	339.000000	0.000000	159.000000	51.000000	12.000000	-13.000000
0.940000	58.390000	84.050000	342.000000	0.000000	159.000000	51.000000	13.000000	0.000000
0.950000	58.630000	84.120000	337.000000	0.000000	159.000000	51.000000	24.000000	7.000000
0.960000	58.910000	84.410000	337.000000	0.000000	160.000000	51.000000	28.000000	29.000000
0.970000	59.130000	84.770000	339.000000	0.000000	161.000000	50.000000	22.000000	36.000000
0.980000	59.310000	85.170000	335.000000	0.000000	161.000000	50.000000	18.000000	40.000000
0.990000	59.420000	85.510000	344.000000	0.000000	162.000000	52.000000	11.000000	34.000000
1.000000	59.480000	85.800000	343.000000	0.000000	162.000000	52.000000	6.000000	29.000000
1.010000	59.480000	85.960000	351.000000	0.000000	162.000000	52.000000	0.000000	16.000000
1.020000	59.480000	86.050000	358.000000	0.000000	163.000000	52.000000	0.000000	9.000000
1.030000	59.480000	86.050000	361.000000	0.000000	163.000000	52.000000	0.000000	0.000000
1.040000	59.480000	85.820000	369.000000	0.000000	163.000000	52.000000	0.000000	-23.000000
1.050000	59.360000	85.470000	367.000000	0.000000	163.000000	52.000000	-12.000000	-35.000000
1.060000	59.230000	84.980000	371.000000	0.000000	163.000000	52.000000	-13.000000	-49.000000
1.070000	59.090000	84.470000	371.000000	0.000000	163.000000	52.000000	-14.000000	-51.000000
1.080000	58.920000	83.930000	371.000000	0.000000	163.000000	52.000000	-17.000000	-54.000000
1.090000	58.750000	83.400000	363.000000	0.000000	163.000000	52.000000	-17.000000	-53.000000
1.100000	58.750000	83.020000	265.000000	0.000000	163.000000	52.000000	0.000000	-38.000000
1.110000	58.750000	82.730000	83.000000	0.000000	163.000000	52.000000	0.000000	-29.000000
1.120000	58.750000	82.730000	0.000000	1.000000	162.000000	51.000000	0.000000	0.000000
1.130000	59.080000	82.660000	0.000000	0.000000	162.000000	51.000000	33.000000	-7.000000
1.140000	59.280000	82.840000	0.000000	0.000000	162.000000	51.000000	20.000000	18.000000
1.150000	59.480000	83.090000	0.000000	0.000000	162.000000	52.000000	20.000000	25.000000
1.160000	59.670000	83.390000	0.000000	0.000000	162.000000	52.000000	19.000000	30.000000
1.170000	59.820000	83.720000	0.000000	0.000000	163.000000	52.000000	15.000000	33.000000
1.180000	59.820000	83.720000	5.000000	0.000000	163.000000	52.000000	0.000000	0.000000
1.190000	60.110000	84.190000	85.000000	1.000000	164.000000	51.000000	0.000000	0.000000
1.200000	60.160000	84.250000	151.000000	0.000000	165.000000	51.000000	5.000000	6.000000
1.210000	60.160000	84.200000	182.000000	0.000000	165.000000	51.000000	0.000000	-5.000000
1.220000	60.160000	84.120000	196.000000	0.000000	165.000000	51.000000	0.000000	-8.000000
1.230000	60.160000	84.120000	218.000000	0.000000	165.000000	51.000000	0.000000	0.000000
1.240000	60.090000	83.770000	222.000000	0.000000	165.000000	51.000000	-7.000000	-35.000000
1.250000	60.090000	83.550000	206.000000	0.000000	165.000000	51.000000	0.000000	-22.000000
1.260000	60.020000	83.340000	207.000000	0.000000	165.000000	51.000000	-7.000000	-21.000000
1.270000	60.020000	83.050000	212.000000	0.000000	165.000000	51.000000	0.000000	-29.000000
1.280000	60.020000	82.760000	146.000000	0.000000	165.000000	51.000000	0.000000	-29.000000
1.290000	60.020000	82.560000	100.000000	0.000000	165.000000	51.000000	0.000000	-20.000000
1.300000	60.110000	82.420000	104.000000	0.000000	165.000000	51.000000	9.000000	-14.000000
1.310000	60.200000	82.420000	99.000000	0.000000	165.000000	51.000000	9.000000	0.000000
1.320000	60.290000	82.470000	103.000000	0.000000	165.000000	51.000000	9.000000	5.000000
1.330000	60.360000	82.590000	129.000000	0.000000	165.000000	51.000000	7.000000	12.000000
1.340000	60.430000	82.800000	176.000000	0.000000	165.000000	51.000000	7.000000	21.000000
1.350000	60.430000	83.030000	218.000000	0.000000	164.000000	51.000000	0.000000	23.000000
1.360000	60.430000	83.270000	244.000000	0.000000	164.000000	51.000000	0.000000	24.000000
1.370000	60.500000	83.520000	244.000000	0.000000	164.000000	51.000000	7.000000	25.000000
1.380000	60.560000	83.740000	269.000000	0.000000	164.000000	51.000000	6.000000	22.000000
1.390000	60.690000	83.920000	275.000000	0.000000	164.000000	51.000000	13.000000	18.000000
1.400000	60.860000	84.090000	269.000000	0.000000	164.000000	51.000000	17.000000	17.000000
1.410000	61.080000	84.260000	241.000000	0.000000	164.000000	51.000000	22.000000	17.000000
1.420000	61.320000	84.390000	203.000000	0.000000	164.000000	51.000000	24.000000	13.000000
1.430000	61.550000	84.460000	130.000000	0.000000	164.000000	51.000000	23.000000	7.000000
1.440000	61.770000	84.460000	56.000000	0.000000	164.000000	51.000000	22.000000	0.000000
1.450000	61.770000	84.460000	0.000000	1.000000	164.000000	51.000000	0.000000	0.000000
1.460000	62.190000	84.250000	0.000000	0.000000	164.000000	51.000000	42.000000	-21.000000
1.470000	62.310000	84.130000	0.000000	0.000000	162.000000	51.000000	12.000000	-12.000000
1.480000	62.310000	84.130000	61.000000	1.000000	162.000000	51.000000	0.000000	0.000000
1.490000	62.380000	83.740000	81.000000	0.000000	162.000000	51.000000	7.000000	-39.000000
1.500000	62.380000	83.540000	98.000000	0.000000	162.000000	51.000000	0.000000	-20.000000
1.510000	62.300000	83.360000	110.000000	0.000000	162.000000	51.000000	-8.000000	-18.000000
1.520000	62.300000	83.150000	110.000000	0.000000	162.000000	51.000000	0.000000	-21.000000
1.530000	62.220000	82.930000	113.000000	0.000000	162.000000	51.000000	-8.000000	-22.000000
1.540000	62.220000	82.710000	101.000000	0.000000	162.000000	51.000000	0.000000	-22.000000
1.550000	62.220000	82.550000	47.000000	0.000000	162.000000	51.000000	0.000000	-16.000000
1.560000	62.220000	82.550000	0.000000	1.000000	162.000000	52.000000	0.000000	0.000000
1.570000	62.430000	82.430000	0.000000	0.000000	162.000000	52.000000	21.000000	-12.000000
1.580000	62.680000	82.520000	0.000000	0.000000	162.000000	52.000000	25.000000	9.000000
1.590000	62.980000	82.690000	0.000000	0.000000	160.000000	51.000000	30.000000	17.000000
1.600000	63.250000	82.890000	0.000000	0.000000	160.000000	51.000000	27.000000	20.000000
1.610000	63.480000	83.090000	0.000000	0.000000	160.000000	51.000000	23.000000	20.000000
1.620000	63.690000	83.280000	0.000000	0.000000	160.000000	51.000000	21.000000	19.000000
1.630000	63.860000	83.470000	0.000000	0.000000	160.000000	51.000000	17.000000	19.000000
1.640000	63.860000	83.470000	15.000000	1.000000	160.000000	51.000000	0.000000	0.000000
1.650000	63.920000	83.750000	50.000000	0.000000	160.000000	51.000000	6.000000	28.000000
1.660000	63.810000	83.810000	98.000000	0.000000	161.000000	50.000000	-11.000000	6.000000
1.670000	63.660000	83.810000	144.000000	0.000000	161.000000	50.000000	-15.000000	0.000000
1.680000	63.480000	83.750000	163.000000	0.000000	160.000000	50.000000	-18.000000	-6.000000
1.690000	63.280000	83.660000	184.000000	0.000000	160.000000	50.000000	-20.000000	-9.000000
1.700000	63.090000	83.520000	188.000000	0.000000	160.000000	50.000000	-19.000000	-14.000000
1.710000	62.900000	83.340000	203.000000	0.000000	161.000000	50.000000	-19.000000	-18.000000
1.720000	62.730000	83.110000	208.000000	0.000000	161.000000	50.000000	-17.000000	-23.000000
1.730000	62.620000	82.860000	210.000000	0.000000	161.000000	50.000000	-11.000000	-25.000000
1.740000	62.620000	82.680000	210.000000	0.000000	161.000000	50.000000	0.000000	-18.000000
1.750000	62.710000	82.560000	212.000000	0.000000	161.000000	50.000000	9.000000	-12.000000
1.760000	62.880000	82.470000	210.000000	0.000000	161.000000	50.000000	17.000000	-9.000000
1.770000	63.130000	82.470000	193.000000	0.000000	160.000000	50.000000	25.000000	0.000000
1.780000	63.410000	82.590000	185.000000	0.000000	160.000000	50.000000	28.000000	12.000000
1.790000	63.610000	82.760000	190.000000	0.000000	160.000000	50.000000	20.000000	17.000000
1.800000	63.760000	82.920000	190.000000	0.000000	160.000000	50.000000	15.000000	16.000000
1.810000	63.890000	83.110000	193.000000	0.000000	160.000000	50.000000	13.000000	19.000000
1.820000	64.000000	83.310000	205.000000	0.000000	160.000000	50.000000	11.000000	20.000000
1.830000	64.090000	83.420000	220.000000	0.000000	160.000000	50.000000	9.000000	11.000000
1.840000	64.090000	83.490000	214.000000	0.000000	160.000000	50.000000	0.000000	7.000000
1.850000	64.090000	83.490000	221.000000	0.000000	160.000000	50.000000	0.000000	0.000000
1.860000	64.090000	83.410000	225.000000	0.000000	160.000000	50.000000	0.000000	-8.000000
1.870000	64.090000	83.270000	223.000000	0.000000	159.000000	50.000000	0.000000	-14.000000
1.880000	64.020000	83.060000	225.000000	0.000000	159.000000	50.000000	-7.000000	-21.000000
1.890000	64.020000	82.850000	213.000000	0.000000	159.000000	50.000000	0.000000	-21.000000
1.900000	64.020000	82.640000	110.000000	0.000000	159.000000	50.000000	0.000000	-21.000000
1.910000	64.020000	82.640000	0.000000	1.000000	158.000000	51.000000	0.000000	0.000000
1.920000	64.090000	82.390000	0.000000	0.000000	158.000000	51.000000	7.000000	-25.000000
1.930000	64.160000	82.330000	0.000000	0.000000	158.000000	51.000000	7.000000	-6.000000
1.940000	64.240000	82.400000	0.000000	0.000000	158.000000	51.000000	8.000000	7.000000
1.950000	64.330000	82.570000	0.000000	0.000000	158.000000	51.000000	9.000000	17.000000
1.960000	64.450000	82.740000	0.000000	0.000000	158.000000	51.000000	12.000000	17.000000
1.970000	64.580000	82.950000	0.000000	0.000000	158.000000	51.000000	13.000000	21.000000
1.980000	64.760000	83.180000	0.000000	0.000000	158.000000	51.000000	18.000000	23.000000
1.990000	64.940000	83.330000	0.000000	0.000000	158.000000	51.000000	18.000000	15.000000
2.000000	65.020000	83.460000	0.000000	0.000000	158.000000	51.000000	8.000000	13.000000
2.010000	65.020000	83.460000	15.000000	1.000000	158.000000	51.000000	0.000000	0.000000
2.020000	65.020000	83.460000	47.000000	0.000000	158.000000	51.000000	0.000000	0.000000
2.030000	65.020000	83.460000	108.000000	0.000000	158.000000	51.000000	0.000000	0.000000
2.040000	65.020000	83.460000	134.000000	0.000000	159.000000	50.000000	0.000000	0.000000
2.050000	64.870000	83.120000	156.000000	0.000000	159.000000	50.000000	-15.000000	-34.000000
2.060000	64.770000	82.850000	171.000000	0.000000	159.000000	50.000000	-10.000000	-27.000000
2.070000	64.670000	82.640000	191.000000	0.000000	159.000000	50.000000	-10.000000	-21.000000
2.080000	64.570000	82.460000	203.000000	0.000000	158.000000	51.000000	-10.000000	-18.000000
2.090000	64.570000	82.460000	220.000000	0.000000	158.000000	51.000000	0.000000	0.000000
2.100000	64.570000	82.460000	221.000000	0.000000	158.000000	51.000000	0.000000	0.000000
2.110000	64.570000	82.460000	226.000000	0.000000	157.000000	51.000000	0.000000	0.000000
2.120000	64.570000	82.460000	218.000000	0.000000	157.000000	51.000000	0.000000	0.000000
2.130000	64.720000	82.720000	218.000000	0.000000	157.000000	51.000000	15.000000	26.000000
2.140000	64.910000	83.000000	218.000000	0.000000	157.000000	51.000000	19.000000	28.000000
2.150000	65.120000	83.210000	223.000000	0.000000	157.000000	51.000000	21.000000	21.000000
2.160000	65.380000	83.390000	223.000000	0.000000	158.000000	51.000000	26.000000	18.000000
2.170000	65.650000	83.480000	226.000000	0.000000	158.000000	51.000000	27.000000	9.000000
2.180000	65.930000	83.530000	228.000000	0.000000	158.000000	51.000000	28.000000	5.000000
2.190000	66.080000	83.410000	228.000000	0.000000	158.000000	51.000000	15.000000	-12.000000
2.200000	66.150000	83.190000	223.000000	0.000000	158.000000	51.000000	7.000000	-22.000000
2.210000	66.100000	82.810000	190.000000	0.000000	158.000000	51.000000	-5.000000	-38.000000
