t	x	y	pressure	penup	azimuth	inclination	v_x	v_y
0.000000	15.650000	71.030000	161.000000	1.000000	173.000000	51.000000	0.000000	0.000000
0.010000	11.870000	71.440000	244.000000	0.000000	171.000000	51.000000	-378.000000	41.000000
0.020000	10.320000	71.610000	312.000000	0.000000	170.000000	51.000000	-155.000000	17.000000
0.030000	9.530000	71.610000	363.000000	0.000000	170.000000	51.000000	-79.000000	0.000000
0.040000	9.240000	71.490000	413.000000	0.000000	169.000000	50.000000	-29.000000	-12.000000
0.050000	9.580000	71.410000	446.000000	0.000000	168.000000	49.000000	34.000000	-8.000000
0.060000	11.500000	71.350000	473.000000	0.000000	167.000000	49.000000	192.000000	-6.000000
0.070000	14.480000	71.350000	470.000000	0.000000	167.000000	49.000000	298.000000	0.000000
0.080000	19.220000	71.350000	453.000000	0.000000	167.000000	49.000000	474.000000	0.000000
0.090000	24.230000	70.980000	413.000000	0.000000	169.000000	50.000000	501.000000	-37.000000
0.100000	29.420000	70.530000	344.000000	0.000000	171.000000	49.000000	519.000000	-45.000000
0.110000	33.410000	70.000000	279.000000	0.000000	172.000000	49.000000	399.000000	-53.000000
0.120000	35.410000	69.640000	276.000000	0.000000	174.000000	49.000000	200.000000	-36.000000
0.130000	36.090000	69.230000	302.000000	0.000000	176.000000	48.000000	68.000000	-41.000000
0.140000	35.520000	68.800000	312.000000	0.000000	178.000000	48.000000	-57.000000	-43.000000
0.150000	33.580000	68.200000	364.000000	0.000000	179.000000	48.000000	-194.000000	-60.000000
0.160000	30.730000	67.580000	394.000000	0.000000	179.000000	48.000000	-285.000000	-62.000000
0.170000	27.300000	66.950000	427.000000	0.000000	179.000000	49.000000	-343.000000	-63.000000
0.180000	23.170000	66.220000	478.000000	0.000000	178.000000	50.000000	-413.000000	-73.000000
0.190000	18.570000	65.480000	543.000000	0.000000	176.000000	50.000000	-460.000000	-74.000000
0.200000	14.860000	64.910000	564.000000	0.000000	174.000000	51.000000	-371.000000	-57.000000
0.210000	12.520000	64.450000	572.000000	0.000000	171.000000	52.000000	-234.000000	-46.000000
0.220000	11.090000	64.400000	586.000000	0.000000	168.000000	52.000000	-143.000000	-5.000000
0.230000	10.730000	64.610000	561.000000	0.000000	165.000000	53.000000	-36.000000	21.000000
0.240000	11.370000	65.000000	518.000000	0.000000	162.000000	53.000000	64.000000	39.000000
0.250000	12.680000	66.370000	502.000000	0.000000	160.000000	53.000000	131.000000	137.000000
0.260000	14.910000	67.970000	481.000000	0.000000	158.000000	53.000000	223.000000	160.000000
0.270000	17.180000	69.730000	444.000000	0.000000	158.000000	52.000000	227.000000	176.000000
0.280000	18.910000	71.970000	447.000000	0.000000	158.000000	52.000000	173.000000	224.000000
0.290000	20.260000	73.880000	455.000000	0.000000	160.000000	51.000000	135.000000	191.000000
0.300000	20.690000	75.560000	474.000000	0.000000	164.000000	51.000000	43.000000	168.000000
0.310000	20.770000	76.460000	475.000000	0.000000	165.000000	50.000000	8.000000	90.000000
0.320000	20.610000	76.580000	477.000000	0.000000	169.000000	50.000000	-16.000000	12.000000
0.330000	20.250000	76.180000	483.000000	0.000000	172.000000	49.000000	-36.000000	-40.000000
0.340000	19.530000	75.010000	488.000000	0.000000	174.000000	48.000000	-72.000000	-117.000000
0.350000	18.570000	73.400000	533.000000	0.000000	176.000000	47.000000	-96.000000	-161.000000
0.360000	17.610000	71.490000	546.000000	0.000000	176.000000	47.000000	-96.000000	-191.000000
0.370000	16.550000	69.110000	540.000000	0.000000	176.000000	48.000000	-106.000000	-238.000000
0.380000	15.410000	67.290000	542.000000	0.000000	173.000000	49.000000	-114.000000	-182.000000
0.390000	14.870000	65.850000	522.000000	0.000000	170.000000	50.000000	-54.000000	-144.000000
0.400000	14.530000	64.960000	413.000000	0.000000	168.000000	50.000000	-34.000000	-89.000000
0.410000	14.310000	64.370000	99.000000	0.000000	165.000000	50.000000	-22.000000	-59.000000
0.420000	14.310000	64.370000	0.000000	1.000000	162.000000	51.000000	0.000000	0.000000
0.430000	14.120000	64.270000	0.000000	0.000000	159.000000	51.000000	-19.000000	-10.000000
0.440000	14.120000	65.210000	0.000000	0.000000	157.000000	52.000000	0.000000	94.000000
0.450000	14.460000	66.590000	0.000000	0.000000	156.000000	51.000000	34.000000	138.000000
0.460000	14.920000	67.990000	0.000000	0.000000	157.000000	51.000000	46.000000	140.000000
0.470000	15.740000	69.760000	0.000000	0.000000	159.000000	50.000000	82.000000	177.000000
0.480000	16.580000	71.790000	0.000000	0.000000	159.000000	49.000000	84.000000	203.000000
0.490000	17.520000	72.760000	0.000000	0.000000	161.000000	47.000000	94.000000	97.000000
0.500000	18.520000	74.290000	0.000000	0.000000	162.000000	46.000000	100.000000	153.000000
0.510000	19.270000	76.200000	0.000000	0.000000	163.000000	43.000000	75.000000	191.000000
0.520000	19.270000	77.120000	0.000000	0.000000	164.000000	40.000000	0.000000	92.000000
0.530000	18.730000	77.740000	0.000000	0.000000	165.000000	36.000000	-54.000000	62.000000
0.540000	18.310000	78.150000	0.000000	0.000000	165.000000	33.000000	-42.000000	41.000000
0.550000	18.310000	78.860000	0.000000	0.000000	166.000000	30.000000	0.000000	71.000000
0.560000	18.620000	79.570000	0.000000	0.000000	166.000000	29.000000	31.000000	71.000000
0.570000	20.140000	80.270000	0.000000	0.000000	166.000000	29.000000	152.000000	70.000000
0.580000	21.660000	81.450000	0.000000	0.000000	166.000000	29.000000	152.000000	118.000000
0.590000	23.200000	82.570000	0.000000	0.000000	167.000000	30.000000	154.000000	112.000000
0.600000	23.930000	83.060000	0.000000	0.000000	166.000000	33.000000	73.000000	49.000000
0.610000	24.130000	83.150000	0.000000	0.000000	166.000000	36.000000	20.000000	9.000000
0.620000	24.460000	83.240000	0.000000	0.000000	166.000000	39.000000	33.000000	9.000000
0.630000	24.720000	83.840000	0.000000	0.000000	168.000000	42.000000	26.000000	60.000000
0.640000	24.940000	83.840000	0.000000	0.000000	169.000000	44.000000	22.000000	0.000000
0.650000	24.940000	83.390000	0.000000	0.000000	170.000000	47.000000	0.000000	-45.000000
0.660000	24.890000	82.790000	0.000000	0.000000	171.000000	48.000000	-5.000000	-60.000000
0.670000	24.890000	82.180000	0.000000	0.000000	172.000000	49.000000	0.000000	-61.000000
0.680000	25.180000	81.560000	0.000000	0.000000	173.000000	50.000000	29.000000	-62.000000
0.690000	25.310000	80.960000	0.000000	0.000000	174.000000	51.000000	13.000000	-60.000000
0.700000	25.310000	80.280000	0.000000	0.000000	175.000000	51.000000	0.000000	-68.000000
0.710000	24.880000	79.340000	0.000000	0.000000	175.000000	52.000000	-43.000000	-94.000000
0.720000	24.350000	78.230000	0.000000	0.000000	175.000000	52.000000	-53.000000	-111.000000
0.730000	23.770000	77.300000	0.000000	0.000000	175.000000	51.000000	-58.000000	-93.000000
0.740000	23.170000	76.480000	0.000000	0.000000	174.000000	51.000000	-60.000000	-82.000000
0.750000	22.380000	75.740000	0.000000	0.000000	173.000000	50.000000	-79.000000	-74.000000
0.760000	21.460000	75.010000	0.000000	0.000000	172.000000	50.000000	-92.000000	-73.000000
0.770000	20.820000	74.530000	0.000000	0.000000	171.000000	49.000000	-64.000000	-48.000000
0.780000	20.680000	74.210000	0.000000	0.000000	170.000000	48.000000	-14.000000	-32.000000
0.790000	20.870000	74.020000	0.000000	0.000000	168.000000	47.000000	19.000000	-19.000000
0.800000	21.080000	73.930000	0.000000	0.000000	166.000000	48.000000	21.000000	-9.000000
0.810000	21.260000	73.930000	0.000000	0.000000	165.000000	49.000000	18.000000	0.000000
0.820000	21.380000	73.740000	0.000000	0.000000	165.000000	49.000000	12.000000	-19.000000
0.830000	21.480000	73.530000	0.000000	0.000000	164.000000	50.000000	10.000000	-21.000000
0.840000	21.570000	73.270000	0.000000	0.000000	163.000000	50.000000	9.000000	-26.000000
0.850000	21.570000	73.080000	0.000000	0.000000	163.000000	50.000000	0.000000	-19.000000
0.860000	21.450000	72.950000	0.000000	0.000000	163.000000	50.000000	-12.000000	-13.000000
0.870000	21.450000	72.890000	0.000000	0.000000	162.000000	51.000000	0.000000	-6.000000
0.880000	21.520000	72.890000	0.000000	0.000000	162.000000	51.000000	7.000000	0.000000
0.890000	21.520000	72.960000	0.000000	0.000000	162.000000	51.000000	0.000000	7.000000
0.900000	21.590000	73.060000	0.000000	0.000000	162.000000	51.000000	7.000000	10.000000
0.910000	21.640000	73.150000	0.000000	0.000000	162.000000	51.000000	5.000000	9.000000
0.920000	21.780000	73.350000	0.000000	0.000000	161.000000	50.000000	14.000000	20.000000
0.930000	21.920000	73.630000	0.000000	0.000000	161.000000	50.000000	14.000000	28.000000
0.940000	22.080000	73.790000	0.000000	0.000000	161.000000	50.000000	16.000000	16.000000
0.950000	22.080000	73.790000	46.000000	1.000000	161.000000	50.000000	0.000000	0.000000
0.960000	22.300000	74.130000	51.000000	0.000000	162.000000	50.000000	22.000000	34.000000
0.970000	22.370000	74.290000	127.000000	0.000000	162.000000	50.000000	7.000000	16.000000
0.980000	22.370000	74.420000	188.000000	0.000000	162.000000	50.000000	0.000000	13.000000
0.990000	22.370000	74.310000	230.000000	0.000000	162.000000	50.000000	0.000000	-11.000000
1.000000	22.370000	74.310000	274.000000	0.000000	163.000000	50.000000	0.000000	0.000000
1.010000	22.170000	73.840000	319.000000	0.000000	163.000000	50.000000	-20.000000	-47.000000
1.020000	22.060000	73.500000	338.000000	0.000000	162.000000	51.000000	-11.000000	-34.000000
1.030000	22.000000	73.190000	361.000000	0.000000	162.000000	51.000000	-6.000000	-31.000000
1.040000	21.920000	72.890000	373.000000	0.000000	162.000000	51.000000	-8.000000	-30.000000
1.050000	21.810000	72.520000	367.000000	0.000000	162.000000	51.000000	-11.000000	-37.000000
1.060000	21.690000	72.090000	366.000000	0.000000	162.000000	51.000000	-12.000000	-43.000000
1.070000	21.560000	71.780000	379.000000	0.000000	160.000000	51.000000	-13.000000	-31.000000
1.080000	21.490000	71.560000	376.000000	0.000000	160.000000	51.000000	-7.000000	-22.000000
1.090000	21.490000	71.490000	381.000000	0.000000	160.000000	51.000000	0.000000	-7.000000
1.100000	21.560000	71.540000	398.000000	0.000000	160.000000	52.000000	7.000000	5.000000
1.110000	21.610000	71.660000	393.000000	0.000000	160.000000	52.000000	5.000000	12.000000
1.120000	21.800000	72.050000	393.000000	0.000000	160.000000	52.000000	19.000000	39.000000
1.130000	22.060000	72.490000	386.000000	0.000000	160.000000	52.000000	26.000000	44.000000
1.140000	22.370000	72.960000	377.000000	0.000000	160.000000	52.000000	31.000000	47.000000
1.150000	22.680000	73.510000	361.000000	0.000000	160.000000	52.000000	31.000000	55.000000
1.160000	22.990000	74.060000	358.000000	0.000000	159.000000	51.000000	31.000000	55.000000
1.170000	22.990000	74.060000	341.000000	0.000000	159.000000	51.000000	0.000000	0.000000
1.180000	22.990000	74.060000	348.000000	0.000000	159.000000	51.000000	0.000000	0.000000
1.190000	22.990000	74.060000	339.000000	0.000000	160.000000	50.000000	0.000000	0.000000
1.200000	22.990000	74.060000	344.000000	0.000000	160.000000	50.000000	0.000000	0.000000
1.210000	22.940000	73.810000	348.000000	0.000000	160.000000	50.000000	-5.000000	-25.000000
1.220000	22.940000	73.570000	354.000000	0.000000	160.000000	50.000000	0.000000	-24.000000
1.230000	22.940000	73.350000	356.000000	0.000000	160.000000	50.000000	0.000000	-22.000000
1.240000	22.990000	73.120000	361.000000	0.000000	160.000000	50.000000	5.000000	-23.000000
1.250000	23.100000	72.910000	354.000000	0.000000	160.000000	50.000000	11.000000	-21.000000
1.260000	23.270000	72.820000	354.000000	0.000000	159.000000	50.000000	17.000000	-9.000000
1.270000	23.480000	72.820000	354.000000	0.000000	159.000000	50.000000	21.000000	0.000000
1.280000	23.720000	72.950000	353.000000	0.000000	159.000000	50.000000	24.000000	13.000000
1.290000	23.960000	73.210000	346.000000	0.000000	159.000000	50.000000	24.000000	26.000000
1.300000	24.200000	73.550000	343.000000	0.000000	159.000000	50.000000	24.000000	34.000000
1.310000	24.450000	73.820000	343.000000	0.000000	159.000000	50.000000	25.000000	27.000000
1.320000	24.590000	74.060000	351.000000	0.000000	159.000000	50.000000	14.000000	24.000000
1.330000	24.590000	74.060000	354.000000	0.000000	159.000000	50.000000	0.000000	0.000000
1.340000	24.590000	74.060000	356.000000	0.000000	159.000000	50.000000	0.000000	0.000000
1.350000	24.590000	74.060000	371.000000	0.000000	159.000000	50.000000	0.000000	0.000000
1.360000	24.590000	74.060000	362.000000	0.000000	161.000000	49.000000	0.000000	0.000000
1.370000	24.270000	73.690000	371.000000	0.000000	161.000000	49.000000	-32.000000	-37.000000
1.380000	24.020000	73.280000	381.000000	0.000000	161.000000	49.000000	-25.000000	-41.000000
1.390000	23.780000	72.760000	391.000000	0.000000	161.000000	49.000000	-24.000000	-52.000000
1.400000	23.580000	72.240000	389.000000	0.000000	161.000000	49.000000	-20.000000	-52.000000
1.410000	23.450000	71.740000	377.000000	0.000000	160.000000	50.000000	-13.000000	-50.000000
1.420000	23.450000	71.400000	304.000000	0.000000	160.000000	50.000000	0.000000	-34.000000
1.430000	23.580000	71.160000	171.000000	0.000000	159.000000	50.000000	13.000000	-24.000000
1.440000	23.700000	71.080000	18.000000	0.000000	158.000000	51.000000	12.000000	-8.000000
1.450000	23.700000	71.080000	0.000000	1.000000	158.000000	51.000000	0.000000	0.000000
1.460000	24.090000	71.320000	0.000000	0.000000	158.000000	51.000000	39.000000	24.000000
1.470000	24.290000	71.600000	0.000000	0.000000	158.000000	51.000000	20.000000	28.000000
1.480000	24.470000	71.910000	0.000000	0.000000	159.000000	51.000000	18.000000	31.000000
1.490000	24.640000	72.230000	0.000000	0.000000	159.000000	51.000000	17.000000	32.000000
1.500000	24.840000	72.530000	0.000000	0.000000	159.000000	51.000000	20.000000	30.000000
1.510000	25.020000	72.770000	0.000000	0.000000	159.000000	51.000000	18.000000	24.000000
1.520000	25.020000	72.770000	39.000000	1.000000	159.000000	51.000000	0.000000	0.000000
1.530000	25.090000	72.770000	81.000000	0.000000	159.000000	51.000000	7.000000	0.000000
1.540000	25.090000	72.640000	141.000000	0.000000	160.000000	50.000000	0.000000	-13.000000
1.550000	25.020000	72.500000	184.000000	0.000000	160.000000	50.000000	-7.000000	-14.000000
1.560000	24.960000	72.330000	176.000000	0.000000	160.000000	50.000000	-6.000000	-17.000000
1.570000	24.960000	72.150000	181.000000	0.000000	160.000000	50.000000	0.000000	-18.000000
1.580000	24.960000	71.930000	173.000000	0.000000	160.000000	50.000000	0.000000	-22.000000
1.590000	24.960000	71.680000	141.000000	0.000000	160.000000	50.000000	0.000000	-25.000000
1.600000	24.960000	71.420000	61.000000	0.000000	159.000000	50.000000	0.000000	-26.000000
1.610000	24.960000	71.420000	0.000000	1.000000	159.000000	50.000000	0.000000	0.000000
1.620000	25.110000	71.020000	0.000000	0.000000	158.000000	51.000000	15.000000	-40.000000
1.630000	25.260000	70.920000	0.000000	0.000000	158.000000	51.000000	15.000000	-10.000000
1.640000	25.490000	70.980000	0.000000	0.000000	158.000000	51.000000	23.000000	6.000000
1.650000	25.700000	71.030000	0.000000	0.000000	158.000000	51.000000	21.000000	5.000000
1.660000	25.700000	71.030000	75.000000	1.000000	158.000000	51.000000	0.000000	0.000000
1.670000	25.700000	71.030000	184.000000	0.000000	158.000000	51.000000	0.000000	0.000000
1.680000	25.700000	71.030000	245.000000	0.000000	159.000000	51.000000	0.000000	0.000000
1.690000	25.730000	71.420000	334.000000	0.000000	159.000000	51.000000	3.000000	39.000000
1.700000	25.670000	71.630000	387.000000	0.000000	159.000000	51.000000	-6.000000	21.000000
1.710000	25.670000	71.820000	399.000000	0.000000	159.000000	51.000000	0.000000	19.000000
1.720000	25.670000	72.010000	405.000000	0.000000	159.000000	51.000000	0.000000	19.000000
1.730000	25.670000	72.190000	381.000000	0.000000	159.000000	51.000000	0.000000	18.000000
1.740000	25.790000	72.370000	343.000000	0.000000	159.000000	51.000000	12.000000	18.000000
1.750000	25.960000	72.560000	259.000000	0.000000	160.000000	50.000000	17.000000	19.000000
1.760000	26.170000	72.660000	141.000000	0.000000	160.000000	50.000000	21.000000	10.000000
1.770000	26.480000	72.660000	91.000000	0.000000	160.000000	50.000000	31.000000	0.000000
1.780000	26.850000	72.660000	48.000000	0.000000	161.000000	50.000000	37.000000	0.000000
1.790000	27.080000	72.660000	56.000000	0.000000	161.000000	50.000000	23.000000	0.000000
1.800000	27.250000	72.570000	61.000000	0.000000	162.000000	50.000000	17.000000	-9.000000
1.810000	27.380000	72.470000	48.000000	0.000000	163.000000	50.000000	13.000000	-10.000000
1.820000	27.550000	72.360000	76.000000	0.000000	163.000000	50.000000	17.000000	-11.000000
1.830000	27.670000	72.260000	101.000000	0.000000	163.000000	50.000000	12.000000	-10.000000
1.840000	27.750000	72.100000	131.000000	0.000000	164.000000	50.000000	8.000000	-16.000000
1.850000	27.750000	71.910000	153.000000	0.000000	164.000000	50.000000	0.000000	-19.000000
1.860000	27.750000	71.690000	168.000000	0.000000	165.000000	51.000000	0.000000	-22.000000
1.870000	27.680000	71.470000	168.000000	0.000000	165.000000	51.000000	-7.000000	-22.000000
1.880000	27.680000	71.290000	139.000000	0.000000	165.000000	51.000000	0.000000	-18.000000
1.890000	27.680000	71.120000	88.000000	0.000000	165.000000	51.000000	0.000000	-17.000000
1.900000	27.680000	71.120000	0.000000	1.000000	165.000000	51.000000	0.000000	0.000000
1.910000	27.880000	71.040000	0.000000	0.000000	165.000000	51.000000	20.000000	-8.000000
1.920000	27.880000	71.040000	0.000000	0.000000	165.000000	51.000000	0.000000	0.000000
1.930000	28.410000	71.280000	0.000000	0.000000	166.000000	51.000000	53.000000	24.000000
1.940000	28.700000	71.490000	0.000000	0.000000	166.000000	51.000000	29.000000	21.000000
1.950000	28.980000	71.600000	0.000000	0.000000	166.000000	51.000000	28.000000	11.000000
1.960000	29.250000	71.710000	0.000000	0.000000	166.000000	51.000000	27.000000	11.000000
1.970000	29.440000	71.810000	0.000000	0.000000	166.000000	51.000000	19.000000	10.000000
1.980000	29.440000	71.810000	48.000000	1.000000	167.000000	51.000000	0.000000	0.000000
1.990000	29.440000	71.810000	65.000000	0.000000	167.000000	51.000000	0.000000	0.000000
2.000000	29.440000	71.810000	93.000000	0.000000	167.000000	51.000000	0.000000	0.000000
2.010000	29.310000	72.140000	170.000000	0.000000	167.000000	51.000000	-13.000000	33.000000
2.020000	29.160000	72.140000	182.000000	0.000000	167.000000	51.000000	-15.000000	0.000000
2.030000	28.960000	72.140000	190.000000	0.000000	167.000000	51.000000	-20.000000	0.000000
2.040000	28.730000	72.010000	200.000000	0.000000	168.000000	50.000000	-23.000000	-13.000000
2.050000	28.600000	71.920000	214.000000	0.000000	168.000000	50.000000	-13.000000	-9.000000
2.060000	28.460000	71.730000	242.000000	0.000000	168.000000	50.000000	-14.000000	-19.000000
2.070000	28.360000	71.530000	256.000000	0.000000	168.000000	50.000000	-10.000000	-20.000000
2.080000	28.300000	71.340000	242.000000	0.000000	167.000000	51.000000	-6.000000	-19.000000
2.090000	28.300000	71.240000	249.000000	0.000000	167.000000	51.000000	0.000000	-10.000000
2.100000	28.360000	71.190000	249.000000	0.000000	167.000000	51.000000	6.000000	-5.000000
2.110000	28.470000	71.190000	246.000000	0.000000	167.000000	51.000000	11.000000	0.000000
2.120000	28.650000	71.250000	244.000000	0.000000	167.000000	51.000000	18.000000	6.000000
2.130000	28.920000	71.390000	244.000000	0.000000	167.000000	51.000000	27.000000	14.000000
2.140000	29.150000	71.580000	244.000000	0.000000	167.000000	51.000000	23.000000	19.000000
2.150000	29.350000	71.760000	246.000000	0.000000	167.000000	51.000000	20.000000	18.000000
2.160000	29.520000	71.910000	247.000000	0.000000	166.000000	51.000000	17.000000	15.000000
2.170000	29.600000	72.000000	254.000000	0.000000	166.000000	51.000000	8.000000	9.000000
2.180000	29.600000	72.000000	241.000000	0.000000	166.000000	51.000000	0.000000	0.000000
2.190000	29.600000	72.000000	254.000000	0.000000	166.000000	51.000000	0.000000	0.000000
2.200000	29.600000	71.930000	245.000000	0.000000	166.000000	51.000000	0.000000	-7.000000
2.210000	29.600000	71.800000	250.000000	0.000000	166.000000	51.000000	0.000000	-13.000000
