t	x	y	pressure	penup	azimuth	inclination	v_x	v_y
0.000000	52.080000	61.230000	53.000000	1.000000	122.000000	50.000000	0.000000	0.000000
0.010000	51.830000	61.480000	93.000000	0.000000	122.000000	50.000000	-25.000000	25.000000
0.020000	51.720000	61.380000	119.000000	0.000000	124.000000	50.000000	-11.000000	-10.000000
0.030000	51.720000	61.380000	143.000000	0.000000	124.000000	50.000000	0.000000	0.000000
0.040000	51.830000	61.380000	180.000000	0.000000	124.000000	50.000000	11.000000	0.000000
0.050000	51.990000	61.380000	217.000000	0.000000	125.000000	51.000000	16.000000	0.000000
0.060000	52.140000	61.380000	262.000000	0.000000	126.000000	50.000000	15.000000	0.000000
0.070000	52.300000	61.430000	304.000000	0.000000	126.000000	50.000000	16.000000	5.000000
0.080000	52.610000	61.630000	309.000000	0.000000	126.000000	50.000000	31.000000	20.000000
0.090000	52.990000	61.920000	341.000000	0.000000	126.000000	50.000000	38.000000	29.000000
0.100000	53.550000	62.410000	369.000000	0.000000	126.000000	50.000000	56.000000	49.000000
0.110000	54.130000	63.190000	389.000000	0.000000	126.000000	50.000000	58.000000	78.000000
0.120000	54.880000	64.160000	404.000000	0.000000	126.000000	50.000000	75.000000	97.000000
0.130000	55.740000	65.420000	423.000000	0.000000	126.000000	50.000000	86.000000	126.000000
0.140000	56.700000	66.650000	423.000000	0.000000	126.000000	50.000000	96.000000	123.000000
0.150000	57.410000	67.820000	425.000000	0.000000	127.000000	51.000000	71.000000	117.000000
0.160000	57.960000	68.730000	431.000000	0.000000	127.000000	51.000000	55.000000	91.000000
0.170000	58.120000	69.470000	452.000000	0.000000	127.000000	51.000000	16.000000	74.000000
0.180000	58.070000	70.020000	466.000000	0.000000	129.000000	51.000000	-5.000000	55.000000
0.190000	57.880000	70.300000	473.000000	0.000000	129.000000	51.000000	-19.000000	28.000000
0.200000	57.740000	70.390000	460.000000	0.000000	130.000000	51.000000	-14.000000	9.000000
0.210000	57.320000	70.220000	455.000000	0.000000	132.000000	50.000000	-42.000000	-17.000000
0.220000	56.710000	69.720000	456.000000	0.000000	132.000000	50.000000	-61.000000	-50.000000
0.230000	56.000000	68.990000	452.000000	0.000000	132.000000	50.000000	-71.000000	-73.000000
0.240000	55.200000	68.070000	441.000000	0.000000	132.000000	50.000000	-80.000000	-92.000000
0.250000	54.350000	67.120000	430.000000	0.000000	132.000000	50.000000	-85.000000	-95.000000
0.260000	53.420000	66.100000	420.000000	0.000000	132.000000	50.000000	-93.000000	-102.000000
0.270000	52.370000	65.020000	414.000000	0.000000	130.000000	51.000000	-105.000000	-108.000000
0.280000	51.240000	63.830000	428.000000	0.000000	128.000000	50.000000	-113.000000	-119.000000
0.290000	50.240000	62.560000	444.000000	0.000000	128.000000	50.000000	-100.000000	-127.000000
0.300000	49.530000	61.530000	449.000000	0.000000	127.000000	51.000000	-71.000000	-103.000000
0.310000	49.010000	60.600000	441.000000	0.000000	127.000000	51.000000	-52.000000	-93.000000
0.320000	48.740000	59.730000	441.000000	0.000000	127.000000	51.000000	-27.000000	-87.000000
0.330000	48.650000	58.800000	443.000000	0.000000	128.000000	52.000000	-9.000000	-93.000000
0.340000	48.650000	58.140000	441.000000	0.000000	127.000000	52.000000	0.000000	-66.000000
0.350000	48.930000	57.650000	440.000000	0.000000	127.000000	52.000000	28.000000	-49.000000
0.360000	49.450000	57.420000	446.000000	0.000000	127.000000	52.000000	52.000000	-23.000000
0.370000	50.130000	57.420000	448.000000	0.000000	125.000000	53.000000	68.000000	0.000000
0.380000	51.130000	57.470000	469.000000	0.000000	125.000000	53.000000	100.000000	5.000000
0.390000	52.520000	57.740000	483.000000	0.000000	125.000000	53.000000	139.000000	27.000000
0.400000	54.160000	58.130000	495.000000	0.000000	125.000000	53.000000	164.000000	39.000000
0.410000	56.010000	58.590000	504.000000	0.000000	125.000000	53.000000	185.000000	46.000000
0.420000	58.090000	58.990000	512.000000	0.000000	125.000000	53.000000	208.000000	40.000000
0.430000	60.310000	59.440000	512.000000	0.000000	127.000000	53.000000	222.000000	45.000000
0.440000	62.600000	59.930000	518.000000	0.000000	128.000000	54.000000	229.000000	49.000000
0.450000	64.920000	60.470000	530.000000	0.000000	129.000000	53.000000	232.000000	54.000000
0.460000	67.260000	60.990000	530.000000	0.000000	131.000000	55.000000	234.000000	52.000000
0.470000	69.770000	61.470000	501.000000	0.000000	134.000000	55.000000	251.000000	48.000000
0.480000	71.830000	61.870000	485.000000	0.000000	136.000000	56.000000	206.000000	40.000000
0.490000	73.600000	62.240000	483.000000	0.000000	140.000000	56.000000	177.000000	37.000000
0.500000	74.590000	62.430000	485.000000	0.000000	142.000000	57.000000	99.000000	19.000000
0.510000	75.060000	62.580000	492.000000	0.000000	144.000000	58.000000	47.000000	15.000000
0.520000	75.170000	62.680000	529.000000	0.000000	147.000000	58.000000	11.000000	10.000000
0.530000	75.010000	62.850000	540.000000	0.000000	149.000000	58.000000	-16.000000	17.000000
0.540000	74.280000	63.060000	543.000000	0.000000	149.000000	58.000000	-73.000000	21.000000
0.550000	73.170000	63.290000	532.000000	0.000000	150.000000	58.000000	-111.000000	23.000000
0.560000	71.490000	63.510000	526.000000	0.000000	150.000000	58.000000	-168.000000	22.000000
0.570000	69.570000	63.690000	540.000000	0.000000	150.000000	58.000000	-192.000000	18.000000
0.580000	67.480000	63.910000	544.000000	0.000000	151.000000	58.000000	-209.000000	22.000000
0.590000	65.220000	64.180000	537.000000	0.000000	150.000000	57.000000	-226.000000	27.000000
0.600000	62.960000	64.440000	537.000000	0.000000	148.000000	57.000000	-226.000000	26.000000
0.610000	61.120000	64.690000	522.000000	0.000000	147.000000	56.000000	-184.000000	25.000000
0.620000	59.560000	64.920000	509.000000	0.000000	147.000000	56.000000	-156.000000	23.000000
0.630000	58.670000	64.920000	452.000000	0.000000	145.000000	56.000000	-89.000000	0.000000
0.640000	58.090000	64.780000	359.000000	0.000000	143.000000	55.000000	-58.000000	-14.000000
0.650000	57.710000	64.580000	120.000000	0.000000	141.000000	55.000000	-38.000000	-20.000000
0.660000	57.710000	64.580000	0.000000	1.000000	140.000000	54.000000	0.000000	0.000000
0.670000	58.000000	64.590000	0.000000	0.000000	140.000000	54.000000	29.000000	1.000000
0.680000	58.740000	65.140000	0.000000	0.000000	139.000000	54.000000	74.000000	55.000000
0.690000	59.540000	65.710000	0.000000	0.000000	139.000000	54.000000	80.000000	57.000000
0.700000	60.330000	66.290000	0.000000	0.000000	137.000000	53.000000	79.000000	58.000000
0.710000	61.100000	66.740000	0.000000	0.000000	139.000000	52.000000	77.000000	45.000000
0.720000	61.690000	67.010000	0.000000	0.000000	137.000000	52.000000	59.000000	27.000000
0.730000	62.210000	67.150000	0.000000	0.000000	137.000000	51.000000	52.000000	14.000000
0.740000	62.680000	67.070000	0.000000	0.000000	140.000000	50.000000	47.000000	-8.000000
0.750000	63.000000	66.860000	0.000000	0.000000	139.000000	48.000000	32.000000	-21.000000
0.760000	63.320000	66.560000	0.000000	0.000000	139.000000	47.000000	32.000000	-30.000000
0.770000	63.630000	66.480000	0.000000	0.000000	140.000000	47.000000	31.000000	-8.000000
0.780000	63.890000	66.480000	0.000000	0.000000	140.000000	47.000000	26.000000	0.000000
0.790000	63.950000	66.480000	0.000000	0.000000	139.000000	46.000000	6.000000	0.000000
0.800000	63.870000	66.480000	0.000000	0.000000	140.000000	46.000000	-8.000000	0.000000
0.810000	63.490000	66.480000	0.000000	0.000000	139.000000	46.000000	-38.000000	0.000000
0.820000	62.900000	66.410000	0.000000	0.000000	139.000000	46.000000	-59.000000	-7.000000
0.830000	62.180000	66.280000	0.000000	0.000000	139.000000	46.000000	-72.000000	-13.000000
0.840000	61.350000	66.110000	0.000000	0.000000	138.000000	47.000000	-83.000000	-17.000000
0.850000	60.510000	65.820000	0.000000	0.000000	138.000000	47.000000	-84.000000	-29.000000
0.860000	59.680000	65.460000	0.000000	0.000000	137.000000	47.000000	-83.000000	-36.000000
0.870000	58.840000	65.180000	0.000000	0.000000	136.000000	48.000000	-84.000000	-28.000000
0.880000	58.000000	65.090000	0.000000	0.000000	137.000000	48.000000	-84.000000	-9.000000
0.890000	57.370000	65.090000	0.000000	0.000000	136.000000	49.000000	-63.000000	0.000000
0.900000	56.870000	65.380000	0.000000	0.000000	135.000000	50.000000	-50.000000	29.000000
0.910000	56.730000	65.600000	0.000000	0.000000	135.000000	51.000000	-14.000000	22.000000
0.920000	56.850000	65.800000	0.000000	0.000000	135.000000	51.000000	12.000000	20.000000
0.930000	57.150000	66.030000	0.000000	0.000000	135.000000	52.000000	30.000000	23.000000
0.940000	57.490000	66.280000	0.000000	0.000000	135.000000	52.000000	34.000000	25.000000
0.950000	57.820000	66.490000	0.000000	0.000000	134.000000	52.000000	33.000000	21.000000
0.960000	58.160000	66.770000	0.000000	0.000000	135.000000	53.000000	34.000000	28.000000
0.970000	58.540000	67.090000	0.000000	0.000000	134.000000	54.000000	38.000000	32.000000
0.980000	58.960000	67.550000	0.000000	0.000000	134.000000	54.000000	42.000000	46.000000
0.990000	59.310000	67.980000	0.000000	0.000000	134.000000	54.000000	35.000000	43.000000
1.000000	59.580000	68.400000	0.000000	0.000000	134.000000	54.000000	27.000000	42.000000
1.010000	59.780000	68.670000	0.000000	0.000000	134.000000	54.000000	20.000000	27.000000
1.020000	59.960000	68.770000	0.000000	0.000000	134.000000	54.000000	18.000000	10.000000
1.030000	60.120000	68.770000	0.000000	0.000000	135.000000	53.000000	16.000000	0.000000
1.040000	60.240000	68.640000	0.000000	0.000000	135.000000	53.000000	12.000000	-13.000000
1.050000	60.360000	68.530000	0.000000	0.000000	136.000000	52.000000	12.000000	-11.000000
1.060000	60.530000	68.530000	0.000000	0.000000	136.000000	52.000000	17.000000	0.000000
1.070000	60.730000	68.530000	0.000000	0.000000	135.000000	52.000000	20.000000	0.000000
1.080000	60.480000	68.530000	0.000000	0.000000	136.000000	51.000000	-25.000000	0.000000
1.090000	60.400000	68.530000	0.000000	0.000000	137.000000	52.000000	-8.000000	0.000000
1.100000	60.400000	68.530000	41.000000	1.000000	137.000000	52.000000	0.000000	0.000000
1.110000	60.400000	68.530000	98.000000	0.000000	136.000000	52.000000	0.000000	0.000000
1.120000	60.400000	68.530000	132.000000	0.000000	137.000000	53.000000	0.000000	0.000000
1.130000	60.010000	68.010000	193.000000	0.000000	137.000000	53.000000	-39.000000	-52.000000
1.140000	59.750000	67.580000	246.000000	0.000000	139.000000	54.000000	-26.000000	-43.000000
1.150000	59.410000	66.830000	269.000000	0.000000	137.000000	54.000000	-34.000000	-75.000000
1.160000	59.020000	66.230000	273.000000	0.000000	137.000000	54.000000	-39.000000	-60.000000
1.170000	58.720000	65.730000	277.000000	0.000000	137.000000	54.000000	-30.000000	-50.000000
1.180000	58.540000	65.250000	273.000000	0.000000	136.000000	55.000000	-18.000000	-48.000000
1.190000	58.440000	64.990000	275.000000	0.000000	135.000000	54.000000	-10.000000	-26.000000
1.200000	58.440000	64.880000	247.000000	0.000000	134.000000	55.000000	0.000000	-11.000000
1.210000	58.520000	65.000000	241.000000	0.000000	133.000000	54.000000	8.000000	12.000000
1.220000	58.770000	65.370000	241.000000	0.000000	133.000000	54.000000	25.000000	37.000000
1.230000	59.140000	65.910000	241.000000	0.000000	133.000000	54.000000	37.000000	54.000000
1.240000	59.480000	66.470000	244.000000	0.000000	133.000000	54.000000	34.000000	56.000000
1.250000	59.730000	66.990000	254.000000	0.000000	133.000000	54.000000	25.000000	52.000000
1.260000	59.920000	67.340000	280.000000	0.000000	133.000000	54.000000	19.000000	35.000000
1.270000	60.000000	67.590000	292.000000	0.000000	134.000000	55.000000	8.000000	25.000000
1.280000	60.000000	67.850000	312.000000	0.000000	134.000000	55.000000	0.000000	26.000000
1.290000	60.000000	68.080000	324.000000	0.000000	135.000000	54.000000	0.000000	23.000000
1.300000	60.070000	68.260000	330.000000	0.000000	136.000000	55.000000	7.000000	18.000000
1.310000	60.130000	68.260000	317.000000	0.000000	136.000000	55.000000	6.000000	0.000000
1.320000	60.190000	68.260000	317.000000	0.000000	136.000000	55.000000	6.000000	0.000000
1.330000	60.280000	67.980000	327.000000	0.000000	137.000000	54.000000	9.000000	-28.000000
1.340000	60.420000	67.710000	329.000000	0.000000	137.000000	54.000000	14.000000	-27.000000
1.350000	60.570000	67.440000	329.000000	0.000000	137.000000	54.000000	15.000000	-27.000000
1.360000	60.770000	67.300000	329.000000	0.000000	137.000000	54.000000	20.000000	-14.000000
1.370000	61.070000	67.240000	329.000000	0.000000	137.000000	54.000000	30.000000	-6.000000
1.380000	61.480000	67.380000	305.000000	0.000000	137.000000	54.000000	41.000000	14.000000
1.390000	61.940000	67.690000	296.000000	0.000000	136.000000	54.000000	46.000000	31.000000
1.400000	62.390000	68.120000	284.000000	0.000000	136.000000	54.000000	45.000000	43.000000
1.410000	62.680000	68.390000	244.000000	0.000000	136.000000	54.000000	29.000000	27.000000
1.420000	62.870000	68.390000	249.000000	0.000000	136.000000	54.000000	19.000000	0.000000
1.430000	62.690000	68.200000	284.000000	0.000000	136.000000	54.000000	-18.000000	-19.000000
1.440000	62.340000	67.770000	319.000000	0.000000	135.000000	53.000000	-35.000000	-43.000000
1.450000	61.880000	67.340000	333.000000	0.000000	135.000000	53.000000	-46.000000	-43.000000
1.460000	61.540000	66.900000	361.000000	0.000000	134.000000	54.000000	-34.000000	-44.000000
1.470000	61.240000	66.550000	369.000000	0.000000	134.000000	54.000000	-30.000000	-35.000000
1.480000	61.020000	66.260000	353.000000	0.000000	135.000000	54.000000	-22.000000	-29.000000
1.490000	60.890000	66.080000	297.000000	0.000000	134.000000	55.000000	-13.000000	-18.000000
1.500000	60.890000	65.930000	120.000000	0.000000	134.000000	55.000000	0.000000	-15.000000
1.510000	60.890000	65.930000	0.000000	1.000000	134.000000	55.000000	0.000000	0.000000
1.520000	60.970000	65.790000	0.000000	0.000000	132.000000	55.000000	8.000000	-14.000000
1.530000	61.120000	65.860000	0.000000	0.000000	132.000000	55.000000	15.000000	7.000000
1.540000	61.340000	66.050000	0.000000	0.000000	132.000000	55.000000	22.000000	19.000000
1.550000	61.610000	66.210000	0.000000	0.000000	132.000000	55.000000	27.000000	16.000000
1.560000	61.890000	66.350000	0.000000	0.000000	134.000000	55.000000	28.000000	14.000000
1.570000	62.190000	66.480000	0.000000	0.000000	134.000000	55.000000	30.000000	13.000000
1.580000	62.510000	66.610000	0.000000	0.000000	133.000000	54.000000	32.000000	13.000000
1.590000	62.510000	66.610000	42.000000	1.000000	133.000000	54.000000	0.000000	0.000000
1.600000	62.970000	66.950000	112.000000	0.000000	133.000000	54.000000	46.000000	34.000000
1.610000	62.970000	66.900000	195.000000	0.000000	133.000000	54.000000	0.000000	-5.000000
1.620000	62.830000	66.790000	241.000000	0.000000	131.000000	55.000000	-14.000000	-11.000000
1.630000	62.590000	66.580000	314.000000	0.000000	131.000000	55.000000	-24.000000	-21.000000
1.640000	62.280000	66.230000	320.000000	0.000000	131.000000	55.000000	-31.000000	-35.000000
1.650000	61.920000	65.790000	325.000000	0.000000	131.000000	55.000000	-36.000000	-44.000000
1.660000	61.650000	65.450000	291.000000	0.000000	131.000000	55.000000	-27.000000	-34.000000
1.670000	61.520000	65.290000	160.000000	0.000000	131.000000	55.000000	-13.000000	-16.000000
1.680000	61.520000	65.290000	0.000000	1.000000	134.000000	55.000000	0.000000	0.000000
1.690000	61.750000	65.360000	0.000000	0.000000	134.000000	55.000000	23.000000	7.000000
1.700000	62.060000	65.600000	0.000000	0.000000	134.000000	55.000000	31.000000	24.000000
1.710000	62.380000	65.920000	0.000000	0.000000	134.000000	55.000000	32.000000	32.000000
1.720000	62.710000	66.190000	0.000000	0.000000	134.000000	55.000000	33.000000	27.000000
1.730000	63.120000	66.430000	0.000000	0.000000	134.000000	55.000000	41.000000	24.000000
1.740000	63.490000	66.590000	0.000000	0.000000	133.000000	54.000000	37.000000	16.000000
1.750000	63.790000	66.660000	0.000000	0.000000	133.000000	54.000000	30.000000	7.000000
1.760000	64.050000	66.660000	0.000000	0.000000	133.000000	54.000000	26.000000	0.000000
1.770000	64.050000	66.660000	186.000000	1.000000	131.000000	54.000000	0.000000	0.000000
1.780000	63.950000	66.350000	307.000000	0.000000	131.000000	54.000000	-10.000000	-31.000000
1.790000	63.760000	66.250000	344.000000	0.000000	131.000000	54.000000	-19.000000	-10.000000
1.800000	63.630000	66.180000	356.000000	0.000000	131.000000	54.000000	-13.000000	-7.000000
1.810000	63.510000	66.100000	361.000000	0.000000	130.000000	54.000000	-12.000000	-8.000000
1.820000	63.390000	65.990000	364.000000	0.000000	130.000000	54.000000	-12.000000	-11.000000
1.830000	63.270000	65.840000	359.000000	0.000000	130.000000	54.000000	-12.000000	-15.000000
1.840000	63.190000	65.680000	337.000000	0.000000	130.000000	54.000000	-8.000000	-16.000000
1.850000	63.130000	65.530000	273.000000	0.000000	130.000000	54.000000	-6.000000	-15.000000
1.860000	63.070000	65.380000	191.000000	0.000000	130.000000	54.000000	-6.000000	-15.000000
1.870000	63.070000	65.300000	90.000000	0.000000	130.000000	54.000000	0.000000	-8.000000
1.880000	63.070000	65.300000	0.000000	1.000000	131.000000	54.000000	0.000000	0.000000
1.890000	63.150000	65.300000	0.000000	0.000000	131.000000	54.000000	8.000000	0.000000
1.900000	63.380000	65.440000	0.000000	0.000000	131.000000	54.000000	23.000000	14.000000
1.910000	63.700000	65.720000	0.000000	0.000000	130.000000	54.000000	32.000000	28.000000
1.920000	63.970000	65.870000	0.000000	0.000000	130.000000	54.000000	27.000000	15.000000
1.930000	63.970000	65.870000	51.000000	1.000000	130.000000	54.000000	0.000000	0.000000
1.940000	63.970000	65.870000	173.000000	0.000000	130.000000	54.000000	0.000000	0.000000
1.950000	64.180000	66.170000	262.000000	0.000000	130.000000	54.000000	21.000000	30.000000
1.960000	64.180000	66.230000	320.000000	0.000000	130.000000	54.000000	0.000000	6.000000
1.970000	64.180000	66.230000	344.000000	0.000000	130.000000	54.000000	0.000000	0.000000
1.980000	64.180000	66.320000	349.000000	0.000000	130.000000	54.000000	0.000000	9.000000
1.990000	64.180000	66.400000	353.000000	0.000000	130.000000	54.000000	0.000000	8.000000
2.000000	64.180000	66.500000	361.000000	0.000000	130.000000	54.000000	0.000000	10.000000
2.010000	64.250000	66.570000	354.000000	0.000000	131.000000	55.000000	7.000000	7.000000
2.020000	64.350000	66.680000	353.000000	0.000000	131.000000	55.000000	10.000000	11.000000
2.030000	64.520000	66.790000	349.000000	0.000000	131.000000	55.000000	17.000000	11.000000
2.040000	64.740000	66.900000	335.000000	0.000000	131.000000	55.000000	22.000000	11.000000
2.050000	64.970000	66.900000	296.000000	0.000000	131.000000	55.000000	23.000000	0.000000
2.060000	65.200000	66.900000	250.000000	0.000000	131.000000	55.000000	23.000000	0.000000
2.070000	65.450000	66.900000	220.000000	0.000000	131.000000	55.000000	25.000000	0.000000
2.080000	65.610000	66.900000	137.000000	0.000000	131.000000	55.000000	16.000000	0.000000
2.090000	65.710000	66.810000	1.000000	1.000000	131.000000	55.000000	0.000000	0.000000
2.100000	65.710000	66.810000	0.000000	0.000000	132.000000	55.000000	0.000000	0.000000
2.110000	65.770000	66.740000	0.000000	0.000000	132.000000	55.000000	6.000000	-7.000000
2.120000	65.770000	66.850000	0.000000	0.000000	132.000000	55.000000	0.000000	11.000000
2.130000	65.920000	66.940000	0.000000	0.000000	132.000000	55.000000	15.000000	9.000000
2.140000	66.050000	67.000000	0.000000	0.000000	132.000000	55.000000	13.000000	6.000000
2.150000	66.200000	67.000000	0.000000	0.000000	134.000000	56.000000	15.000000	0.000000
2.160000	66.310000	66.840000	0.000000	0.000000	134.000000	56.000000	11.000000	-16.000000
2.170000	66.400000	66.640000	0.000000	0.000000	134.000000	56.000000	9.000000	-20.000000
2.180000	66.400000	66.640000	61.000000	1.000000	134.000000	56.000000	0.000000	0.000000
2.190000	66.400000	66.230000	160.000000	0.000000	134.000000	56.000000	0.000000	-41.000000
2.200000	66.240000	66.100000	213.000000	0.000000	134.000000	56.000000	-16.000000	-13.000000
2.210000	66.070000	65.980000	242.000000	0.000000	134.000000	56.000000	-17.000000	-12.000000
