t	x	y	pressure	penup	azimuth	inclination	v_x	v_y
0.000000	15.120000	65.850000	148.000000	1.000000	166.000000	48.000000	0.000000	0.000000
0.010000	15.490000	65.760000	143.000000	0.000000	165.000000	49.000000	37.000000	-9.000000
0.020000	16.170000	65.870000	161.000000	0.000000	164.000000	50.000000	68.000000	11.000000
0.030000	17.440000	65.980000	207.000000	0.000000	163.000000	50.000000	127.000000	11.000000
0.040000	19.100000	66.220000	279.000000	0.000000	162.000000	51.000000	166.000000	24.000000
0.050000	21.050000	66.560000	345.000000	0.000000	164.000000	51.000000	195.000000	34.000000
0.060000	23.090000	66.770000	379.000000	0.000000	163.000000	52.000000	204.000000	21.000000
0.070000	25.200000	66.770000	396.000000	0.000000	163.000000	52.000000	211.000000	0.000000
0.080000	27.310000	66.700000	409.000000	0.000000	164.000000	52.000000	211.000000	-7.000000
0.090000	29.050000	66.370000	405.000000	0.000000	166.000000	52.000000	174.000000	-33.000000
0.100000	30.540000	65.760000	405.000000	0.000000	167.000000	52.000000	149.000000	-61.000000
0.110000	31.350000	64.970000	407.000000	0.000000	169.000000	51.000000	81.000000	-79.000000
0.120000	31.680000	64.050000	412.000000	0.000000	169.000000	51.000000	33.000000	-92.000000
0.130000	31.680000	63.160000	420.000000	0.000000	170.000000	51.000000	0.000000	-89.000000
0.140000	31.090000	62.290000	433.000000	0.000000	170.000000	51.000000	-59.000000	-87.000000
0.150000	29.830000	61.500000	442.000000	0.000000	170.000000	51.000000	-126.000000	-79.000000
0.160000	28.130000	60.770000	460.000000	0.000000	170.000000	50.000000	-170.000000	-73.000000
0.170000	25.980000	60.060000	465.000000	0.000000	170.000000	50.000000	-215.000000	-71.000000
0.180000	23.700000	59.480000	481.000000	0.000000	169.000000	50.000000	-228.000000	-58.000000
0.190000	21.340000	59.000000	496.000000	0.000000	168.000000	50.000000	-236.000000	-48.000000
0.200000	19.720000	58.660000	505.000000	0.000000	167.000000	50.000000	-162.000000	-34.000000
0.210000	18.610000	58.660000	509.000000	0.000000	165.000000	51.000000	-111.000000	0.000000
0.220000	17.830000	58.780000	522.000000	0.000000	164.000000	51.000000	-78.000000	12.000000
0.230000	17.380000	59.060000	540.000000	0.000000	163.000000	52.000000	-45.000000	28.000000
0.240000	17.440000	59.670000	540.000000	0.000000	162.000000	52.000000	6.000000	61.000000
0.250000	17.830000	60.510000	518.000000	0.000000	160.000000	51.000000	39.000000	84.000000
0.260000	18.670000	61.530000	505.000000	0.000000	160.000000	51.000000	84.000000	102.000000
0.270000	19.790000	62.790000	480.000000	0.000000	160.000000	51.000000	112.000000	126.000000
0.280000	21.100000	64.220000	463.000000	0.000000	160.000000	51.000000	131.000000	143.000000
0.290000	22.190000	65.880000	466.000000	0.000000	161.000000	50.000000	109.000000	166.000000
0.300000	23.040000	67.420000	471.000000	0.000000	161.000000	50.000000	85.000000	154.000000
0.310000	23.740000	68.890000	474.000000	0.000000	162.000000	50.000000	70.000000	147.000000
0.320000	24.290000	70.390000	465.000000	0.000000	162.000000	49.000000	55.000000	150.000000
0.330000	24.510000	71.250000	473.000000	0.000000	162.000000	48.000000	22.000000	86.000000
0.340000	24.510000	71.690000	466.000000	0.000000	163.000000	46.000000	0.000000	44.000000
0.350000	24.300000	71.370000	456.000000	0.000000	163.000000	45.000000	-21.000000	-32.000000
0.360000	23.990000	70.270000	458.000000	0.000000	163.000000	44.000000	-31.000000	-110.000000
0.370000	23.620000	68.640000	466.000000	0.000000	164.000000	43.000000	-37.000000	-163.000000
0.380000	23.120000	66.460000	471.000000	0.000000	164.000000	43.000000	-50.000000	-218.000000
0.390000	22.470000	64.460000	474.000000	0.000000	164.000000	43.000000	-65.000000	-200.000000
0.400000	21.730000	62.580000	468.000000	0.000000	164.000000	44.000000	-74.000000	-188.000000
0.410000	21.300000	61.270000	472.000000	0.000000	163.000000	45.000000	-43.000000	-131.000000
0.420000	21.020000	60.240000	468.000000	0.000000	163.000000	46.000000	-28.000000	-103.000000
0.430000	20.840000	59.390000	461.000000	0.000000	162.000000	48.000000	-18.000000	-85.000000
0.440000	20.650000	58.600000	275.000000	0.000000	162.000000	49.000000	-19.000000	-79.000000
0.450000	20.650000	58.600000	0.000000	1.000000	162.000000	50.000000	0.000000	0.000000
0.460000	20.520000	58.080000	0.000000	0.000000	161.000000	50.000000	-13.000000	-52.000000
0.470000	20.600000	58.470000	0.000000	0.000000	160.000000	51.000000	8.000000	39.000000
0.480000	20.740000	59.140000	0.000000	0.000000	160.000000	51.000000	14.000000	67.000000
0.490000	20.930000	60.000000	0.000000	0.000000	160.000000	52.000000	19.000000	86.000000
0.500000	21.230000	60.370000	0.000000	0.000000	160.000000	52.000000	30.000000	37.000000
0.510000	21.600000	60.900000	0.000000	0.000000	160.000000	52.000000	37.000000	53.000000
0.520000	22.040000	61.540000	0.000000	0.000000	160.000000	52.000000	44.000000	64.000000
0.530000	22.510000	61.670000	0.000000	0.000000	160.000000	52.000000	47.000000	13.000000
0.540000	22.740000	61.750000	0.000000	0.000000	162.000000	52.000000	23.000000	8.000000
0.550000	22.800000	61.750000	0.000000	0.000000	162.000000	52.000000	6.000000	0.000000
0.560000	22.880000	61.750000	0.000000	0.000000	162.000000	52.000000	8.000000	0.000000
0.570000	22.970000	61.750000	0.000000	0.000000	162.000000	51.000000	9.000000	0.000000
0.580000	23.060000	61.890000	0.000000	0.000000	164.000000	51.000000	9.000000	14.000000
0.590000	23.280000	62.150000	0.000000	0.000000	164.000000	50.000000	22.000000	26.000000
0.600000	23.470000	62.500000	0.000000	0.000000	164.000000	50.000000	19.000000	35.000000
0.610000	23.640000	62.870000	0.000000	0.000000	166.000000	49.000000	17.000000	37.000000
0.620000	23.860000	63.230000	0.000000	0.000000	166.000000	48.000000	22.000000	36.000000
0.630000	24.130000	63.540000	0.000000	0.000000	168.000000	47.000000	27.000000	31.000000
0.640000	24.340000	63.760000	0.000000	0.000000	168.000000	46.000000	21.000000	22.000000
0.650000	24.480000	63.820000	0.000000	0.000000	170.000000	46.000000	14.000000	6.000000
0.660000	24.580000	63.820000	0.000000	0.000000	171.000000	45.000000	10.000000	0.000000
0.670000	24.670000	63.730000	0.000000	0.000000	171.000000	44.000000	9.000000	-9.000000
0.680000	24.760000	63.730000	0.000000	0.000000	172.000000	44.000000	9.000000	0.000000
0.690000	24.910000	63.850000	0.000000	0.000000	173.000000	43.000000	15.000000	12.000000
0.700000	25.090000	64.030000	0.000000	0.000000	173.000000	43.000000	18.000000	18.000000
0.710000	25.350000	64.330000	0.000000	0.000000	173.000000	43.000000	26.000000	30.000000
0.720000	25.710000	64.740000	0.000000	0.000000	174.000000	43.000000	36.000000	41.000000
0.730000	26.320000	65.230000	0.000000	0.000000	175.000000	43.000000	61.000000	49.000000
0.740000	27.090000	65.300000	0.000000	0.000000	175.000000	43.000000	77.000000	7.000000
0.750000	27.880000	66.040000	0.000000	0.000000	175.000000	42.000000	79.000000	74.000000
0.760000	28.690000	67.240000	0.000000	0.000000	174.000000	41.000000	81.000000	120.000000
0.770000	29.510000	67.900000	0.000000	0.000000	173.000000	39.000000	82.000000	66.000000
0.780000	30.130000	68.740000	0.000000	0.000000	172.000000	38.000000	62.000000	84.000000
0.790000	30.610000	69.700000	0.000000	0.000000	171.000000	37.000000	48.000000	96.000000
0.800000	30.880000	70.540000	0.000000	0.000000	170.000000	36.000000	27.000000	84.000000
0.810000	31.070000	71.230000	0.000000	0.000000	169.000000	35.000000	19.000000	69.000000
0.820000	31.210000	71.820000	0.000000	0.000000	168.000000	36.000000	14.000000	59.000000
0.830000	31.210000	72.380000	0.000000	0.000000	167.000000	37.000000	0.000000	56.000000
0.840000	31.090000	73.130000	0.000000	0.000000	168.000000	37.000000	-12.000000	75.000000
0.850000	30.890000	74.000000	0.000000	0.000000	168.000000	38.000000	-20.000000	87.000000
0.860000	30.990000	75.000000	0.000000	0.000000	167.000000	39.000000	10.000000	100.000000
0.870000	31.130000	75.470000	0.000000	0.000000	168.000000	38.000000	14.000000	47.000000
0.880000	31.050000	75.590000	0.000000	0.000000	168.000000	37.000000	-8.000000	12.000000
0.890000	30.820000	75.890000	0.000000	0.000000	168.000000	36.000000	-23.000000	30.000000
0.900000	30.490000	75.150000	0.000000	0.000000	169.000000	34.000000	-33.000000	-74.000000
0.910000	30.020000	73.710000	0.000000	0.000000	168.000000	33.000000	-47.000000	-144.000000
0.920000	29.460000	73.770000	0.000000	0.000000	169.000000	32.000000	-56.000000	6.000000
0.930000	28.980000	73.210000	0.000000	0.000000	168.000000	33.000000	-48.000000	-56.000000
0.940000	28.570000	72.230000	0.000000	0.000000	167.000000	35.000000	-41.000000	-98.000000
0.950000	28.260000	71.520000	0.000000	0.000000	166.000000	37.000000	-31.000000	-71.000000
0.960000	27.990000	70.880000	0.000000	0.000000	163.000000	40.000000	-27.000000	-64.000000
0.970000	27.720000	70.300000	0.000000	0.000000	162.000000	42.000000	-27.000000	-58.000000
0.980000	27.460000	69.870000	0.000000	0.000000	160.000000	44.000000	-26.000000	-43.000000
0.990000	27.240000	69.440000	0.000000	0.000000	158.000000	46.000000	-22.000000	-43.000000
1.000000	27.020000	69.270000	0.000000	0.000000	157.000000	47.000000	-22.000000	-17.000000
1.010000	26.790000	69.270000	0.000000	0.000000	157.000000	48.000000	-23.000000	0.000000
1.020000	26.620000	69.190000	0.000000	0.000000	158.000000	48.000000	-17.000000	-8.000000
1.030000	26.450000	69.190000	0.000000	0.000000	158.000000	48.000000	-17.000000	0.000000
1.040000	26.300000	69.190000	0.000000	0.000000	160.000000	47.000000	-15.000000	0.000000
1.050000	26.160000	69.310000	0.000000	0.000000	162.000000	47.000000	-14.000000	12.000000
1.060000	26.050000	69.390000	0.000000	0.000000	164.000000	46.000000	-11.000000	8.000000
1.070000	25.940000	69.470000	0.000000	0.000000	166.000000	45.000000	-11.000000	8.000000
1.080000	25.850000	69.470000	0.000000	0.000000	168.000000	44.000000	-9.000000	0.000000
1.090000	25.770000	69.350000	0.000000	0.000000	169.000000	44.000000	-8.000000	-12.000000
1.100000	25.770000	69.250000	0.000000	0.000000	170.000000	45.000000	0.000000	-10.000000
1.110000	25.770000	69.170000	0.000000	0.000000	171.000000	45.000000	0.000000	-8.000000
1.120000	25.770000	69.080000	0.000000	0.000000	171.000000	44.000000	0.000000	-9.000000
1.130000	25.770000	69.080000	0.000000	0.000000	171.000000	45.000000	0.000000	0.000000
1.140000	25.860000	69.080000	0.000000	0.000000	171.000000	45.000000	9.000000	0.000000
1.150000	25.940000	69.080000	0.000000	0.000000	170.000000	46.000000	8.000000	0.000000
1.160000	26.010000	69.080000	0.000000	0.000000	170.000000	46.000000	7.000000	0.000000
1.170000	26.080000	69.190000	0.000000	0.000000	169.000000	46.000000	7.000000	11.000000
1.180000	26.140000	69.190000	0.000000	0.000000	169.000000	47.000000	6.000000	0.000000
1.190000	26.260000	69.190000	0.000000	0.000000	169.000000	48.000000	12.000000	0.000000
1.200000	26.390000	69.190000	0.000000	0.000000	167.000000	48.000000	13.000000	0.000000
1.210000	26.540000	69.120000	0.000000	0.000000	167.000000	48.000000	15.000000	-7.000000
1.220000	26.540000	69.120000	0.000000	0.000000	167.000000	49.000000	0.000000	0.000000
1.230000	26.540000	69.120000	0.000000	0.000000	167.000000	49.000000	0.000000	0.000000
1.240000	26.540000	69.120000	0.000000	0.000000	167.000000	49.000000	0.000000	0.000000
1.250000	26.540000	69.120000	0.000000	0.000000	167.000000	49.000000	0.000000	0.000000
1.260000	26.540000	69.120000	0.000000	0.000000	167.000000	49.000000	0.000000	0.000000
1.270000	26.540000	69.120000	0.000000	0.000000	167.000000	49.000000	0.000000	0.000000
1.280000	26.540000	69.120000	0.000000	0.000000	167.000000	49.000000	0.000000	0.000000
1.290000	26.540000	69.120000	0.000000	0.000000	167.000000	50.000000	0.000000	0.000000
1.300000	26.500000	69.450000	0.000000	0.000000	165.000000	50.000000	-4.000000	33.000000
1.310000	26.500000	69.650000	0.000000	0.000000	165.000000	50.000000	0.000000	20.000000
1.320000	26.500000	69.650000	0.000000	0.000000	164.000000	51.000000	0.000000	0.000000
1.330000	26.500000	69.650000	0.000000	0.000000	164.000000	51.000000	0.000000	0.000000
1.340000	26.500000	69.650000	0.000000	0.000000	163.000000	52.000000	0.000000	0.000000
1.350000	26.430000	69.650000	0.000000	0.000000	162.000000	52.000000	-7.000000	0.000000
1.360000	26.430000	69.650000	0.000000	0.000000	162.000000	52.000000	0.000000	0.000000
1.370000	26.430000	69.580000	0.000000	0.000000	161.000000	52.000000	0.000000	-7.000000
1.380000	26.430000	69.500000	0.000000	0.000000	161.000000	52.000000	0.000000	-8.000000
1.390000	26.530000	69.750000	0.000000	0.000000	160.000000	52.000000	10.000000	25.000000
1.400000	26.600000	69.910000	0.000000	0.000000	160.000000	51.000000	7.000000	16.000000
1.410000	26.600000	69.910000	0.000000	0.000000	160.000000	51.000000	0.000000	0.000000
1.420000	26.860000	69.930000	0.000000	0.000000	160.000000	51.000000	26.000000	2.000000
1.430000	27.000000	70.100000	0.000000	0.000000	160.000000	51.000000	14.000000	17.000000
1.440000	27.090000	70.430000	0.000000	0.000000	161.000000	50.000000	9.000000	33.000000
1.450000	27.090000	70.430000	56.000000	1.000000	161.000000	50.000000	0.000000	0.000000
1.460000	26.830000	70.070000	101.000000	0.000000	162.000000	50.000000	-26.000000	-36.000000
1.470000	26.550000	69.580000	132.000000	0.000000	162.000000	49.000000	-28.000000	-49.000000
1.480000	26.150000	68.690000	186.000000	0.000000	162.000000	49.000000	-40.000000	-89.000000
1.490000	25.790000	67.960000	206.000000	0.000000	161.000000	48.000000	-36.000000	-73.000000
1.500000	25.540000	67.330000	253.000000	0.000000	161.000000	48.000000	-25.000000	-63.000000
1.510000	25.370000	66.870000	262.000000	0.000000	161.000000	49.000000	-17.000000	-46.000000
1.520000	25.370000	66.650000	287.000000	0.000000	161.000000	49.000000	0.000000	-22.000000
1.530000	25.370000	66.590000	314.000000	0.000000	159.000000	50.000000	0.000000	-6.000000
1.540000	25.520000	66.590000	332.000000	0.000000	158.000000	51.000000	15.000000	0.000000
1.550000	25.800000	66.790000	338.000000	0.000000	157.000000	52.000000	28.000000	20.000000
1.560000	26.200000	67.100000	351.000000	0.000000	156.000000	53.000000	40.000000	31.000000
1.570000	26.660000	67.470000	364.000000	0.000000	156.000000	53.000000	46.000000	37.000000
1.580000	27.010000	67.930000	361.000000	0.000000	156.000000	53.000000	35.000000	46.000000
1.590000	27.290000	68.450000	369.000000	0.000000	156.000000	53.000000	28.000000	52.000000
1.600000	27.470000	69.140000	367.000000	0.000000	158.000000	52.000000	18.000000	69.000000
1.610000	27.620000	69.800000	366.000000	0.000000	158.000000	52.000000	15.000000	66.000000
1.620000	27.740000	70.450000	366.000000	0.000000	159.000000	51.000000	12.000000	65.000000
1.630000	27.740000	70.450000	363.000000	0.000000	161.000000	50.000000	0.000000	0.000000
1.640000	27.550000	69.980000	364.000000	0.000000	161.000000	50.000000	-19.000000	-47.000000
1.650000	27.290000	69.260000	364.000000	0.000000	162.000000	50.000000	-26.000000	-72.000000
1.660000	27.040000	68.450000	368.000000	0.000000	162.000000	50.000000	-25.000000	-81.000000
1.670000	26.820000	67.920000	371.000000	0.000000	162.000000	50.000000	-22.000000	-53.000000
1.680000	26.820000	67.570000	364.000000	0.000000	162.000000	50.000000	0.000000	-35.000000
1.690000	26.910000	67.460000	397.000000	0.000000	162.000000	50.000000	9.000000	-11.000000
1.700000	27.160000	67.460000	420.000000	0.000000	161.000000	50.000000	25.000000	0.000000
1.710000	27.580000	67.600000	460.000000	0.000000	160.000000	50.000000	42.000000	14.000000
1.720000	28.110000	67.850000	473.000000	0.000000	159.000000	51.000000	53.000000	25.000000
1.730000	28.560000	68.190000	477.000000	0.000000	159.000000	51.000000	45.000000	34.000000
1.740000	28.940000	68.590000	481.000000	0.000000	159.000000	51.000000	38.000000	40.000000
1.750000	29.280000	69.070000	478.000000	0.000000	160.000000	51.000000	34.000000	48.000000
1.760000	29.520000	69.520000	475.000000	0.000000	162.000000	52.000000	24.000000	45.000000
1.770000	29.640000	69.940000	468.000000	0.000000	164.000000	51.000000	12.000000	42.000000
1.780000	29.690000	69.940000	440.000000	0.000000	165.000000	51.000000	5.000000	0.000000
1.790000	29.460000	69.550000	433.000000	0.000000	166.000000	51.000000	-23.000000	-39.000000
1.800000	29.090000	68.970000	431.000000	0.000000	167.000000	50.000000	-37.000000	-58.000000
1.810000	28.620000	68.270000	433.000000	0.000000	167.000000	50.000000	-47.000000	-70.000000
1.820000	28.230000	67.690000	435.000000	0.000000	167.000000	50.000000	-39.000000	-58.000000
1.830000	28.030000	67.180000	433.000000	0.000000	166.000000	51.000000	-20.000000	-51.000000
1.840000	27.960000	66.830000	433.000000	0.000000	166.000000	51.000000	-7.000000	-35.000000
1.850000	28.010000	66.640000	433.000000	0.000000	164.000000	52.000000	5.000000	-19.000000
1.860000	28.170000	66.550000	444.000000	0.000000	163.000000	52.000000	16.000000	-9.000000
1.870000	28.400000	66.550000	458.000000	0.000000	162.000000	53.000000	23.000000	0.000000
1.880000	28.400000	66.550000	466.000000	0.000000	162.000000	53.000000	0.000000	0.000000
1.890000	28.830000	66.630000	483.000000	0.000000	160.000000	53.000000	43.000000	8.000000
1.900000	28.990000	66.770000	493.000000	0.000000	160.000000	53.000000	16.000000	14.000000
1.910000	29.190000	66.970000	491.000000	0.000000	162.000000	54.000000	20.000000	20.000000
1.920000	29.380000	67.200000	495.000000	0.000000	162.000000	54.000000	19.000000	23.000000
1.930000	29.560000	67.420000	496.000000	0.000000	162.000000	54.000000	18.000000	22.000000
1.940000	29.680000	67.610000	491.000000	0.000000	162.000000	54.000000	12.000000	19.000000
1.950000	29.750000	67.720000	481.000000	0.000000	162.000000	54.000000	7.000000	11.000000
1.960000	29.800000	67.720000	473.000000	0.000000	162.000000	54.000000	5.000000	0.000000
1.970000	29.800000	67.720000	469.000000	0.000000	162.000000	53.000000	0.000000	0.000000
1.980000	29.710000	67.570000	471.000000	0.000000	162.000000	53.000000	-9.000000	-15.000000
1.990000	29.550000	67.340000	465.000000	0.000000	162.000000	53.000000	-16.000000	-23.000000
2.000000	29.410000	67.120000	463.000000	0.000000	162.000000	53.000000	-14.000000	-22.000000
2.010000	29.410000	66.910000	468.000000	0.000000	162.000000	53.000000	0.000000	-21.000000
2.020000	29.410000	66.730000	469.000000	0.000000	162.000000	53.000000	0.000000	-18.000000
2.030000	29.500000	66.630000	471.000000	0.000000	164.000000	53.000000	9.000000	-10.000000
2.040000	29.570000	66.630000	464.000000	0.000000	163.000000	54.000000	7.000000	0.000000
2.050000	29.760000	66.630000	474.000000	0.000000	163.000000	54.000000	19.000000	0.000000
2.060000	30.040000	66.630000	465.000000	0.000000	163.000000	54.000000	28.000000	0.000000
2.070000	30.320000	66.710000	467.000000	0.000000	163.000000	54.000000	28.000000	8.000000
2.080000	30.530000	66.810000	467.000000	0.000000	162.000000	54.000000	21.000000	10.000000
2.090000	30.690000	66.920000	465.000000	0.000000	162.000000	54.000000	16.000000	11.000000
2.100000	30.900000	67.040000	464.000000	0.000000	162.000000	54.000000	21.000000	12.000000
2.110000	31.110000	67.160000	473.000000	0.000000	162.000000	54.000000	21.000000	12.000000
2.120000	31.320000	67.220000	445.000000	0.000000	162.000000	54.000000	21.000000	6.000000
2.130000	31.390000	67.220000	435.000000	0.000000	162.000000	54.000000	7.000000	0.000000
2.140000	31.390000	67.050000	438.000000	0.000000	160.000000	53.000000	0.000000	-17.000000
2.150000	31.280000	66.860000	433.000000	0.000000	161.000000	52.000000	-11.000000	-19.000000
2.160000	31.150000	66.610000	438.000000	0.000000	161.000000	52.000000	-13.000000	-25.000000
2.170000	31.000000	66.330000	438.000000	0.000000	161.000000	52.000000	-15.000000	-28.000000
2.180000	31.000000	66.160000	435.000000	0.000000	161.000000	52.000000	0.000000	-17.000000
2.190000	31.000000	66.080000	440.000000	0.000000	161.000000	52.000000	0.000000	-8.000000
2.200000	31.170000	66.030000	449.000000	0.000000	161.000000	52.000000	17.000000	-5.000000
2.210000	31.420000	66.030000	440.000000	0.000000	161.000000	52.000000	25.000000	0.000000
2.220000	31.760000	66.160000	450.000000	0.000000	161.000000	52.000000	34.000000	13.000000
