t	x	y	pressure	penup	azimuth	inclination	v_x	v_y
0.000000	92.050000	47.500000	108.000000	1.000000	179.000000	51.000000	0.000000	0.000000
0.010000	88.520000	47.610000	188.000000	0.000000	179.000000	51.000000	-353.000000	11.000000
0.020000	86.770000	47.790000	254.000000	0.000000	178.000000	51.000000	-175.000000	18.000000
0.030000	85.420000	47.790000	309.000000	0.000000	178.000000	51.000000	-135.000000	0.000000
0.040000	84.330000	47.740000	371.000000	0.000000	176.000000	50.000000	-109.000000	-5.000000
0.050000	84.050000	47.650000	376.000000	0.000000	176.000000	50.000000	-28.000000	-9.000000
0.060000	84.500000	47.520000	391.000000	0.000000	175.000000	50.000000	45.000000	-13.000000
0.070000	85.430000	47.330000	415.000000	0.000000	175.000000	50.000000	93.000000	-19.000000
0.080000	87.440000	47.100000	443.000000	0.000000	175.000000	50.000000	201.000000	-23.000000
0.090000	90.490000	46.860000	468.000000	0.000000	175.000000	50.000000	305.000000	-24.000000
0.100000	94.220000	46.590000	492.000000	0.000000	176.000000	51.000000	373.000000	-27.000000
0.110000	98.270000	46.070000	522.000000	0.000000	178.000000	51.000000	405.000000	-52.000000
0.120000	101.960000	45.400000	543.000000	0.000000	178.000000	51.000000	369.000000	-67.000000
0.130000	105.400000	44.590000	537.000000	0.000000	179.000000	51.000000	344.000000	-81.000000
0.140000	107.560000	43.690000	546.000000	0.000000	180.000000	51.000000	216.000000	-90.000000
0.150000	108.240000	42.740000	540.000000	0.000000	180.000000	52.000000	68.000000	-95.000000
0.160000	107.940000	42.100000	546.000000	0.000000	180.000000	52.000000	-30.000000	-64.000000
0.170000	106.410000	41.500000	543.000000	0.000000	180.000000	52.000000	-153.000000	-60.000000
0.180000	103.950000	40.920000	581.000000	0.000000	180.000000	52.000000	-246.000000	-58.000000
0.190000	100.870000	40.630000	631.000000	0.000000	180.000000	52.000000	-308.000000	-29.000000
0.200000	98.010000	40.470000	647.000000	0.000000	179.000000	52.000000	-286.000000	-16.000000
0.210000	95.540000	40.410000	641.000000	0.000000	179.000000	51.000000	-247.000000	-6.000000
0.220000	93.330000	40.410000	639.000000	0.000000	178.000000	51.000000	-221.000000	0.000000
0.230000	91.440000	40.920000	636.000000	0.000000	176.000000	51.000000	-189.000000	51.000000
0.240000	90.460000	41.680000	617.000000	0.000000	175.000000	51.000000	-98.000000	76.000000
0.250000	90.090000	42.770000	617.000000	0.000000	174.000000	51.000000	-37.000000	109.000000
0.260000	90.510000	44.200000	605.000000	0.000000	174.000000	51.000000	42.000000	143.000000
0.270000	91.380000	45.870000	594.000000	0.000000	174.000000	51.000000	87.000000	167.000000
0.280000	92.540000	47.490000	592.000000	0.000000	174.000000	51.000000	116.000000	162.000000
0.290000	93.350000	48.820000	595.000000	0.000000	174.000000	50.000000	81.000000	133.000000
0.300000	93.760000	49.960000	595.000000	0.000000	174.000000	50.000000	41.000000	114.000000
0.310000	93.910000	50.360000	588.000000	0.000000	174.000000	49.000000	15.000000	40.000000
0.320000	93.910000	50.360000	588.000000	0.000000	174.000000	48.000000	0.000000	0.000000
0.330000	93.760000	50.210000	592.000000	0.000000	175.000000	47.000000	-15.000000	-15.000000
0.340000	93.500000	49.570000	595.000000	0.000000	175.000000	47.000000	-26.000000	-64.000000
0.350000	92.860000	48.340000	613.000000	0.000000	175.000000	47.000000	-64.000000	-123.000000
0.360000	92.020000	46.720000	625.000000	0.000000	175.000000	47.000000	-84.000000	-162.000000
0.370000	91.040000	44.880000	640.000000	0.000000	174.000000	47.000000	-98.000000	-184.000000
0.380000	89.860000	42.930000	644.000000	0.000000	174.000000	47.000000	-118.000000	-195.000000
0.390000	89.020000	40.910000	638.000000	0.000000	172.000000	48.000000	-84.000000	-202.000000
0.400000	88.400000	39.580000	603.000000	0.000000	172.000000	49.000000	-62.000000	-133.000000
0.410000	88.210000	38.740000	493.000000	0.000000	170.000000	50.000000	-19.000000	-84.000000
0.420000	88.260000	38.240000	41.000000	0.000000	169.000000	50.000000	5.000000	-50.000000
0.430000	88.260000	38.240000	0.000000	1.000000	167.000000	51.000000	0.000000	0.000000
0.440000	89.110000	38.970000	0.000000	0.000000	166.000000	52.000000	85.000000	73.000000
0.450000	89.760000	40.210000	0.000000	0.000000	164.000000	52.000000	65.000000	124.000000
0.460000	90.440000	41.600000	0.000000	0.000000	163.000000	52.000000	68.000000	139.000000
0.470000	91.190000	43.230000	0.000000	0.000000	162.000000	51.000000	75.000000	163.000000
0.480000	92.220000	45.030000	0.000000	0.000000	163.000000	50.000000	103.000000	180.000000
0.490000	93.410000	46.490000	0.000000	0.000000	164.000000	48.000000	119.000000	146.000000
0.500000	94.540000	47.630000	0.000000	0.000000	164.000000	46.000000	113.000000	114.000000
0.510000	95.550000	48.570000	0.000000	0.000000	165.000000	44.000000	101.000000	94.000000
0.520000	96.080000	49.360000	0.000000	0.000000	166.000000	43.000000	53.000000	79.000000
0.530000	96.340000	49.810000	0.000000	0.000000	167.000000	42.000000	26.000000	45.000000
0.540000	96.220000	50.040000	0.000000	0.000000	167.000000	42.000000	-12.000000	23.000000
0.550000	95.930000	50.040000	0.000000	0.000000	166.000000	43.000000	-29.000000	0.000000
0.560000	95.520000	50.040000	0.000000	0.000000	166.000000	44.000000	-41.000000	0.000000
0.570000	95.220000	49.710000	0.000000	0.000000	165.000000	46.000000	-30.000000	-33.000000
0.580000	94.890000	49.250000	0.000000	0.000000	164.000000	48.000000	-33.000000	-46.000000
0.590000	94.540000	49.100000	0.000000	0.000000	163.000000	50.000000	-35.000000	-15.000000
0.600000	94.200000	48.770000	0.000000	0.000000	161.000000	50.000000	-34.000000	-33.000000
0.610000	93.860000	48.330000	0.000000	0.000000	160.000000	51.000000	-34.000000	-44.000000
0.620000	93.530000	47.940000	0.000000	0.000000	160.000000	51.000000	-33.000000	-39.000000
0.630000	93.200000	47.600000	0.000000	0.000000	161.000000	50.000000	-33.000000	-34.000000
0.640000	92.940000	47.300000	0.000000	0.000000	161.000000	50.000000	-26.000000	-30.000000
0.650000	92.850000	47.210000	0.000000	0.000000	162.000000	51.000000	-9.000000	-9.000000
0.660000	92.850000	47.270000	0.000000	0.000000	162.000000	51.000000	0.000000	6.000000
0.670000	93.120000	47.430000	0.000000	0.000000	162.000000	51.000000	27.000000	16.000000
0.680000	93.370000	47.580000	0.000000	0.000000	162.000000	51.000000	25.000000	15.000000
0.690000	93.570000	47.720000	0.000000	0.000000	162.000000	51.000000	20.000000	14.000000
0.700000	93.720000	47.840000	0.000000	0.000000	162.000000	51.000000	15.000000	12.000000
0.710000	93.890000	47.980000	0.000000	0.000000	162.000000	51.000000	17.000000	14.000000
0.720000	94.120000	48.240000	0.000000	0.000000	162.000000	51.000000	23.000000	26.000000
0.730000	94.480000	48.570000	0.000000	0.000000	163.000000	50.000000	36.000000	33.000000
0.740000	94.900000	49.110000	0.000000	0.000000	163.000000	50.000000	42.000000	54.000000
0.750000	94.900000	49.110000	58.000000	1.000000	163.000000	50.000000	0.000000	0.000000
0.760000	95.420000	49.770000	103.000000	0.000000	163.000000	50.000000	52.000000	66.000000
0.770000	95.420000	49.880000	144.000000	0.000000	163.000000	50.000000	0.000000	11.000000
0.780000	95.420000	49.930000	180.000000	0.000000	163.000000	49.000000	0.000000	5.000000
0.790000	95.340000	49.880000	212.000000	0.000000	162.000000	49.000000	-8.000000	-5.000000
0.800000	95.230000	49.810000	246.000000	0.000000	162.000000	49.000000	-11.000000	-7.000000
0.810000	95.010000	49.540000	254.000000	0.000000	162.000000	49.000000	-22.000000	-27.000000
0.820000	94.770000	49.150000	267.000000	0.000000	162.000000	49.000000	-24.000000	-39.000000
0.830000	94.510000	48.720000	282.000000	0.000000	162.000000	49.000000	-26.000000	-43.000000
0.840000	94.310000	48.190000	299.000000	0.000000	162.000000	49.000000	-20.000000	-53.000000
0.850000	94.100000	47.600000	307.000000	0.000000	163.000000	49.000000	-21.000000	-59.000000
0.860000	93.890000	47.110000	314.000000	0.000000	163.000000	50.000000	-21.000000	-49.000000
0.870000	93.730000	46.780000	317.000000	0.000000	163.000000	50.000000	-16.000000	-33.000000
0.880000	93.730000	46.550000	305.000000	0.000000	164.000000	50.000000	0.000000	-23.000000
0.890000	93.730000	46.550000	322.000000	0.000000	164.000000	51.000000	0.000000	0.000000
0.900000	93.780000	46.600000	334.000000	0.000000	164.000000	51.000000	5.000000	5.000000
0.910000	93.780000	46.700000	336.000000	0.000000	164.000000	51.000000	0.000000	10.000000
0.920000	94.100000	47.130000	341.000000	0.000000	164.000000	51.000000	32.000000	43.000000
0.930000	94.540000	47.630000	339.000000	0.000000	164.000000	51.000000	44.000000	50.000000
0.940000	94.740000	48.180000	341.000000	0.000000	164.000000	51.000000	20.000000	55.000000
0.950000	94.960000	48.800000	333.000000	0.000000	164.000000	51.000000	22.000000	62.000000
0.960000	95.120000	49.420000	342.000000	0.000000	163.000000	50.000000	16.000000	62.000000
0.970000	95.240000	49.850000	342.000000	0.000000	163.000000	50.000000	12.000000	43.000000
0.980000	95.330000	50.160000	335.000000	0.000000	162.000000	49.000000	9.000000	31.000000
0.990000	95.330000	50.160000	329.000000	0.000000	163.000000	48.000000	0.000000	0.000000
1.000000	95.330000	50.040000	329.000000	0.000000	163.000000	47.000000	0.000000	-12.000000
1.010000	95.190000	49.770000	329.000000	0.000000	162.000000	47.000000	-14.000000	-27.000000
1.020000	95.080000	49.330000	329.000000	0.000000	163.000000	46.000000	-11.000000	-44.000000
1.030000	94.950000	48.880000	329.000000	0.000000	163.000000	46.000000	-13.000000	-45.000000
1.040000	94.950000	48.520000	329.000000	0.000000	162.000000	46.000000	0.000000	-36.000000
1.050000	95.030000	48.230000	327.000000	0.000000	162.000000	46.000000	8.000000	-29.000000
1.060000	95.160000	48.030000	320.000000	0.000000	163.000000	46.000000	13.000000	-20.000000
1.070000	95.260000	48.030000	324.000000	0.000000	163.000000	46.000000	10.000000	0.000000
1.080000	95.360000	48.030000	319.000000	0.000000	162.000000	47.000000	10.000000	0.000000
1.090000	95.610000	48.320000	319.000000	0.000000	162.000000	47.000000	25.000000	29.000000
1.100000	95.960000	48.620000	315.000000	0.000000	162.000000	47.000000	35.000000	30.000000
1.110000	96.190000	48.940000	314.000000	0.000000	162.000000	47.000000	23.000000	32.000000
1.120000	96.350000	49.280000	314.000000	0.000000	163.000000	46.000000	16.000000	34.000000
1.130000	96.470000	49.590000	315.000000	0.000000	163.000000	46.000000	12.000000	31.000000
1.140000	96.580000	49.860000	315.000000	0.000000	162.000000	45.000000	11.000000	27.000000
1.150000	96.580000	49.960000	314.000000	0.000000	162.000000	45.000000	0.000000	10.000000
1.160000	96.580000	49.960000	314.000000	0.000000	162.000000	44.000000	0.000000	0.000000
1.170000	96.580000	49.960000	324.000000	0.000000	162.000000	44.000000	0.000000	0.000000
1.180000	96.580000	49.750000	330.000000	0.000000	162.000000	44.000000	0.000000	-21.000000
1.190000	96.470000	49.440000	329.000000	0.000000	162.000000	43.000000	-11.000000	-31.000000
1.200000	96.340000	49.120000	332.000000	0.000000	161.000000	43.000000	-13.000000	-32.000000
1.210000	96.230000	48.640000	335.000000	0.000000	162.000000	44.000000	-11.000000	-48.000000
1.220000	96.150000	48.060000	335.000000	0.000000	161.000000	44.000000	-8.000000	-58.000000
1.230000	96.100000	47.640000	332.000000	0.000000	161.000000	44.000000	-5.000000	-42.000000
1.240000	96.100000	47.310000	309.000000	0.000000	161.000000	45.000000	0.000000	-33.000000
1.250000	96.100000	47.030000	222.000000	0.000000	161.000000	46.000000	0.000000	-28.000000
1.260000	96.100000	46.880000	75.000000	0.000000	161.000000	47.000000	0.000000	-15.000000
1.270000	96.100000	46.880000	0.000000	1.000000	160.000000	48.000000	0.000000	0.000000
1.280000	96.320000	46.880000	0.000000	0.000000	161.000000	49.000000	22.000000	0.000000
1.290000	96.500000	47.070000	0.000000	0.000000	161.000000	49.000000	18.000000	19.000000
1.300000	96.670000	47.280000	0.000000	0.000000	161.000000	49.000000	17.000000	21.000000
1.310000	96.860000	47.510000	0.000000	0.000000	161.000000	49.000000	19.000000	23.000000
1.320000	97.070000	47.750000	0.000000	0.000000	161.000000	49.000000	21.000000	24.000000
1.330000	97.070000	47.750000	36.000000	1.000000	161.000000	49.000000	0.000000	0.000000
1.340000	97.330000	48.140000	81.000000	0.000000	161.000000	49.000000	26.000000	39.000000
1.350000	97.330000	48.140000	132.000000	0.000000	161.000000	48.000000	0.000000	0.000000
1.360000	97.330000	48.140000	151.000000	0.000000	161.000000	48.000000	0.000000	0.000000
1.370000	97.330000	48.070000	181.000000	0.000000	162.000000	48.000000	0.000000	-7.000000
1.380000	97.330000	47.950000	202.000000	0.000000	162.000000	48.000000	0.000000	-12.000000
1.390000	97.280000	47.760000	205.000000	0.000000	162.000000	48.000000	-5.000000	-19.000000
1.400000	97.280000	47.550000	205.000000	0.000000	162.000000	48.000000	0.000000	-21.000000
1.410000	97.280000	47.350000	208.000000	0.000000	162.000000	48.000000	0.000000	-20.000000
1.420000	97.220000	47.120000	190.000000	0.000000	162.000000	48.000000	-6.000000	-23.000000
1.430000	97.220000	46.870000	148.000000	0.000000	161.000000	48.000000	0.000000	-25.000000
1.440000	97.220000	46.720000	81.000000	0.000000	161.000000	48.000000	0.000000	-15.000000
1.450000	97.270000	46.640000	1.000000	1.000000	161.000000	49.000000	0.000000	0.000000
1.460000	97.270000	46.640000	0.000000	0.000000	161.000000	49.000000	0.000000	0.000000
1.470000	97.610000	46.640000	0.000000	0.000000	160.000000	50.000000	34.000000	0.000000
1.480000	97.710000	46.640000	0.000000	0.000000	160.000000	50.000000	10.000000	0.000000
1.490000	97.760000	46.720000	0.000000	0.000000	160.000000	50.000000	5.000000	8.000000
1.500000	97.820000	46.800000	0.000000	0.000000	160.000000	50.000000	6.000000	8.000000
1.510000	97.880000	46.900000	0.000000	0.000000	160.000000	50.000000	6.000000	10.000000
1.520000	97.940000	46.980000	0.000000	0.000000	160.000000	50.000000	6.000000	8.000000
1.530000	97.940000	47.060000	0.000000	0.000000	160.000000	50.000000	0.000000	8.000000
1.540000	98.010000	47.140000	0.000000	0.000000	160.000000	50.000000	7.000000	8.000000
1.550000	98.010000	47.230000	0.000000	0.000000	160.000000	50.000000	0.000000	9.000000
1.560000	97.960000	47.310000	0.000000	0.000000	160.000000	50.000000	-5.000000	8.000000
1.570000	97.960000	47.390000	0.000000	0.000000	160.000000	50.000000	0.000000	8.000000
1.580000	97.960000	47.450000	0.000000	0.000000	160.000000	50.000000	0.000000	6.000000
1.590000	97.960000	47.450000	0.000000	0.000000	162.000000	50.000000	0.000000	0.000000
1.600000	98.040000	47.520000	0.000000	0.000000	162.000000	50.000000	8.000000	7.000000
1.610000	98.040000	47.520000	0.000000	0.000000	162.000000	50.000000	0.000000	0.000000
1.620000	98.100000	47.520000	0.000000	0.000000	162.000000	50.000000	6.000000	0.000000
1.630000	98.100000	47.520000	0.000000	0.000000	162.000000	49.000000	0.000000	0.000000
1.640000	98.100000	47.520000	0.000000	0.000000	162.000000	49.000000	0.000000	0.000000
1.650000	98.170000	47.520000	0.000000	0.000000	162.000000	49.000000	7.000000	0.000000
1.660000	98.170000	47.450000	0.000000	0.000000	163.000000	49.000000	0.000000	-7.000000
1.670000	98.240000	47.450000	0.000000	0.000000	163.000000	49.000000	7.000000	0.000000
1.680000	98.240000	47.450000	0.000000	0.000000	163.000000	49.000000	0.000000	0.000000
1.690000	98.170000	47.450000	0.000000	0.000000	163.000000	49.000000	-7.000000	0.000000
1.700000	98.170000	47.400000	0.000000	0.000000	163.000000	49.000000	0.000000	-5.000000
1.710000	98.230000	47.400000	0.000000	0.000000	163.000000	50.000000	6.000000	0.000000
1.720000	98.310000	47.320000	0.000000	0.000000	163.000000	50.000000	8.000000	-8.000000
1.730000	98.380000	47.200000	0.000000	0.000000	163.000000	50.000000	7.000000	-12.000000
1.740000	98.380000	47.040000	0.000000	0.000000	163.000000	50.000000	0.000000	-16.000000
1.750000	98.450000	46.870000	0.000000	0.000000	162.000000	51.000000	7.000000	-17.000000
1.760000	98.450000	46.680000	0.000000	0.000000	162.000000	51.000000	0.000000	-19.000000
1.770000	98.450000	46.680000	88.000000	1.000000	162.000000	51.000000	0.000000	0.000000
1.780000	98.520000	46.400000	136.000000	0.000000	162.000000	51.000000	7.000000	-28.000000
1.790000	98.520000	46.400000	218.000000	0.000000	162.000000	52.000000	0.000000	0.000000
1.800000	98.520000	46.450000	291.000000	0.000000	162.000000	52.000000	0.000000	5.000000
1.810000	98.470000	46.510000	307.000000	0.000000	162.000000	52.000000	-5.000000	6.000000
1.820000	98.470000	46.610000	312.000000	0.000000	162.000000	52.000000	0.000000	10.000000
1.830000	98.550000	46.770000	319.000000	0.000000	162.000000	52.000000	8.000000	16.000000
1.840000	98.670000	46.970000	322.000000	0.000000	162.000000	52.000000	12.000000	20.000000
1.850000	98.790000	47.190000	325.000000	0.000000	162.000000	52.000000	12.000000	22.000000
1.860000	98.890000	47.410000	330.000000	0.000000	163.000000	52.000000	10.000000	22.000000
1.870000	98.950000	47.600000	330.000000	0.000000	164.000000	51.000000	6.000000	19.000000
1.880000	98.950000	47.740000	332.000000	0.000000	164.000000	51.000000	0.000000	14.000000
1.890000	98.950000	47.840000	329.000000	0.000000	164.000000	50.000000	0.000000	10.000000
1.900000	98.950000	47.840000	314.000000	0.000000	164.000000	50.000000	0.000000	0.000000
1.910000	98.950000	47.840000	289.000000	0.000000	165.000000	49.000000	0.000000	0.000000
1.920000	98.950000	47.840000	264.000000	0.000000	165.000000	49.000000	0.000000	0.000000
1.930000	98.950000	47.840000	232.000000	0.000000	165.000000	49.000000	0.000000	0.000000
1.940000	99.310000	47.810000	222.000000	0.000000	165.000000	48.000000	36.000000	-3.000000
1.950000	99.480000	47.740000	200.000000	0.000000	165.000000	48.000000	17.000000	-7.000000
1.960000	99.680000	47.680000	195.000000	0.000000	165.000000	48.000000	20.000000	-6.000000
1.970000	99.870000	47.620000	185.000000	0.000000	165.000000	48.000000	19.000000	-6.000000
1.980000	99.960000	47.540000	160.000000	0.000000	163.000000	49.000000	9.000000	-8.000000
1.990000	99.960000	47.450000	142.000000	0.000000	163.000000	49.000000	0.000000	-9.000000
2.000000	99.960000	47.360000	130.000000	0.000000	163.000000	49.000000	0.000000	-9.000000
2.010000	99.960000	47.240000	130.000000	0.000000	163.000000	49.000000	0.000000	-12.000000
2.020000	99.960000	47.060000	142.000000	0.000000	163.000000	50.000000	0.000000	-18.000000
2.030000	99.960000	46.850000	148.000000	0.000000	163.000000	50.000000	0.000000	-21.000000
2.040000	99.830000	46.640000	131.000000	0.000000	163.000000	50.000000	-13.000000	-21.000000
2.050000	99.670000	46.450000	148.000000	0.000000	162.000000	51.000000	-16.000000	-19.000000
2.060000	99.550000	46.270000	108.000000	0.000000	162.000000	51.000000	-12.000000	-18.000000
2.070000	99.550000	46.270000	0.000000	1.000000	164.000000	51.000000	0.000000	0.000000
2.080000	99.670000	46.120000	0.000000	0.000000	163.000000	52.000000	12.000000	-15.000000
2.090000	99.920000	46.120000	0.000000	0.000000	163.000000	52.000000	25.000000	0.000000
2.100000	100.200000	46.290000	0.000000	0.000000	162.000000	53.000000	28.000000	17.000000
2.110000	100.470000	46.450000	0.000000	0.000000	162.000000	53.000000	27.000000	16.000000
2.120000	100.700000	46.610000	0.000000	0.000000	162.000000	53.000000	23.000000	16.000000
2.130000	100.930000	46.770000	0.000000	0.000000	164.000000	53.000000	23.000000	16.000000
2.140000	101.180000	46.900000	0.000000	0.000000	164.000000	53.000000	25.000000	13.000000
2.150000	101.330000	47.000000	0.000000	0.000000	164.000000	52.000000	15.000000	10.000000
2.160000	101.400000	47.050000	0.000000	0.000000	166.000000	52.000000	7.000000	5.000000
2.170000	101.400000	47.050000	12.000000	0.000000	166.000000	52.000000	0.000000	0.000000
2.180000	101.400000	47.050000	65.000000	1.000000	166.000000	52.000000	0.000000	0.000000
2.190000	101.400000	47.050000	66.000000	0.000000	166.000000	51.000000	0.000000	0.000000
2.200000	101.030000	47.120000	89.000000	0.000000	166.000000	51.000000	-37.000000	7.000000
2.210000	100.840000	47.050000	110.000000	0.000000	166.000000	51.000000	-19.000000	-7.000000
2.220000	100.610000	46.950000	137.000000	0.000000	166.000000	51.000000	-23.000000	-10.000000
