t	x	y	pressure	penup	azimuth	inclination	v_x	v_y
0.000000	59.590000	10.140000	65.000000	1.000000	166.000000	52.000000	0.000000	0.000000
0.010000	59.590000	11.340000	175.000000	0.000000	166.000000	52.000000	0.000000	120.000000
0.020000	59.440000	11.860000	302.000000	0.000000	165.000000	53.000000	-15.000000	52.000000
0.030000	59.130000	11.960000	319.000000	0.000000	165.000000	53.000000	-31.000000	10.000000
0.040000	58.980000	11.790000	344.000000	0.000000	165.000000	53.000000	-15.000000	-17.000000
0.050000	58.980000	11.480000	371.000000	0.000000	165.000000	53.000000	0.000000	-31.000000
0.060000	59.140000	10.880000	407.000000	0.000000	165.000000	53.000000	16.000000	-60.000000
0.070000	59.340000	10.080000	443.000000	0.000000	164.000000	53.000000	20.000000	-80.000000
0.080000	59.750000	9.310000	469.000000	0.000000	164.000000	53.000000	41.000000	-77.000000
0.090000	60.310000	8.640000	483.000000	0.000000	164.000000	53.000000	56.000000	-67.000000
0.100000	60.930000	8.050000	488.000000	0.000000	164.000000	53.000000	62.000000	-59.000000
0.110000	61.550000	7.610000	492.000000	0.000000	164.000000	53.000000	62.000000	-44.000000
0.120000	62.040000	7.140000	497.000000	0.000000	164.000000	53.000000	49.000000	-47.000000
0.130000	62.450000	6.870000	502.000000	0.000000	164.000000	53.000000	41.000000	-27.000000
0.140000	62.630000	6.750000	519.000000	0.000000	164.000000	53.000000	18.000000	-12.000000
0.150000	62.630000	6.750000	536.000000	0.000000	164.000000	53.000000	0.000000	0.000000
0.160000	62.630000	6.750000	537.000000	0.000000	164.000000	52.000000	0.000000	0.000000
0.170000	62.330000	6.920000	532.000000	0.000000	164.000000	52.000000	-30.000000	17.000000
0.180000	61.820000	7.210000	526.000000	0.000000	164.000000	52.000000	-51.000000	29.000000
0.190000	61.150000	7.640000	519.000000	0.000000	164.000000	52.000000	-67.000000	43.000000
0.200000	60.290000	8.150000	491.000000	0.000000	164.000000	52.000000	-86.000000	51.000000
0.210000	59.190000	8.720000	472.000000	0.000000	164.000000	52.000000	-110.000000	57.000000
0.220000	57.930000	9.200000	465.000000	0.000000	164.000000	52.000000	-126.000000	48.000000
0.230000	56.560000	9.200000	467.000000	0.000000	164.000000	53.000000	-137.000000	0.000000
0.240000	55.220000	8.960000	470.000000	0.000000	162.000000	53.000000	-134.000000	-24.000000
0.250000	54.350000	8.460000	472.000000	0.000000	162.000000	53.000000	-87.000000	-50.000000
0.260000	53.790000	7.950000	470.000000	0.000000	161.000000	52.000000	-56.000000	-51.000000
0.270000	53.690000	7.430000	474.000000	0.000000	160.000000	51.000000	-10.000000	-52.000000
0.280000	53.980000	7.150000	473.000000	0.000000	160.000000	51.000000	29.000000	-28.000000
0.290000	54.540000	7.010000	496.000000	0.000000	159.000000	51.000000	56.000000	-14.000000
0.300000	55.610000	7.340000	519.000000	0.000000	159.000000	51.000000	107.000000	33.000000
0.310000	57.420000	8.040000	580.000000	0.000000	159.000000	51.000000	181.000000	70.000000
0.320000	59.730000	8.990000	616.000000	0.000000	159.000000	51.000000	231.000000	95.000000
0.330000	62.450000	10.080000	638.000000	0.000000	158.000000	52.000000	272.000000	109.000000
0.340000	65.230000	11.360000	617.000000	0.000000	160.000000	52.000000	278.000000	128.000000
0.350000	67.570000	12.780000	557.000000	0.000000	160.000000	52.000000	234.000000	142.000000
0.360000	69.600000	13.790000	464.000000	0.000000	161.000000	52.000000	203.000000	101.000000
0.370000	70.720000	14.430000	254.000000	0.000000	162.000000	53.000000	112.000000	64.000000
0.380000	70.720000	14.430000	0.000000	1.000000	164.000000	53.000000	0.000000	0.000000
0.390000	71.380000	14.910000	0.000000	0.000000	165.000000	53.000000	66.000000	48.000000
0.400000	70.910000	14.910000	0.000000	0.000000	166.000000	53.000000	-47.000000	0.000000
0.410000	70.080000	14.910000	0.000000	0.000000	168.000000	52.000000	-83.000000	0.000000
0.420000	69.020000	14.910000	0.000000	0.000000	169.000000	51.000000	-106.000000	0.000000
0.430000	67.520000	14.680000	0.000000	0.000000	170.000000	50.000000	-150.000000	-23.000000
0.440000	66.040000	14.460000	0.000000	0.000000	170.000000	49.000000	-148.000000	-22.000000
0.450000	64.580000	14.060000	0.000000	0.000000	170.000000	48.000000	-146.000000	-40.000000
0.460000	63.160000	13.550000	0.000000	0.000000	168.000000	46.000000	-142.000000	-51.000000
0.470000	62.160000	13.240000	0.000000	0.000000	168.000000	45.000000	-100.000000	-31.000000
0.480000	61.430000	12.960000	0.000000	0.000000	167.000000	45.000000	-73.000000	-28.000000
0.490000	60.750000	12.710000	0.000000	0.000000	164.000000	45.000000	-68.000000	-25.000000
0.500000	60.090000	12.330000	0.000000	0.000000	164.000000	44.000000	-66.000000	-38.000000
0.510000	59.470000	11.950000	0.000000	0.000000	163.000000	44.000000	-62.000000	-38.000000
0.520000	58.880000	11.550000	0.000000	0.000000	162.000000	44.000000	-59.000000	-40.000000
0.530000	58.310000	11.260000	0.000000	0.000000	160.000000	44.000000	-57.000000	-29.000000
0.540000	57.740000	11.040000	0.000000	0.000000	160.000000	44.000000	-57.000000	-22.000000
0.550000	57.320000	10.900000	0.000000	0.000000	160.000000	44.000000	-42.000000	-14.000000
0.560000	57.010000	10.830000	0.000000	0.000000	160.000000	45.000000	-31.000000	-7.000000
0.570000	56.700000	10.830000	0.000000	0.000000	161.000000	45.000000	-31.000000	0.000000
0.580000	56.370000	10.710000	0.000000	0.000000	160.000000	46.000000	-33.000000	-12.000000
0.590000	56.020000	10.570000	0.000000	0.000000	161.000000	46.000000	-35.000000	-14.000000
0.600000	55.650000	10.360000	0.000000	0.000000	162.000000	48.000000	-37.000000	-21.000000
0.610000	55.370000	10.130000	0.000000	0.000000	161.000000	48.000000	-28.000000	-23.000000
0.620000	55.120000	9.910000	0.000000	0.000000	161.000000	48.000000	-25.000000	-22.000000
0.630000	55.120000	9.910000	91.000000	1.000000	161.000000	49.000000	0.000000	0.000000
0.640000	55.120000	9.910000	179.000000	0.000000	160.000000	50.000000	0.000000	0.000000
0.650000	55.120000	9.910000	191.000000	0.000000	159.000000	50.000000	0.000000	0.000000
0.660000	55.400000	9.980000	281.000000	0.000000	157.000000	51.000000	28.000000	7.000000
0.670000	56.110000	10.190000	412.000000	0.000000	156.000000	51.000000	71.000000	21.000000
0.680000	57.020000	10.530000	494.000000	0.000000	156.000000	51.000000	91.000000	34.000000
0.690000	58.390000	10.960000	556.000000	0.000000	155.000000	52.000000	137.000000	43.000000
0.700000	59.810000	11.620000	617.000000	0.000000	155.000000	52.000000	142.000000	66.000000
0.710000	61.570000	12.600000	644.000000	0.000000	154.000000	53.000000	176.000000	98.000000
0.720000	63.530000	13.790000	661.000000	0.000000	154.000000	53.000000	196.000000	119.000000
0.730000	65.340000	14.730000	665.000000	0.000000	154.000000	53.000000	181.000000	94.000000
0.740000	66.840000	15.610000	625.000000	0.000000	154.000000	53.000000	150.000000	88.000000
0.750000	68.120000	16.170000	564.000000	0.000000	156.000000	53.000000	128.000000	56.000000
0.760000	68.800000	16.530000	345.000000	0.000000	158.000000	53.000000	68.000000	36.000000
0.770000	68.800000	16.530000	0.000000	1.000000	158.000000	52.000000	0.000000	0.000000
0.780000	68.920000	16.540000	0.000000	0.000000	160.000000	51.000000	12.000000	1.000000
0.790000	68.400000	16.270000	0.000000	0.000000	161.000000	50.000000	-52.000000	-27.000000
0.800000	67.610000	16.020000	0.000000	0.000000	162.000000	50.000000	-79.000000	-25.000000
0.810000	66.630000	15.750000	0.000000	0.000000	162.000000	49.000000	-98.000000	-27.000000
0.820000	65.530000	15.360000	0.000000	0.000000	163.000000	48.000000	-110.000000	-39.000000
0.830000	64.360000	14.890000	0.000000	0.000000	163.000000	48.000000	-117.000000	-47.000000
0.840000	63.150000	14.290000	0.000000	0.000000	162.000000	48.000000	-121.000000	-60.000000
0.850000	61.960000	13.620000	0.000000	0.000000	162.000000	48.000000	-119.000000	-67.000000
0.860000	61.010000	12.900000	0.000000	0.000000	161.000000	47.000000	-95.000000	-72.000000
0.870000	60.230000	12.160000	0.000000	0.000000	160.000000	47.000000	-78.000000	-74.000000
0.880000	59.710000	11.520000	0.000000	0.000000	159.000000	48.000000	-52.000000	-64.000000
0.890000	59.400000	11.130000	0.000000	0.000000	158.000000	48.000000	-31.000000	-39.000000
0.900000	59.230000	10.890000	0.000000	0.000000	158.000000	48.000000	-17.000000	-24.000000
0.910000	59.050000	10.650000	0.000000	0.000000	157.000000	49.000000	-18.000000	-24.000000
0.920000	58.890000	10.400000	0.000000	0.000000	156.000000	48.000000	-16.000000	-25.000000
0.930000	58.770000	10.150000	0.000000	0.000000	155.000000	49.000000	-12.000000	-25.000000
0.940000	58.770000	10.150000	163.000000	1.000000	155.000000	50.000000	0.000000	0.000000
0.950000	58.530000	9.720000	170.000000	0.000000	155.000000	50.000000	-24.000000	-43.000000
0.960000	58.350000	9.640000	185.000000	0.000000	155.000000	51.000000	-18.000000	-8.000000
0.970000	58.350000	9.570000	265.000000	0.000000	154.000000	52.000000	0.000000	-7.000000
0.980000	58.500000	9.620000	329.000000	0.000000	154.000000	52.000000	15.000000	5.000000
0.990000	58.800000	9.750000	356.000000	0.000000	153.000000	53.000000	30.000000	13.000000
1.000000	59.340000	9.910000	373.000000	0.000000	153.000000	53.000000	54.000000	16.000000
1.010000	59.880000	10.150000	371.000000	0.000000	153.000000	53.000000	54.000000	24.000000
1.020000	60.420000	10.450000	374.000000	0.000000	153.000000	53.000000	54.000000	30.000000
1.030000	60.750000	10.570000	351.000000	0.000000	154.000000	53.000000	33.000000	12.000000
1.040000	60.940000	10.660000	137.000000	0.000000	154.000000	53.000000	19.000000	9.000000
1.050000	60.940000	10.660000	0.000000	1.000000	153.000000	54.000000	0.000000	0.000000
1.060000	61.040000	10.610000	0.000000	0.000000	153.000000	54.000000	10.000000	-5.000000
1.070000	60.870000	10.610000	0.000000	0.000000	153.000000	54.000000	-17.000000	0.000000
1.080000	60.780000	10.610000	0.000000	0.000000	153.000000	54.000000	-9.000000	0.000000
1.090000	60.730000	10.610000	0.000000	0.000000	153.000000	54.000000	-5.000000	0.000000
1.100000	60.730000	10.670000	0.000000	0.000000	154.000000	53.000000	0.000000	6.000000
1.110000	60.830000	10.750000	0.000000	0.000000	154.000000	53.000000	10.000000	8.000000
1.120000	60.950000	10.750000	0.000000	0.000000	153.000000	53.000000	12.000000	0.000000
1.130000	61.020000	10.810000	0.000000	0.000000	153.000000	53.000000	7.000000	6.000000
1.140000	61.020000	10.810000	0.000000	0.000000	153.000000	53.000000	0.000000	0.000000
1.150000	61.020000	10.750000	0.000000	0.000000	153.000000	52.000000	0.000000	-6.000000
1.160000	61.020000	10.750000	0.000000	0.000000	153.000000	52.000000	0.000000	0.000000
1.170000	61.020000	10.690000	0.000000	0.000000	153.000000	52.000000	0.000000	-6.000000
1.180000	61.020000	10.690000	0.000000	0.000000	153.000000	52.000000	0.000000	0.000000
1.190000	61.020000	10.690000	51.000000	1.000000	152.000000	53.000000	0.000000	0.000000
1.200000	60.870000	10.580000	68.000000	0.000000	152.000000	53.000000	-15.000000	-11.000000
1.210000	60.870000	10.580000	93.000000	0.000000	153.000000	53.000000	0.000000	0.000000
1.220000	60.870000	10.520000	120.000000	0.000000	153.000000	53.000000	0.000000	-6.000000
1.230000	60.950000	10.520000	155.000000	0.000000	152.000000	54.000000	8.000000	0.000000
1.240000	61.030000	10.520000	175.000000	0.000000	152.000000	54.000000	8.000000	0.000000
1.250000	61.100000	10.460000	196.000000	0.000000	152.000000	54.000000	7.000000	-6.000000
1.260000	61.250000	10.530000	220.000000	0.000000	152.000000	54.000000	15.000000	7.000000
1.270000	61.440000	10.650000	220.000000	0.000000	151.000000	54.000000	19.000000	12.000000
1.280000	61.620000	10.770000	222.000000	0.000000	151.000000	54.000000	18.000000	12.000000
1.290000	61.750000	10.950000	206.000000	0.000000	151.000000	54.000000	13.000000	18.000000
1.300000	61.810000	11.170000	222.000000	0.000000	151.000000	54.000000	6.000000	22.000000
1.310000	61.810000	11.340000	219.000000	0.000000	151.000000	54.000000	0.000000	17.000000
1.320000	61.730000	11.440000	228.000000	0.000000	151.000000	54.000000	-8.000000	10.000000
1.330000	61.510000	11.310000	237.000000	0.000000	151.000000	54.000000	-22.000000	-13.000000
1.340000	61.180000	11.050000	244.000000	0.000000	151.000000	54.000000	-33.000000	-26.000000
1.350000	60.820000	10.670000	246.000000	0.000000	151.000000	54.000000	-36.000000	-38.000000
1.360000	60.470000	10.300000	247.000000	0.000000	151.000000	54.000000	-35.000000	-37.000000
1.370000	60.330000	9.950000	249.000000	0.000000	151.000000	54.000000	-14.000000	-35.000000
1.380000	60.330000	9.760000	256.000000	0.000000	151.000000	54.000000	0.000000	-19.000000
1.390000	60.460000	9.650000	250.000000	0.000000	151.000000	54.000000	13.000000	-11.000000
1.400000	60.650000	9.650000	260.000000	0.000000	152.000000	54.000000	19.000000	0.000000
1.410000	60.940000	9.650000	275.000000	0.000000	152.000000	54.000000	29.000000	0.000000
1.420000	61.280000	9.810000	285.000000	0.000000	152.000000	54.000000	34.000000	16.000000
1.430000	61.620000	9.970000	279.000000	0.000000	152.000000	54.000000	34.000000	16.000000
1.440000	61.910000	10.200000	282.000000	0.000000	152.000000	54.000000	29.000000	23.000000
1.450000	62.170000	10.490000	282.000000	0.000000	152.000000	54.000000	26.000000	29.000000
1.460000	62.380000	10.840000	284.000000	0.000000	152.000000	54.000000	21.000000	35.000000
1.470000	62.600000	11.350000	282.000000	0.000000	151.000000	54.000000	22.000000	51.000000
1.480000	62.750000	11.980000	274.000000	0.000000	151.000000	54.000000	15.000000	63.000000
1.490000	62.860000	12.890000	269.000000	0.000000	150.000000	54.000000	11.000000	91.000000
1.500000	62.980000	13.840000	242.000000	0.000000	150.000000	54.000000	12.000000	95.000000
1.510000	63.120000	14.820000	206.000000	0.000000	150.000000	54.000000	14.000000	98.000000
1.520000	63.280000	15.800000	190.000000	0.000000	150.000000	54.000000	16.000000	98.000000
1.530000	63.430000	16.360000	202.000000	0.000000	151.000000	53.000000	15.000000	56.000000
1.540000	63.430000	16.630000	216.000000	0.000000	150.000000	52.000000	0.000000	27.000000
1.550000	63.360000	16.630000	228.000000	0.000000	151.000000	51.000000	-7.000000	0.000000
1.560000	63.180000	16.270000	255.000000	0.000000	152.000000	51.000000	-18.000000	-36.000000
1.570000	62.870000	15.660000	273.000000	0.000000	152.000000	51.000000	-31.000000	-61.000000
1.580000	62.460000	14.740000	309.000000	0.000000	153.000000	50.000000	-41.000000	-92.000000
1.590000	62.110000	13.640000	320.000000	0.000000	152.000000	51.000000	-35.000000	-110.000000
1.600000	61.940000	12.430000	330.000000	0.000000	152.000000	51.000000	-17.000000	-121.000000
1.610000	61.890000	11.510000	335.000000	0.000000	152.000000	51.000000	-5.000000	-92.000000
1.620000	62.080000	11.000000	334.000000	0.000000	151.000000	51.000000	19.000000	-51.000000
1.630000	62.290000	10.760000	332.000000	0.000000	150.000000	52.000000	21.000000	-24.000000
1.640000	62.540000	10.600000	335.000000	0.000000	149.000000	53.000000	25.000000	-16.000000
1.650000	62.790000	10.600000	337.000000	0.000000	148.000000	54.000000	25.000000	0.000000
1.660000	63.030000	10.660000	345.000000	0.000000	148.000000	54.000000	24.000000	6.000000
1.670000	63.200000	10.790000	336.000000	0.000000	148.000000	54.000000	17.000000	13.000000
1.680000	63.320000	11.070000	346.000000	0.000000	148.000000	54.000000	12.000000	28.000000
1.690000	63.410000	11.450000	371.000000	0.000000	148.000000	54.000000	9.000000	38.000000
1.700000	63.410000	11.880000	386.000000	0.000000	148.000000	54.000000	0.000000	43.000000
1.710000	63.410000	12.190000	409.000000	0.000000	148.000000	54.000000	0.000000	31.000000
1.720000	63.410000	12.190000	409.000000	0.000000	148.000000	54.000000	0.000000	0.000000
1.730000	63.410000	12.190000	415.000000	0.000000	148.000000	54.000000	0.000000	0.000000
1.740000	63.360000	11.790000	425.000000	0.000000	148.000000	54.000000	-5.000000	-40.000000
1.750000	63.310000	11.350000	414.000000	0.000000	148.000000	54.000000	-5.000000	-44.000000
1.760000	63.250000	10.840000	417.000000	0.000000	148.000000	54.000000	-6.000000	-51.000000
1.770000	63.250000	10.590000	422.000000	0.000000	148.000000	54.000000	0.000000	-25.000000
1.780000	63.310000	10.460000	425.000000	0.000000	148.000000	54.000000	6.000000	-13.000000
1.790000	63.380000	10.400000	382.000000	0.000000	148.000000	54.000000	7.000000	-6.000000
1.800000	63.490000	10.400000	240.000000	0.000000	150.000000	54.000000	11.000000	0.000000
1.810000	63.620000	10.580000	20.000000	0.000000	150.000000	54.000000	13.000000	18.000000
1.820000	63.620000	10.580000	0.000000	1.000000	150.000000	54.000000	0.000000	0.000000
1.830000	63.880000	11.160000	0.000000	0.000000	150.000000	54.000000	26.000000	58.000000
1.840000	63.880000	11.620000	0.000000	0.000000	150.000000	54.000000	0.000000	46.000000
1.850000	63.880000	12.150000	0.000000	0.000000	150.000000	54.000000	0.000000	53.000000
1.860000	63.880000	12.690000	0.000000	0.000000	150.000000	54.000000	0.000000	54.000000
1.870000	63.880000	13.220000	0.000000	0.000000	150.000000	54.000000	0.000000	53.000000
1.880000	64.020000	13.550000	0.000000	0.000000	151.000000	53.000000	14.000000	33.000000
1.890000	64.020000	13.550000	153.000000	1.000000	151.000000	53.000000	0.000000	0.000000
1.900000	64.070000	13.890000	211.000000	0.000000	151.000000	53.000000	5.000000	34.000000
1.910000	64.070000	13.970000	246.000000	0.000000	152.000000	53.000000	0.000000	8.000000
1.920000	64.070000	13.970000	249.000000	0.000000	152.000000	53.000000	0.000000	0.000000
1.930000	64.070000	13.970000	251.000000	0.000000	152.000000	53.000000	0.000000	0.000000
1.940000	64.070000	13.970000	237.000000	0.000000	151.000000	53.000000	0.000000	0.000000
1.950000	64.070000	13.970000	182.000000	0.000000	151.000000	53.000000	0.000000	0.000000
1.960000	64.070000	13.610000	53.000000	0.000000	149.000000	53.000000	0.000000	-36.000000
1.970000	64.070000	13.610000	0.000000	1.000000	149.000000	53.000000	0.000000	0.000000
1.980000	64.070000	12.690000	0.000000	0.000000	149.000000	53.000000	0.000000	-92.000000
1.990000	63.960000	12.210000	0.000000	0.000000	151.000000	53.000000	-11.000000	-48.000000
2.000000	63.960000	11.880000	0.000000	0.000000	151.000000	53.000000	0.000000	-33.000000
2.010000	63.960000	11.630000	0.000000	0.000000	151.000000	53.000000	0.000000	-25.000000
2.020000	64.060000	11.500000	0.000000	0.000000	151.000000	53.000000	10.000000	-13.000000
2.030000	64.150000	11.500000	0.000000	0.000000	151.000000	53.000000	9.000000	0.000000
2.040000	64.230000	11.500000	0.000000	0.000000	152.000000	53.000000	8.000000	0.000000
2.050000	64.310000	11.700000	0.000000	0.000000	152.000000	53.000000	8.000000	20.000000
2.060000	64.410000	11.940000	0.000000	0.000000	152.000000	53.000000	10.000000	24.000000
2.070000	64.480000	12.220000	0.000000	0.000000	153.000000	52.000000	7.000000	28.000000
2.080000	64.540000	12.550000	0.000000	0.000000	153.000000	52.000000	6.000000	33.000000
2.090000	64.540000	12.550000	58.000000	1.000000	152.000000	53.000000	0.000000	0.000000
2.100000	64.540000	12.550000	91.000000	0.000000	152.000000	53.000000	0.000000	0.000000
2.110000	64.540000	12.550000	181.000000	0.000000	152.000000	53.000000	0.000000	0.000000
2.120000	64.390000	11.860000	232.000000	0.000000	151.000000	53.000000	-15.000000	-69.000000
2.130000	64.280000	11.100000	282.000000	0.000000	151.000000	53.000000	-11.000000	-76.000000
2.140000	64.160000	10.490000	284.000000	0.000000	150.000000	54.000000	-12.000000	-61.000000
2.150000	64.110000	9.950000	294.000000	0.000000	151.000000	54.000000	-5.000000	-54.000000
2.160000	64.110000	9.460000	292.000000	0.000000	151.000000	54.000000	0.000000	-49.000000
2.170000	64.050000	9.030000	262.000000	0.000000	151.000000	54.000000	-6.000000	-43.000000
2.180000	64.000000	8.710000	100.000000	0.000000	151.000000	54.000000	-5.000000	-32.000000
2.190000	64.000000	8.710000	0.000000	1.000000	151.000000	54.000000	0.000000	0.000000
2.200000	63.950000	8.400000	0.000000	0.000000	151.000000	54.000000	-5.000000	-31.000000
2.210000	63.900000	8.490000	0.000000	0.000000	152.000000	54.000000	-5.000000	9.000000
2.220000	63.900000	8.680000	0.000000	0.000000	152.000000	54.000000	0.000000	19.000000
