t	x	y	pressure	penup	azimuth	inclination	v_x	v_y
0.000000	92.710000	12.750000	153.000000	1.000000	178.000000	38.000000	0.000000	0.000000
0.010000	92.590000	13.180000	168.000000	0.000000	178.000000	39.000000	-12.000000	43.000000
0.020000	92.540000	13.180000	196.000000	0.000000	179.000000	40.000000	-5.000000	0.000000
0.030000	92.590000	12.820000	282.000000	0.000000	179.000000	41.000000	5.000000	-36.000000
0.040000	92.690000	12.070000	373.000000	0.000000	179.000000	42.000000	10.000000	-75.000000
0.050000	92.830000	11.060000	415.000000	0.000000	179.000000	43.000000	14.000000	-101.000000
0.060000	93.160000	10.310000	449.000000	0.000000	179.000000	43.000000	33.000000	-75.000000
0.070000	93.610000	9.700000	456.000000	0.000000	179.000000	44.000000	45.000000	-61.000000
0.080000	94.150000	9.180000	478.000000	0.000000	179.000000	44.000000	54.000000	-52.000000
0.090000	94.650000	8.800000	489.000000	0.000000	179.000000	44.000000	50.000000	-38.000000
0.100000	95.010000	8.580000	497.000000	0.000000	178.000000	44.000000	36.000000	-22.000000
0.110000	95.280000	8.470000	509.000000	0.000000	178.000000	44.000000	27.000000	-11.000000
0.120000	95.400000	8.420000	518.000000	0.000000	177.000000	44.000000	12.000000	-5.000000
0.130000	95.400000	8.420000	512.000000	0.000000	176.000000	44.000000	0.000000	0.000000
0.140000	95.230000	8.500000	516.000000	0.000000	176.000000	44.000000	-17.000000	8.000000
0.150000	94.810000	8.700000	516.000000	0.000000	176.000000	44.000000	-42.000000	20.000000
0.160000	94.070000	8.980000	518.000000	0.000000	176.000000	44.000000	-74.000000	28.000000
0.170000	93.120000	9.310000	516.000000	0.000000	176.000000	44.000000	-95.000000	33.000000
0.180000	92.100000	9.730000	513.000000	0.000000	176.000000	44.000000	-102.000000	42.000000
0.190000	90.990000	9.980000	513.000000	0.000000	177.000000	44.000000	-111.000000	25.000000
0.200000	89.820000	10.130000	512.000000	0.000000	177.000000	44.000000	-117.000000	15.000000
0.210000	88.700000	10.050000	520.000000	0.000000	177.000000	45.000000	-112.000000	-8.000000
0.220000	88.260000	9.950000	509.000000	0.000000	177.000000	45.000000	-44.000000	-10.000000
0.230000	88.260000	9.810000	507.000000	0.000000	177.000000	45.000000	0.000000	-14.000000
0.240000	88.450000	9.660000	512.000000	0.000000	176.000000	46.000000	19.000000	-15.000000
0.250000	89.260000	9.660000	515.000000	0.000000	176.000000	46.000000	81.000000	0.000000
0.260000	90.500000	9.840000	519.000000	0.000000	175.000000	46.000000	124.000000	18.000000
0.270000	92.520000	10.290000	541.000000	0.000000	175.000000	46.000000	202.000000	45.000000
0.280000	95.150000	10.980000	546.000000	0.000000	175.000000	46.000000	263.000000	69.000000
0.290000	98.190000	11.830000	556.000000	0.000000	175.000000	46.000000	304.000000	85.000000
0.300000	101.050000	12.730000	561.000000	0.000000	176.000000	45.000000	286.000000	90.000000
0.310000	103.040000	13.540000	560.000000	0.000000	176.000000	45.000000	199.000000	81.000000
0.320000	104.440000	14.030000	568.000000	0.000000	177.000000	44.000000	140.000000	49.000000
0.330000	105.130000	14.330000	542.000000	0.000000	178.000000	42.000000	69.000000	30.000000
0.340000	105.280000	14.430000	394.000000	0.000000	178.000000	41.000000	15.000000	10.000000
0.350000	105.280000	14.430000	0.000000	1.000000	179.000000	39.000000	0.000000	0.000000
0.360000	104.340000	14.500000	0.000000	0.000000	179.000000	38.000000	-94.000000	7.000000
0.370000	103.240000	14.500000	0.000000	0.000000	179.000000	37.000000	-110.000000	0.000000
0.380000	101.890000	14.500000	0.000000	0.000000	179.000000	36.000000	-135.000000	0.000000
0.390000	100.190000	14.570000	0.000000	0.000000	179.000000	35.000000	-170.000000	7.000000
0.400000	98.410000	14.430000	0.000000	0.000000	179.000000	33.000000	-178.000000	-14.000000
0.410000	96.580000	14.260000	0.000000	0.000000	179.000000	32.000000	-183.000000	-17.000000
0.420000	94.930000	14.050000	0.000000	0.000000	178.000000	31.000000	-165.000000	-21.000000
0.430000	93.250000	13.820000	0.000000	0.000000	178.000000	30.000000	-168.000000	-23.000000
0.440000	91.540000	13.450000	0.000000	0.000000	178.000000	30.000000	-171.000000	-37.000000
0.450000	89.840000	12.990000	0.000000	0.000000	177.000000	30.000000	-170.000000	-46.000000
0.460000	88.140000	12.290000	0.000000	0.000000	177.000000	30.000000	-170.000000	-70.000000
0.470000	86.940000	11.570000	0.000000	0.000000	177.000000	30.000000	-120.000000	-72.000000
0.480000	86.060000	11.170000	0.000000	0.000000	176.000000	32.000000	-88.000000	-40.000000
0.490000	86.060000	11.170000	58.000000	1.000000	175.000000	34.000000	0.000000	0.000000
0.500000	86.060000	11.170000	108.000000	0.000000	174.000000	36.000000	0.000000	0.000000
0.510000	86.960000	11.150000	279.000000	0.000000	173.000000	39.000000	90.000000	-2.000000
0.520000	87.860000	11.380000	465.000000	0.000000	172.000000	41.000000	90.000000	23.000000
0.530000	89.300000	11.950000	556.000000	0.000000	171.000000	43.000000	144.000000	57.000000
0.540000	91.090000	12.710000	625.000000	0.000000	170.000000	45.000000	179.000000	76.000000
0.550000	93.410000	13.590000	662.000000	0.000000	170.000000	45.000000	232.000000	88.000000
0.560000	95.590000	14.440000	673.000000	0.000000	171.000000	45.000000	218.000000	85.000000
0.570000	97.680000	15.000000	684.000000	0.000000	172.000000	45.000000	209.000000	56.000000
0.580000	99.000000	15.370000	688.000000	0.000000	173.000000	44.000000	132.000000	37.000000
0.590000	100.010000	15.650000	675.000000	0.000000	174.000000	43.000000	101.000000	28.000000
0.600000	100.820000	15.900000	631.000000	0.000000	175.000000	41.000000	81.000000	25.000000
0.610000	101.250000	16.100000	560.000000	0.000000	176.000000	39.000000	43.000000	20.000000
0.620000	101.250000	16.100000	423.000000	0.000000	176.000000	38.000000	0.000000	0.000000
0.630000	101.250000	16.100000	186.000000	0.000000	176.000000	36.000000	0.000000	0.000000
0.640000	101.250000	16.100000	0.000000	1.000000	176.000000	35.000000	0.000000	0.000000
0.650000	99.600000	15.660000	0.000000	0.000000	176.000000	34.000000	-165.000000	-44.000000
0.660000	98.230000	15.260000	0.000000	0.000000	175.000000	34.000000	-137.000000	-40.000000
0.670000	96.750000	14.780000	0.000000	0.000000	175.000000	34.000000	-148.000000	-48.000000
0.680000	95.300000	14.250000	0.000000	0.000000	175.000000	34.000000	-145.000000	-53.000000
0.690000	93.920000	13.600000	0.000000	0.000000	174.000000	35.000000	-138.000000	-65.000000
0.700000	92.950000	13.020000	0.000000	0.000000	175.000000	36.000000	-97.000000	-58.000000
0.710000	92.250000	12.490000	0.000000	0.000000	175.000000	37.000000	-70.000000	-53.000000
0.720000	91.710000	11.890000	0.000000	0.000000	175.000000	38.000000	-54.000000	-60.000000
0.730000	91.370000	11.440000	0.000000	0.000000	176.000000	39.000000	-34.000000	-45.000000
0.740000	91.370000	11.440000	53.000000	1.000000	177.000000	40.000000	0.000000	0.000000
0.750000	91.300000	11.030000	184.000000	0.000000	176.000000	42.000000	-7.000000	-41.000000
0.760000	91.600000	11.030000	252.000000	0.000000	177.000000	43.000000	30.000000	0.000000
0.770000	92.010000	11.030000	334.000000	0.000000	177.000000	44.000000	41.000000	0.000000
0.780000	92.610000	11.180000	407.000000	0.000000	177.000000	45.000000	60.000000	15.000000
0.790000	93.300000	11.460000	422.000000	0.000000	177.000000	45.000000	69.000000	28.000000
0.800000	94.050000	11.820000	417.000000	0.000000	177.000000	45.000000	75.000000	36.000000
0.810000	94.410000	11.930000	315.000000	0.000000	177.000000	45.000000	36.000000	11.000000
0.820000	94.470000	11.870000	119.000000	0.000000	176.000000	45.000000	6.000000	-6.000000
0.830000	94.470000	11.870000	0.000000	1.000000	176.000000	45.000000	0.000000	0.000000
0.840000	94.180000	11.470000	0.000000	0.000000	176.000000	45.000000	-29.000000	-40.000000
0.850000	94.040000	11.290000	0.000000	0.000000	176.000000	45.000000	-14.000000	-18.000000
0.860000	93.920000	11.230000	0.000000	0.000000	176.000000	45.000000	-12.000000	-6.000000
0.870000	94.030000	11.230000	0.000000	0.000000	176.000000	44.000000	11.000000	0.000000
0.880000	94.180000	11.340000	0.000000	0.000000	176.000000	44.000000	15.000000	11.000000
0.890000	94.370000	11.450000	0.000000	0.000000	176.000000	44.000000	19.000000	11.000000
0.900000	94.530000	11.580000	0.000000	0.000000	176.000000	43.000000	16.000000	13.000000
0.910000	94.530000	11.580000	8.000000	0.000000	176.000000	43.000000	0.000000	0.000000
0.920000	94.530000	11.580000	88.000000	1.000000	176.000000	43.000000	0.000000	0.000000
0.930000	94.530000	11.580000	146.000000	0.000000	175.000000	43.000000	0.000000	0.000000
0.940000	94.530000	11.580000	184.000000	0.000000	175.000000	44.000000	0.000000	0.000000
0.950000	94.530000	11.580000	212.000000	0.000000	175.000000	44.000000	0.000000	0.000000
0.960000	94.510000	11.610000	251.000000	0.000000	175.000000	44.000000	-2.000000	3.000000
0.970000	94.680000	11.610000	273.000000	0.000000	174.000000	44.000000	17.000000	0.000000
0.980000	94.970000	11.610000	304.000000	0.000000	174.000000	44.000000	29.000000	0.000000
0.990000	95.330000	11.660000	334.000000	0.000000	174.000000	44.000000	36.000000	5.000000
1.000000	95.660000	11.760000	345.000000	0.000000	174.000000	44.000000	33.000000	10.000000
1.010000	95.870000	11.870000	339.000000	0.000000	173.000000	44.000000	21.000000	11.000000
1.020000	96.010000	12.030000	343.000000	0.000000	173.000000	44.000000	14.000000	16.000000
1.030000	96.090000	12.200000	354.000000	0.000000	173.000000	44.000000	8.000000	17.000000
1.040000	96.090000	12.370000	363.000000	0.000000	172.000000	44.000000	0.000000	17.000000
1.050000	96.030000	12.510000	361.000000	0.000000	172.000000	44.000000	-6.000000	14.000000
1.060000	95.840000	12.630000	349.000000	0.000000	172.000000	44.000000	-19.000000	12.000000
1.070000	95.550000	12.470000	329.000000	0.000000	172.000000	44.000000	-29.000000	-16.000000
1.080000	95.200000	12.150000	304.000000	0.000000	172.000000	44.000000	-35.000000	-32.000000
1.090000	94.820000	11.640000	306.000000	0.000000	172.000000	44.000000	-38.000000	-51.000000
1.100000	94.500000	11.250000	284.000000	0.000000	173.000000	44.000000	-32.000000	-39.000000
1.110000	94.430000	10.940000	285.000000	0.000000	173.000000	44.000000	-7.000000	-31.000000
1.120000	94.490000	10.790000	280.000000	0.000000	173.000000	44.000000	6.000000	-15.000000
1.130000	94.640000	10.790000	282.000000	0.000000	173.000000	45.000000	15.000000	0.000000
1.140000	94.840000	10.790000	299.000000	0.000000	173.000000	45.000000	20.000000	0.000000
1.150000	95.240000	10.970000	325.000000	0.000000	173.000000	45.000000	40.000000	18.000000
1.160000	95.750000	11.210000	345.000000	0.000000	173.000000	45.000000	51.000000	24.000000
1.170000	96.140000	11.490000	338.000000	0.000000	172.000000	45.000000	39.000000	28.000000
1.180000	96.460000	11.940000	359.000000	0.000000	172.000000	45.000000	32.000000	45.000000
1.190000	96.740000	12.440000	363.000000	0.000000	172.000000	45.000000	28.000000	50.000000
1.200000	96.890000	12.980000	364.000000	0.000000	172.000000	45.000000	15.000000	54.000000
1.210000	96.970000	13.560000	368.000000	0.000000	172.000000	44.000000	8.000000	58.000000
1.220000	96.970000	14.230000	364.000000	0.000000	172.000000	44.000000	0.000000	67.000000
1.230000	96.970000	14.960000	354.000000	0.000000	173.000000	43.000000	0.000000	73.000000
1.240000	96.910000	15.680000	348.000000	0.000000	174.000000	42.000000	-6.000000	72.000000
1.250000	96.830000	16.050000	336.000000	0.000000	175.000000	41.000000	-8.000000	37.000000
1.260000	96.830000	16.200000	334.000000	0.000000	176.000000	40.000000	0.000000	15.000000
1.270000	96.710000	16.010000	327.000000	0.000000	176.000000	39.000000	-12.000000	-19.000000
1.280000	96.570000	15.440000	329.000000	0.000000	177.000000	38.000000	-14.000000	-57.000000
1.290000	96.310000	14.630000	325.000000	0.000000	178.000000	38.000000	-26.000000	-81.000000
1.300000	96.080000	13.770000	325.000000	0.000000	178.000000	38.000000	-23.000000	-86.000000
1.310000	96.080000	13.090000	330.000000	0.000000	178.000000	38.000000	0.000000	-68.000000
1.320000	96.080000	12.540000	337.000000	0.000000	177.000000	39.000000	0.000000	-55.000000
1.330000	96.330000	12.200000	333.000000	0.000000	176.000000	40.000000	25.000000	-34.000000
1.340000	96.570000	12.100000	366.000000	0.000000	175.000000	41.000000	24.000000	-10.000000
1.350000	96.880000	12.160000	387.000000	0.000000	175.000000	42.000000	31.000000	6.000000
1.360000	97.230000	12.380000	394.000000	0.000000	173.000000	43.000000	35.000000	22.000000
1.370000	97.570000	12.670000	394.000000	0.000000	173.000000	43.000000	34.000000	29.000000
1.380000	97.790000	13.000000	397.000000	0.000000	173.000000	43.000000	22.000000	33.000000
1.390000	97.920000	13.290000	404.000000	0.000000	173.000000	43.000000	13.000000	29.000000
1.400000	98.050000	13.410000	410.000000	0.000000	173.000000	43.000000	13.000000	12.000000
1.410000	98.050000	13.410000	405.000000	0.000000	173.000000	43.000000	0.000000	0.000000
1.420000	98.050000	13.360000	404.000000	0.000000	174.000000	43.000000	0.000000	-5.000000
1.430000	98.050000	13.260000	405.000000	0.000000	175.000000	43.000000	0.000000	-10.000000
1.440000	98.000000	13.090000	405.000000	0.000000	176.000000	42.000000	-5.000000	-17.000000
1.450000	98.000000	12.900000	409.000000	0.000000	176.000000	42.000000	0.000000	-19.000000
1.460000	98.000000	12.690000	405.000000	0.000000	177.000000	42.000000	0.000000	-21.000000
1.470000	98.000000	12.600000	396.000000	0.000000	176.000000	42.000000	0.000000	-9.000000
1.480000	98.060000	12.600000	329.000000	0.000000	176.000000	43.000000	6.000000	0.000000
1.490000	98.110000	12.600000	171.000000	0.000000	175.000000	43.000000	5.000000	0.000000
1.500000	98.110000	12.600000	0.000000	1.000000	174.000000	43.000000	0.000000	0.000000
1.510000	98.240000	12.910000	0.000000	0.000000	174.000000	43.000000	13.000000	31.000000
1.520000	98.310000	13.150000	0.000000	0.000000	173.000000	43.000000	7.000000	24.000000
1.530000	98.380000	13.520000	0.000000	0.000000	174.000000	42.000000	7.000000	37.000000
1.540000	98.440000	13.980000	0.000000	0.000000	174.000000	42.000000	6.000000	46.000000
1.550000	98.500000	14.500000	0.000000	0.000000	174.000000	41.000000	6.000000	52.000000
1.560000	98.610000	14.990000	0.000000	0.000000	174.000000	40.000000	11.000000	49.000000
1.570000	98.610000	15.240000	0.000000	0.000000	174.000000	39.000000	0.000000	25.000000
1.580000	98.610000	15.240000	30.000000	1.000000	175.000000	38.000000	0.000000	0.000000
1.590000	98.610000	15.240000	29.000000	0.000000	175.000000	37.000000	0.000000	0.000000
1.600000	98.610000	15.240000	27.000000	0.000000	175.000000	37.000000	0.000000	0.000000
1.610000	98.560000	15.340000	0.000000	1.000000	175.000000	36.000000	0.000000	0.000000
1.620000	98.560000	14.740000	0.000000	0.000000	175.000000	36.000000	0.000000	-60.000000
1.630000	98.560000	14.330000	0.000000	0.000000	174.000000	37.000000	0.000000	-41.000000
1.640000	98.650000	13.960000	0.000000	0.000000	175.000000	37.000000	9.000000	-37.000000
1.650000	98.650000	13.680000	0.000000	0.000000	175.000000	37.000000	0.000000	-28.000000
1.660000	98.760000	13.460000	0.000000	0.000000	175.000000	37.000000	11.000000	-22.000000
1.670000	98.850000	13.290000	0.000000	0.000000	175.000000	37.000000	9.000000	-17.000000
1.680000	98.960000	13.200000	0.000000	0.000000	175.000000	37.000000	11.000000	-9.000000
1.690000	99.080000	13.200000	0.000000	0.000000	176.000000	37.000000	12.000000	0.000000
1.700000	99.190000	13.150000	0.000000	0.000000	176.000000	37.000000	11.000000	-5.000000
1.710000	99.270000	13.210000	0.000000	0.000000	177.000000	36.000000	8.000000	6.000000
1.720000	99.350000	13.330000	0.000000	0.000000	177.000000	36.000000	8.000000	12.000000
1.730000	99.410000	13.430000	0.000000	0.000000	177.000000	36.000000	6.000000	10.000000
1.740000	99.410000	13.430000	32.000000	1.000000	177.000000	36.000000	0.000000	0.000000
1.750000	99.410000	13.430000	67.000000	0.000000	177.000000	36.000000	0.000000	0.000000
1.760000	99.410000	13.430000	130.000000	0.000000	177.000000	37.000000	0.000000	0.000000
1.770000	99.210000	13.180000	170.000000	0.000000	177.000000	38.000000	-20.000000	-25.000000
1.780000	99.080000	12.670000	215.000000	0.000000	177.000000	39.000000	-13.000000	-51.000000
1.790000	98.940000	11.970000	226.000000	0.000000	176.000000	40.000000	-14.000000	-70.000000
1.800000	98.810000	11.270000	239.000000	0.000000	176.000000	41.000000	-13.000000	-70.000000
1.810000	98.700000	10.810000	239.000000	0.000000	176.000000	41.000000	-11.000000	-46.000000
1.820000	98.630000	10.520000	240.000000	0.000000	175.000000	42.000000	-7.000000	-29.000000
1.830000	98.570000	10.300000	180.000000	0.000000	175.000000	42.000000	-6.000000	-22.000000
1.840000	98.510000	10.210000	53.000000	0.000000	175.000000	43.000000	-6.000000	-9.000000
1.850000	98.510000	10.210000	0.000000	1.000000	176.000000	43.000000	0.000000	0.000000
1.860000	98.510000	10.290000	0.000000	0.000000	176.000000	43.000000	0.000000	8.000000
1.870000	98.580000	10.440000	0.000000	0.000000	176.000000	43.000000	7.000000	15.000000
1.880000	98.640000	10.640000	0.000000	0.000000	176.000000	43.000000	6.000000	20.000000
1.890000	98.740000	11.000000	0.000000	0.000000	176.000000	43.000000	10.000000	36.000000
1.900000	98.740000	11.000000	108.000000	1.000000	176.000000	43.000000	0.000000	0.000000
1.910000	98.890000	12.300000	182.000000	0.000000	175.000000	43.000000	15.000000	130.000000
1.920000	98.980000	13.210000	209.000000	0.000000	175.000000	42.000000	9.000000	91.000000
1.930000	99.080000	14.100000	221.000000	0.000000	176.000000	42.000000	10.000000	89.000000
1.940000	99.380000	14.630000	247.000000	0.000000	176.000000	42.000000	30.000000	53.000000
1.950000	99.640000	14.940000	241.000000	0.000000	177.000000	41.000000	26.000000	31.000000
1.960000	99.880000	14.940000	247.000000	0.000000	177.000000	40.000000	24.000000	0.000000
1.970000	100.140000	14.670000	249.000000	0.000000	178.000000	40.000000	26.000000	-27.000000
1.980000	100.300000	14.270000	250.000000	0.000000	178.000000	40.000000	16.000000	-40.000000
1.990000	100.230000	13.730000	257.000000	0.000000	178.000000	39.000000	-7.000000	-54.000000
2.000000	100.030000	13.270000	257.000000	0.000000	178.000000	39.000000	-20.000000	-46.000000
2.010000	99.770000	12.860000	259.000000	0.000000	178.000000	39.000000	-26.000000	-41.000000
2.020000	99.530000	12.660000	241.000000	0.000000	178.000000	40.000000	-24.000000	-20.000000
2.030000	99.350000	12.590000	127.000000	0.000000	177.000000	40.000000	-18.000000	-7.000000
2.040000	99.350000	12.590000	0.000000	1.000000	177.000000	40.000000	0.000000	0.000000
2.050000	99.180000	12.720000	0.000000	0.000000	177.000000	41.000000	-17.000000	13.000000
2.060000	99.350000	12.980000	0.000000	0.000000	177.000000	41.000000	17.000000	26.000000
2.070000	99.680000	13.340000	0.000000	0.000000	177.000000	41.000000	33.000000	36.000000
2.080000	100.060000	13.650000	0.000000	0.000000	177.000000	41.000000	38.000000	31.000000
2.090000	100.340000	13.940000	0.000000	0.000000	177.000000	40.000000	28.000000	29.000000
2.100000	100.550000	14.180000	0.000000	0.000000	177.000000	39.000000	21.000000	24.000000
2.110000	100.690000	14.370000	0.000000	0.000000	178.000000	39.000000	14.000000	19.000000
2.120000	100.770000	14.500000	0.000000	0.000000	178.000000	38.000000	8.000000	13.000000
2.130000	100.770000	14.500000	0.000000	0.000000	178.000000	37.000000	0.000000	0.000000
2.140000	100.770000	14.500000	27.000000	1.000000	178.000000	37.000000	0.000000	0.000000
2.150000	100.820000	14.570000	91.000000	0.000000	179.000000	36.000000	5.000000	7.000000
2.160000	100.820000	14.490000	136.000000	0.000000	179.000000	36.000000	0.000000	-8.000000
2.170000	100.820000	14.490000	190.000000	0.000000	179.000000	36.000000	0.000000	0.000000
2.180000	100.820000	14.410000	249.000000	0.000000	178.000000	37.000000	0.000000	-8.000000
2.190000	100.980000	14.330000	279.000000	0.000000	178.000000	37.000000	16.000000	-8.000000
2.200000	101.150000	14.260000	337.000000	0.000000	178.000000	37.000000	17.000000	-7.000000
2.210000	101.370000	14.260000	376.000000	0.000000	178.000000	38.000000	22.000000	0.000000
