t	x	y	pressure	penup	azimuth	inclination	v_x	v_y
0.000000	57.730000	67.290000	42.000000	1.000000	164.000000	48.000000	0.000000	0.000000
0.010000	57.730000	67.290000	58.000000	0.000000	164.000000	48.000000	0.000000	0.000000
0.020000	57.730000	67.540000	170.000000	0.000000	164.000000	48.000000	0.000000	25.000000
0.030000	57.660000	67.650000	285.000000	0.000000	164.000000	48.000000	-7.000000	11.000000
0.040000	57.600000	67.650000	372.000000	0.000000	164.000000	48.000000	-6.000000	0.000000
0.050000	57.600000	67.650000	433.000000	0.000000	165.000000	47.000000	0.000000	0.000000
0.060000	57.600000	67.650000	450.000000	0.000000	166.000000	47.000000	0.000000	0.000000
0.070000	57.600000	67.650000	481.000000	0.000000	166.000000	47.000000	0.000000	0.000000
0.080000	57.600000	67.530000	527.000000	0.000000	166.000000	46.000000	0.000000	-12.000000
0.090000	57.600000	67.180000	557.000000	0.000000	166.000000	46.000000	0.000000	-35.000000
0.100000	57.660000	66.680000	595.000000	0.000000	166.000000	46.000000	6.000000	-50.000000
0.110000	57.740000	66.010000	603.000000	0.000000	167.000000	46.000000	8.000000	-67.000000
0.120000	57.820000	65.290000	676.000000	0.000000	167.000000	46.000000	8.000000	-72.000000
0.130000	57.950000	64.310000	694.000000	0.000000	167.000000	46.000000	13.000000	-98.000000
0.140000	57.950000	63.170000	720.000000	0.000000	167.000000	46.000000	0.000000	-114.000000
0.150000	57.950000	62.150000	763.000000	0.000000	168.000000	46.000000	0.000000	-102.000000
0.160000	58.040000	61.130000	770.000000	0.000000	168.000000	46.000000	9.000000	-102.000000
0.170000	58.150000	60.320000	779.000000	0.000000	168.000000	46.000000	11.000000	-81.000000
0.180000	58.270000	59.650000	788.000000	0.000000	168.000000	47.000000	12.000000	-67.000000
0.190000	58.490000	59.310000	797.000000	0.000000	169.000000	47.000000	22.000000	-34.000000
0.200000	58.720000	59.190000	797.000000	0.000000	169.000000	48.000000	23.000000	-12.000000
0.210000	58.960000	59.190000	800.000000	0.000000	169.000000	48.000000	24.000000	0.000000
0.220000	59.080000	59.470000	797.000000	0.000000	168.000000	49.000000	12.000000	28.000000
0.230000	59.130000	59.760000	796.000000	0.000000	168.000000	49.000000	5.000000	29.000000
0.240000	59.130000	60.060000	787.000000	0.000000	168.000000	50.000000	0.000000	30.000000
0.250000	58.930000	60.240000	785.000000	0.000000	169.000000	50.000000	-20.000000	18.000000
0.260000	58.680000	60.410000	777.000000	0.000000	169.000000	50.000000	-25.000000	17.000000
0.270000	58.270000	60.540000	773.000000	0.000000	169.000000	50.000000	-41.000000	13.000000
0.280000	57.650000	60.630000	768.000000	0.000000	169.000000	50.000000	-62.000000	9.000000
0.290000	56.890000	60.630000	770.000000	0.000000	168.000000	49.000000	-76.000000	0.000000
0.300000	56.080000	60.630000	765.000000	0.000000	169.000000	48.000000	-81.000000	0.000000
0.310000	55.230000	60.500000	762.000000	0.000000	167.000000	48.000000	-85.000000	-13.000000
0.320000	54.350000	60.280000	759.000000	0.000000	167.000000	47.000000	-88.000000	-22.000000
0.330000	53.590000	59.970000	759.000000	0.000000	167.000000	47.000000	-76.000000	-31.000000
0.340000	52.890000	59.660000	760.000000	0.000000	166.000000	47.000000	-70.000000	-31.000000
0.350000	52.450000	59.430000	756.000000	0.000000	166.000000	47.000000	-44.000000	-23.000000
0.360000	52.170000	59.240000	754.000000	0.000000	166.000000	47.000000	-28.000000	-19.000000
0.370000	52.170000	59.240000	746.000000	0.000000	166.000000	47.000000	0.000000	0.000000
0.380000	52.300000	59.190000	748.000000	0.000000	165.000000	48.000000	13.000000	-5.000000
0.390000	52.740000	59.130000	749.000000	0.000000	165.000000	48.000000	44.000000	-6.000000
0.400000	53.390000	59.040000	749.000000	0.000000	165.000000	49.000000	65.000000	-9.000000
0.410000	54.260000	59.090000	757.000000	0.000000	165.000000	49.000000	87.000000	5.000000
0.420000	55.540000	59.240000	757.000000	0.000000	165.000000	49.000000	128.000000	15.000000
0.430000	57.080000	59.440000	780.000000	0.000000	163.000000	49.000000	154.000000	20.000000
0.440000	59.130000	59.750000	794.000000	0.000000	165.000000	49.000000	205.000000	31.000000
0.450000	61.300000	60.140000	791.000000	0.000000	165.000000	49.000000	217.000000	39.000000
0.460000	63.540000	60.470000	797.000000	0.000000	165.000000	49.000000	224.000000	33.000000
0.470000	65.570000	60.820000	808.000000	0.000000	166.000000	48.000000	203.000000	35.000000
0.480000	67.470000	61.200000	827.000000	0.000000	167.000000	48.000000	190.000000	38.000000
0.490000	69.290000	61.520000	836.000000	0.000000	169.000000	48.000000	182.000000	32.000000
0.500000	70.620000	61.800000	848.000000	0.000000	170.000000	48.000000	133.000000	28.000000
0.510000	71.570000	62.020000	852.000000	0.000000	171.000000	48.000000	95.000000	22.000000
0.520000	72.260000	62.180000	860.000000	0.000000	172.000000	48.000000	69.000000	16.000000
0.530000	72.440000	62.250000	861.000000	0.000000	172.000000	47.000000	18.000000	7.000000
0.540000	72.490000	62.250000	878.000000	0.000000	174.000000	47.000000	5.000000	0.000000
0.550000	72.440000	62.250000	884.000000	0.000000	175.000000	47.000000	-5.000000	0.000000
0.560000	72.370000	62.250000	881.000000	0.000000	176.000000	47.000000	-7.000000	0.000000
0.570000	72.240000	62.250000	860.000000	0.000000	177.000000	47.000000	-13.000000	0.000000
0.580000	72.060000	62.250000	846.000000	0.000000	177.000000	47.000000	-18.000000	0.000000
0.590000	71.970000	62.250000	767.000000	0.000000	177.000000	47.000000	-9.000000	0.000000
0.600000	71.970000	62.250000	570.000000	0.000000	178.000000	47.000000	0.000000	0.000000
0.610000	71.970000	62.250000	103.000000	0.000000	178.000000	47.000000	0.000000	0.000000
0.620000	71.970000	62.250000	0.000000	1.000000	178.000000	47.000000	0.000000	0.000000
0.630000	71.970000	62.250000	0.000000	0.000000	178.000000	47.000000	0.000000	0.000000
0.640000	71.790000	62.340000	0.000000	0.000000	178.000000	47.000000	-18.000000	9.000000
0.650000	71.450000	62.460000	0.000000	0.000000	178.000000	47.000000	-34.000000	12.000000
0.660000	70.810000	62.460000	0.000000	0.000000	178.000000	47.000000	-64.000000	0.000000
0.670000	69.890000	62.520000	0.000000	0.000000	177.000000	47.000000	-92.000000	6.000000
0.680000	68.780000	62.520000	0.000000	0.000000	177.000000	47.000000	-111.000000	0.000000
0.690000	67.240000	62.630000	0.000000	0.000000	176.000000	47.000000	-154.000000	11.000000
0.700000	65.470000	62.790000	0.000000	0.000000	175.000000	47.000000	-177.000000	16.000000
0.710000	63.550000	63.000000	0.000000	0.000000	174.000000	46.000000	-192.000000	21.000000
0.720000	61.580000	63.160000	0.000000	0.000000	172.000000	46.000000	-197.000000	16.000000
0.730000	59.740000	63.260000	0.000000	0.000000	171.000000	45.000000	-184.000000	10.000000
0.740000	58.200000	63.260000	0.000000	0.000000	169.000000	44.000000	-154.000000	0.000000
0.750000	56.810000	63.140000	0.000000	0.000000	167.000000	43.000000	-139.000000	-12.000000
0.760000	55.860000	62.990000	0.000000	0.000000	167.000000	42.000000	-95.000000	-15.000000
0.770000	55.430000	62.860000	0.000000	0.000000	165.000000	42.000000	-43.000000	-13.000000
0.780000	55.340000	62.980000	0.000000	0.000000	165.000000	41.000000	-9.000000	12.000000
0.790000	55.570000	63.250000	0.000000	0.000000	165.000000	41.000000	23.000000	27.000000
0.800000	55.820000	63.560000	0.000000	0.000000	164.000000	41.000000	25.000000	31.000000
0.810000	56.130000	63.770000	0.000000	0.000000	165.000000	41.000000	31.000000	21.000000
0.820000	56.480000	63.910000	0.000000	0.000000	165.000000	41.000000	35.000000	14.000000
0.830000	56.870000	63.970000	0.000000	0.000000	165.000000	41.000000	39.000000	6.000000
0.840000	57.270000	63.970000	0.000000	0.000000	164.000000	42.000000	40.000000	0.000000
0.850000	57.490000	63.970000	0.000000	0.000000	164.000000	42.000000	22.000000	0.000000
0.860000	57.590000	63.970000	0.000000	0.000000	164.000000	42.000000	10.000000	0.000000
0.870000	57.590000	63.970000	0.000000	0.000000	164.000000	42.000000	0.000000	0.000000
0.880000	57.480000	64.070000	0.000000	0.000000	164.000000	42.000000	-11.000000	10.000000
0.890000	57.350000	64.120000	0.000000	0.000000	164.000000	42.000000	-13.000000	5.000000
0.900000	57.300000	64.170000	0.000000	0.000000	164.000000	43.000000	-5.000000	5.000000
0.910000	57.250000	64.240000	0.000000	0.000000	164.000000	43.000000	-5.000000	7.000000
0.920000	57.200000	64.320000	0.000000	0.000000	164.000000	43.000000	-5.000000	8.000000
0.930000	57.070000	64.320000	0.000000	0.000000	164.000000	43.000000	-13.000000	0.000000
0.940000	56.880000	64.320000	0.000000	0.000000	164.000000	43.000000	-19.000000	0.000000
0.950000	56.670000	64.380000	0.000000	0.000000	164.000000	43.000000	-21.000000	6.000000
0.960000	56.450000	64.440000	0.000000	0.000000	164.000000	43.000000	-22.000000	6.000000
0.970000	56.220000	64.530000	0.000000	0.000000	163.000000	43.000000	-23.000000	9.000000
0.980000	55.940000	64.530000	0.000000	0.000000	163.000000	43.000000	-28.000000	0.000000
0.990000	55.650000	64.460000	0.000000	0.000000	163.000000	43.000000	-29.000000	-7.000000
1.000000	55.380000	64.400000	0.000000	0.000000	163.000000	43.000000	-27.000000	-6.000000
1.010000	55.120000	64.350000	0.000000	0.000000	162.000000	43.000000	-26.000000	-5.000000
1.020000	54.900000	64.350000	0.000000	0.000000	162.000000	43.000000	-22.000000	0.000000
1.030000	54.740000	64.260000	0.000000	0.000000	162.000000	43.000000	-16.000000	-9.000000
1.040000	54.650000	64.260000	0.000000	0.000000	162.000000	43.000000	-9.000000	0.000000
1.050000	54.650000	64.260000	0.000000	0.000000	162.000000	43.000000	0.000000	0.000000
1.060000	54.650000	64.260000	0.000000	0.000000	161.000000	42.000000	0.000000	0.000000
1.070000	54.720000	64.260000	0.000000	0.000000	161.000000	42.000000	7.000000	0.000000
1.080000	54.720000	64.260000	0.000000	0.000000	161.000000	42.000000	0.000000	0.000000
1.090000	54.770000	64.260000	0.000000	0.000000	161.000000	42.000000	5.000000	0.000000
1.100000	54.770000	64.260000	0.000000	0.000000	161.000000	42.000000	0.000000	0.000000
1.110000	54.710000	64.260000	0.000000	0.000000	161.000000	42.000000	-6.000000	0.000000
1.120000	54.660000	64.260000	0.000000	0.000000	161.000000	42.000000	-5.000000	0.000000
1.130000	54.610000	64.210000	0.000000	0.000000	161.000000	42.000000	-5.000000	-5.000000
1.140000	54.550000	64.210000	0.000000	0.000000	161.000000	42.000000	-6.000000	0.000000
1.150000	54.550000	64.210000	0.000000	0.000000	161.000000	42.000000	0.000000	0.000000
1.160000	54.500000	64.210000	0.000000	0.000000	162.000000	43.000000	-5.000000	0.000000
1.170000	54.500000	64.210000	0.000000	0.000000	162.000000	43.000000	0.000000	0.000000
1.180000	54.500000	64.210000	0.000000	0.000000	162.000000	43.000000	0.000000	0.000000
1.190000	54.500000	64.210000	0.000000	0.000000	162.000000	43.000000	0.000000	0.000000
1.200000	54.500000	64.210000	0.000000	0.000000	162.000000	43.000000	0.000000	0.000000
1.210000	54.500000	64.160000	0.000000	0.000000	162.000000	43.000000	0.000000	-5.000000
1.220000	54.500000	64.160000	0.000000	0.000000	162.000000	43.000000	0.000000	0.000000
1.230000	54.500000	64.160000	0.000000	0.000000	162.000000	43.000000	0.000000	0.000000
1.240000	54.620000	64.220000	0.000000	0.000000	161.000000	43.000000	12.000000	6.000000
1.250000	54.720000	64.290000	0.000000	0.000000	161.000000	43.000000	10.000000	7.000000
1.260000	54.840000	64.290000	0.000000	0.000000	161.000000	43.000000	12.000000	0.000000
1.270000	54.930000	64.370000	0.000000	0.000000	161.000000	43.000000	9.000000	8.000000
1.280000	55.000000	64.370000	0.000000	0.000000	161.000000	43.000000	7.000000	0.000000
1.290000	55.090000	64.420000	0.000000	0.000000	161.000000	43.000000	9.000000	5.000000
1.300000	55.190000	64.470000	0.000000	0.000000	161.000000	43.000000	10.000000	5.000000
1.310000	55.300000	64.530000	0.000000	0.000000	161.000000	43.000000	11.000000	6.000000
1.320000	55.400000	64.590000	0.000000	0.000000	161.000000	43.000000	10.000000	6.000000
1.330000	55.500000	64.650000	0.000000	0.000000	161.000000	43.000000	10.000000	6.000000
1.340000	55.640000	64.700000	0.000000	0.000000	161.000000	43.000000	14.000000	5.000000
1.350000	55.790000	64.760000	0.000000	0.000000	160.000000	43.000000	15.000000	6.000000
1.360000	55.970000	64.810000	0.000000	0.000000	160.000000	43.000000	18.000000	5.000000
1.370000	56.080000	64.810000	0.000000	0.000000	160.000000	43.000000	11.000000	0.000000
1.380000	56.130000	64.870000	0.000000	0.000000	160.000000	43.000000	5.000000	6.000000
1.390000	56.130000	64.870000	0.000000	0.000000	161.000000	43.000000	0.000000	0.000000
1.400000	56.200000	64.940000	0.000000	0.000000	161.000000	43.000000	7.000000	7.000000
1.410000	56.200000	64.940000	0.000000	0.000000	161.000000	43.000000	0.000000	0.000000
1.420000	56.200000	64.940000	0.000000	0.000000	161.000000	43.000000	0.000000	0.000000
1.430000	56.270000	64.940000	0.000000	0.000000	161.000000	43.000000	7.000000	0.000000
1.440000	56.270000	64.940000	0.000000	0.000000	161.000000	43.000000	0.000000	0.000000
1.450000	56.270000	64.940000	0.000000	0.000000	161.000000	43.000000	0.000000	0.000000
1.460000	56.220000	64.860000	0.000000	0.000000	161.000000	43.000000	-5.000000	-8.000000
1.470000	56.120000	64.780000	0.000000	0.000000	161.000000	43.000000	-10.000000	-8.000000
1.480000	55.980000	64.680000	0.000000	0.000000	161.000000	43.000000	-14.000000	-10.000000
1.490000	55.850000	64.600000	0.000000	0.000000	160.000000	44.000000	-13.000000	-8.000000
1.500000	55.730000	64.600000	0.000000	0.000000	160.000000	44.000000	-12.000000	0.000000
1.510000	55.730000	64.600000	47.000000	1.000000	160.000000	44.000000	0.000000	0.000000
1.520000	55.730000	64.600000	120.000000	0.000000	160.000000	44.000000	0.000000	0.000000
1.530000	55.430000	64.540000	180.000000	0.000000	160.000000	44.000000	-30.000000	-6.000000
1.540000	55.380000	64.540000	228.000000	0.000000	160.000000	44.000000	-5.000000	0.000000
1.550000	55.380000	64.540000	275.000000	0.000000	160.000000	44.000000	0.000000	0.000000
1.560000	55.380000	64.490000	306.000000	0.000000	160.000000	44.000000	0.000000	-5.000000
1.570000	55.380000	64.490000	334.000000	0.000000	160.000000	44.000000	0.000000	0.000000
1.580000	55.380000	64.490000	366.000000	0.000000	160.000000	44.000000	0.000000	0.000000
1.590000	55.630000	64.490000	417.000000	0.000000	160.000000	44.000000	25.000000	0.000000
1.600000	55.960000	64.590000	453.000000	0.000000	161.000000	43.000000	33.000000	10.000000
1.610000	56.480000	64.690000	501.000000	0.000000	161.000000	43.000000	52.000000	10.000000
1.620000	57.150000	64.820000	537.000000	0.000000	161.000000	43.000000	67.000000	13.000000
1.630000	57.910000	64.990000	542.000000	0.000000	162.000000	44.000000	76.000000	17.000000
1.640000	58.710000	65.180000	550.000000	0.000000	163.000000	44.000000	80.000000	19.000000
1.650000	59.270000	65.270000	554.000000	0.000000	163.000000	45.000000	56.000000	9.000000
1.660000	59.670000	65.360000	557.000000	0.000000	164.000000	45.000000	40.000000	9.000000
1.670000	59.950000	65.440000	565.000000	0.000000	166.000000	45.000000	28.000000	8.000000
1.680000	60.020000	65.440000	565.000000	0.000000	167.000000	45.000000	7.000000	0.000000
1.690000	59.950000	65.440000	560.000000	0.000000	167.000000	46.000000	-7.000000	0.000000
1.700000	59.900000	65.440000	556.000000	0.000000	168.000000	46.000000	-5.000000	0.000000
1.710000	59.770000	65.440000	505.000000	0.000000	169.000000	46.000000	-13.000000	0.000000
1.720000	59.580000	65.440000	420.000000	0.000000	169.000000	46.000000	-19.000000	0.000000
1.730000	59.370000	65.390000	273.000000	0.000000	169.000000	46.000000	-21.000000	-5.000000
1.740000	59.170000	65.290000	101.000000	0.000000	169.000000	46.000000	-20.000000	-10.000000
1.750000	59.170000	65.290000	0.000000	1.000000	169.000000	46.000000	0.000000	0.000000
1.760000	58.750000	64.970000	0.000000	0.000000	169.000000	46.000000	-42.000000	-32.000000
1.770000	58.450000	64.770000	0.000000	0.000000	168.000000	46.000000	-30.000000	-20.000000
1.780000	58.060000	64.590000	0.000000	0.000000	169.000000	45.000000	-39.000000	-18.000000
1.790000	57.670000	64.430000	0.000000	0.000000	168.000000	45.000000	-39.000000	-16.000000
1.800000	57.290000	64.200000	0.000000	0.000000	168.000000	45.000000	-38.000000	-23.000000
1.810000	57.000000	63.990000	0.000000	0.000000	167.000000	44.000000	-29.000000	-21.000000
1.820000	56.730000	63.800000	0.000000	0.000000	166.000000	44.000000	-27.000000	-19.000000
1.830000	56.500000	63.620000	0.000000	0.000000	165.000000	44.000000	-23.000000	-18.000000
1.840000	56.320000	63.430000	0.000000	0.000000	165.000000	43.000000	-18.000000	-19.000000
1.850000	56.170000	63.300000	0.000000	0.000000	164.000000	43.000000	-15.000000	-13.000000
1.860000	56.170000	63.300000	63.000000	1.000000	163.000000	43.000000	0.000000	0.000000
1.870000	56.170000	63.300000	131.000000	0.000000	163.000000	43.000000	0.000000	0.000000
1.880000	56.170000	63.300000	228.000000	0.000000	163.000000	43.000000	0.000000	0.000000
1.890000	56.170000	63.300000	284.000000	0.000000	162.000000	43.000000	0.000000	0.000000
1.900000	56.170000	63.300000	342.000000	0.000000	162.000000	43.000000	0.000000	0.000000
1.910000	56.170000	63.300000	367.000000	0.000000	162.000000	43.000000	0.000000	0.000000
1.920000	56.170000	63.300000	397.000000	0.000000	162.000000	43.000000	0.000000	0.000000
1.930000	56.760000	63.210000	414.000000	0.000000	162.000000	42.000000	59.000000	-9.000000
1.940000	57.190000	63.290000	425.000000	0.000000	163.000000	42.000000	43.000000	8.000000
1.950000	57.630000	63.360000	445.000000	0.000000	163.000000	43.000000	44.000000	7.000000
1.960000	58.150000	63.470000	445.000000	0.000000	163.000000	43.000000	52.000000	11.000000
1.970000	58.580000	63.580000	428.000000	0.000000	164.000000	43.000000	43.000000	11.000000
1.980000	58.920000	63.650000	361.000000	0.000000	165.000000	43.000000	34.000000	7.000000
1.990000	59.100000	63.710000	195.000000	0.000000	165.000000	43.000000	18.000000	6.000000
2.000000	59.100000	63.710000	0.000000	1.000000	166.000000	43.000000	0.000000	0.000000
2.010000	59.290000	63.760000	0.000000	0.000000	167.000000	43.000000	19.000000	5.000000
2.020000	59.340000	63.880000	0.000000	0.000000	168.000000	43.000000	5.000000	12.000000
2.030000	59.450000	64.000000	0.000000	0.000000	168.000000	43.000000	11.000000	12.000000
2.040000	59.600000	64.070000	0.000000	0.000000	169.000000	44.000000	15.000000	7.000000
2.050000	59.970000	64.070000	0.000000	0.000000	170.000000	43.000000	37.000000	0.000000
2.060000	60.360000	63.930000	0.000000	0.000000	170.000000	43.000000	39.000000	-14.000000
2.070000	60.800000	63.720000	0.000000	0.000000	170.000000	43.000000	44.000000	-21.000000
2.080000	61.200000	63.470000	0.000000	0.000000	169.000000	41.000000	40.000000	-25.000000
2.090000	61.580000	63.170000	0.000000	0.000000	169.000000	41.000000	38.000000	-30.000000
2.100000	61.920000	62.890000	0.000000	0.000000	168.000000	41.000000	34.000000	-28.000000
2.110000	62.010000	62.630000	0.000000	0.000000	169.000000	40.000000	9.000000	-26.000000
2.120000	61.920000	62.430000	0.000000	0.000000	169.000000	40.000000	-9.000000	-20.000000
2.130000	61.630000	62.220000	0.000000	0.000000	167.000000	41.000000	-29.000000	-21.000000
2.140000	61.300000	62.070000	0.000000	0.000000	167.000000	41.000000	-33.000000	-15.000000
2.150000	60.930000	61.960000	0.000000	0.000000	167.000000	41.000000	-37.000000	-11.000000
2.160000	60.680000	61.860000	0.000000	0.000000	167.000000	41.000000	-25.000000	-10.000000
2.170000	60.470000	61.800000	0.000000	0.000000	168.000000	42.000000	-21.000000	-6.000000
2.180000	60.370000	61.800000	0.000000	0.000000	168.000000	42.000000	-10.000000	0.000000
2.190000	60.370000	61.800000	0.000000	0.000000	168.000000	42.000000	0.000000	0.000000
2.200000	60.370000	61.800000	0.000000	0.000000	169.000000	42.000000	0.000000	0.000000
2.210000	60.370000	61.860000	0.000000	0.000000	169.000000	42.000000	0.000000	6.000000
2.220000	60.310000	61.860000	0.000000	0.000000	169.000000	42.000000	-6.000000	0.000000
2.230000	60.310000	61.860000	0.000000	0.000000	169.000000	42.000000	0.000000	0.000000
2.240000	60.310000	61.860000	0.000000	0.000000	169.000000	42.000000	0.000000	0.000000
