t	x	y	pressure	penup	azimuth	inclination	v_x	v_y
0.000000	92.550000	31.250000	222.000000	1.000000	171.000000	45.000000	0.000000	0.000000
0.010000	92.180000	31.980000	242.000000	0.000000	171.000000	44.000000	-37.000000	73.000000
0.020000	91.890000	32.110000	284.000000	0.000000	172.000000	43.000000	-29.000000	13.000000
0.030000	91.890000	32.110000	317.000000	0.000000	172.000000	43.000000	0.000000	0.000000
0.040000	91.890000	31.750000	399.000000	0.000000	172.000000	42.000000	0.000000	-36.000000
0.050000	91.990000	31.100000	464.000000	0.000000	172.000000	43.000000	10.000000	-65.000000
0.060000	92.370000	30.250000	533.000000	0.000000	171.000000	43.000000	38.000000	-85.000000
0.070000	92.900000	29.340000	564.000000	0.000000	171.000000	43.000000	53.000000	-91.000000
0.080000	93.510000	28.480000	586.000000	0.000000	171.000000	44.000000	61.000000	-86.000000
0.090000	94.090000	27.690000	609.000000	0.000000	171.000000	45.000000	58.000000	-79.000000
0.100000	94.660000	27.080000	616.000000	0.000000	171.000000	46.000000	57.000000	-61.000000
0.110000	95.080000	26.600000	611.000000	0.000000	171.000000	47.000000	42.000000	-48.000000
0.120000	95.350000	26.380000	616.000000	0.000000	171.000000	48.000000	27.000000	-22.000000
0.130000	95.510000	26.290000	624.000000	0.000000	172.000000	49.000000	16.000000	-9.000000
0.140000	95.510000	26.290000	634.000000	0.000000	172.000000	50.000000	0.000000	0.000000
0.150000	95.460000	26.290000	631.000000	0.000000	173.000000	51.000000	-5.000000	0.000000
0.160000	95.300000	26.520000	619.000000	0.000000	173.000000	51.000000	-16.000000	23.000000
0.170000	94.770000	26.870000	608.000000	0.000000	173.000000	51.000000	-53.000000	35.000000
0.180000	93.980000	27.500000	592.000000	0.000000	173.000000	51.000000	-79.000000	63.000000
0.190000	93.020000	28.160000	554.000000	0.000000	173.000000	51.000000	-96.000000	66.000000
0.200000	91.820000	28.850000	521.000000	0.000000	173.000000	50.000000	-120.000000	69.000000
0.210000	90.570000	29.180000	519.000000	0.000000	172.000000	49.000000	-125.000000	33.000000
0.220000	89.280000	29.180000	501.000000	0.000000	171.000000	48.000000	-129.000000	0.000000
0.230000	88.240000	28.930000	501.000000	0.000000	171.000000	47.000000	-104.000000	-25.000000
0.240000	87.800000	28.610000	499.000000	0.000000	171.000000	46.000000	-44.000000	-32.000000
0.250000	87.800000	28.320000	510.000000	0.000000	171.000000	45.000000	0.000000	-29.000000
0.260000	88.060000	28.050000	562.000000	0.000000	170.000000	44.000000	26.000000	-27.000000
0.270000	88.950000	28.000000	592.000000	0.000000	169.000000	44.000000	89.000000	-5.000000
0.280000	90.230000	28.110000	614.000000	0.000000	169.000000	44.000000	128.000000	11.000000
0.290000	92.280000	28.760000	644.000000	0.000000	169.000000	44.000000	205.000000	65.000000
0.300000	94.870000	29.560000	670.000000	0.000000	169.000000	44.000000	259.000000	80.000000
0.310000	97.810000	30.460000	705.000000	0.000000	170.000000	46.000000	294.000000	90.000000
0.320000	100.440000	31.160000	721.000000	0.000000	170.000000	46.000000	263.000000	70.000000
0.330000	102.350000	31.680000	728.000000	0.000000	171.000000	46.000000	191.000000	52.000000
0.340000	103.790000	32.090000	730.000000	0.000000	171.000000	46.000000	144.000000	41.000000
0.350000	104.640000	32.440000	691.000000	0.000000	172.000000	46.000000	85.000000	35.000000
0.360000	105.020000	32.640000	595.000000	0.000000	173.000000	46.000000	38.000000	20.000000
0.370000	105.080000	32.730000	287.000000	0.000000	174.000000	46.000000	6.000000	9.000000
0.380000	105.080000	32.730000	0.000000	1.000000	175.000000	46.000000	0.000000	0.000000
0.390000	103.960000	32.730000	0.000000	0.000000	176.000000	46.000000	-112.000000	0.000000
0.400000	102.820000	32.730000	0.000000	0.000000	177.000000	46.000000	-114.000000	0.000000
0.410000	101.250000	32.730000	0.000000	0.000000	178.000000	46.000000	-157.000000	0.000000
0.420000	99.460000	32.610000	0.000000	0.000000	178.000000	45.000000	-179.000000	-12.000000
0.430000	97.530000	32.480000	0.000000	0.000000	178.000000	45.000000	-193.000000	-13.000000
0.440000	96.090000	32.350000	0.000000	0.000000	177.000000	44.000000	-144.000000	-13.000000
0.450000	94.690000	32.230000	0.000000	0.000000	176.000000	43.000000	-140.000000	-12.000000
0.460000	93.380000	32.090000	0.000000	0.000000	175.000000	43.000000	-131.000000	-14.000000
0.470000	92.140000	31.920000	0.000000	0.000000	175.000000	42.000000	-124.000000	-17.000000
0.480000	91.090000	31.710000	0.000000	0.000000	174.000000	41.000000	-105.000000	-21.000000
0.490000	90.150000	31.490000	0.000000	0.000000	173.000000	41.000000	-94.000000	-22.000000
0.500000	89.290000	31.270000	0.000000	0.000000	172.000000	41.000000	-86.000000	-22.000000
0.510000	88.450000	31.070000	0.000000	0.000000	172.000000	40.000000	-84.000000	-20.000000
0.520000	87.950000	30.890000	0.000000	0.000000	170.000000	41.000000	-50.000000	-18.000000
0.530000	87.670000	30.790000	0.000000	0.000000	170.000000	41.000000	-28.000000	-10.000000
0.540000	87.600000	30.720000	0.000000	0.000000	170.000000	41.000000	-7.000000	-7.000000
0.550000	87.600000	30.720000	90.000000	1.000000	169.000000	40.000000	0.000000	0.000000
0.560000	87.880000	30.600000	160.000000	0.000000	168.000000	41.000000	28.000000	-12.000000
0.570000	87.880000	30.600000	344.000000	0.000000	167.000000	41.000000	0.000000	0.000000
0.580000	88.030000	30.600000	522.000000	0.000000	167.000000	41.000000	15.000000	0.000000
0.590000	88.260000	30.650000	639.000000	0.000000	167.000000	42.000000	23.000000	5.000000
0.600000	88.780000	30.780000	725.000000	0.000000	167.000000	42.000000	52.000000	13.000000
0.610000	89.750000	30.990000	784.000000	0.000000	167.000000	42.000000	97.000000	21.000000
0.620000	91.030000	31.420000	834.000000	0.000000	167.000000	43.000000	128.000000	43.000000
0.630000	92.860000	31.950000	863.000000	0.000000	167.000000	43.000000	183.000000	53.000000
0.640000	94.990000	32.550000	891.000000	0.000000	167.000000	43.000000	213.000000	60.000000
0.650000	97.320000	33.180000	908.000000	0.000000	168.000000	43.000000	233.000000	63.000000
0.660000	99.220000	33.790000	893.000000	0.000000	168.000000	44.000000	190.000000	61.000000
0.670000	100.760000	34.360000	909.000000	0.000000	169.000000	44.000000	154.000000	57.000000
0.680000	102.070000	34.770000	875.000000	0.000000	169.000000	44.000000	131.000000	41.000000
0.690000	102.930000	35.070000	836.000000	0.000000	170.000000	46.000000	86.000000	30.000000
0.700000	103.380000	35.220000	760.000000	0.000000	170.000000	47.000000	45.000000	15.000000
0.710000	103.550000	35.220000	652.000000	0.000000	170.000000	48.000000	17.000000	0.000000
0.720000	103.420000	35.220000	480.000000	0.000000	171.000000	48.000000	-13.000000	0.000000
0.730000	103.000000	35.110000	161.000000	0.000000	171.000000	49.000000	-42.000000	-11.000000
0.740000	103.000000	35.110000	0.000000	1.000000	172.000000	49.000000	0.000000	0.000000
0.750000	101.370000	34.570000	0.000000	0.000000	172.000000	49.000000	-163.000000	-54.000000
0.760000	100.060000	34.250000	0.000000	0.000000	172.000000	49.000000	-131.000000	-32.000000
0.770000	98.560000	33.900000	0.000000	0.000000	172.000000	49.000000	-150.000000	-35.000000
0.780000	97.190000	33.400000	0.000000	0.000000	172.000000	48.000000	-137.000000	-50.000000
0.790000	95.970000	32.810000	0.000000	0.000000	172.000000	47.000000	-122.000000	-59.000000
0.800000	94.850000	32.310000	0.000000	0.000000	173.000000	46.000000	-112.000000	-50.000000
0.810000	93.870000	31.860000	0.000000	0.000000	173.000000	45.000000	-98.000000	-45.000000
0.820000	92.940000	31.440000	0.000000	0.000000	172.000000	44.000000	-93.000000	-42.000000
0.830000	92.090000	31.070000	0.000000	0.000000	172.000000	44.000000	-85.000000	-37.000000
0.840000	91.370000	30.700000	0.000000	0.000000	171.000000	44.000000	-72.000000	-37.000000
0.850000	90.750000	30.320000	0.000000	0.000000	172.000000	43.000000	-62.000000	-38.000000
0.860000	90.380000	30.070000	0.000000	0.000000	171.000000	44.000000	-37.000000	-25.000000
0.870000	90.380000	30.070000	18.000000	1.000000	170.000000	44.000000	0.000000	0.000000
0.880000	90.120000	29.850000	139.000000	0.000000	170.000000	44.000000	-26.000000	-22.000000
0.890000	90.120000	29.850000	256.000000	0.000000	170.000000	44.000000	0.000000	0.000000
0.900000	90.170000	29.850000	359.000000	0.000000	169.000000	44.000000	5.000000	0.000000
0.910000	90.280000	29.850000	474.000000	0.000000	168.000000	43.000000	11.000000	0.000000
0.920000	90.280000	29.850000	567.000000	0.000000	167.000000	43.000000	0.000000	0.000000
0.930000	90.840000	29.900000	644.000000	0.000000	167.000000	43.000000	56.000000	5.000000
0.940000	91.320000	30.010000	665.000000	0.000000	167.000000	43.000000	48.000000	11.000000
0.950000	91.870000	30.140000	670.000000	0.000000	166.000000	44.000000	55.000000	13.000000
0.960000	92.270000	30.250000	665.000000	0.000000	167.000000	44.000000	40.000000	11.000000
0.970000	92.560000	30.330000	614.000000	0.000000	167.000000	44.000000	29.000000	8.000000
0.980000	92.840000	30.390000	415.000000	0.000000	167.000000	45.000000	28.000000	6.000000
0.990000	92.840000	30.390000	0.000000	1.000000	168.000000	45.000000	0.000000	0.000000
1.000000	93.130000	30.300000	0.000000	0.000000	168.000000	45.000000	29.000000	-9.000000
1.010000	93.130000	30.300000	0.000000	0.000000	169.000000	45.000000	0.000000	0.000000
1.020000	93.130000	30.300000	0.000000	0.000000	170.000000	46.000000	0.000000	0.000000
1.030000	93.080000	30.300000	0.000000	0.000000	170.000000	46.000000	-5.000000	0.000000
1.040000	93.130000	30.300000	0.000000	0.000000	171.000000	46.000000	5.000000	0.000000
1.050000	93.190000	30.300000	0.000000	0.000000	171.000000	46.000000	6.000000	0.000000
1.060000	93.260000	30.300000	0.000000	0.000000	171.000000	46.000000	7.000000	0.000000
1.070000	93.260000	30.300000	0.000000	0.000000	171.000000	46.000000	0.000000	0.000000
1.080000	93.260000	30.360000	0.000000	0.000000	171.000000	46.000000	0.000000	6.000000
1.090000	93.260000	30.360000	39.000000	1.000000	171.000000	46.000000	0.000000	0.000000
1.100000	93.260000	30.360000	90.000000	0.000000	171.000000	46.000000	0.000000	0.000000
1.110000	93.260000	30.360000	139.000000	0.000000	171.000000	46.000000	0.000000	0.000000
1.120000	93.260000	30.360000	184.000000	0.000000	171.000000	46.000000	0.000000	0.000000
1.130000	93.260000	30.360000	216.000000	0.000000	171.000000	46.000000	0.000000	0.000000
1.140000	93.260000	30.360000	281.000000	0.000000	171.000000	46.000000	0.000000	0.000000
1.150000	93.260000	30.360000	398.000000	0.000000	171.000000	46.000000	0.000000	0.000000
1.160000	93.650000	30.290000	450.000000	0.000000	171.000000	46.000000	39.000000	-7.000000
1.170000	93.880000	30.290000	497.000000	0.000000	171.000000	46.000000	23.000000	0.000000
1.180000	94.140000	30.390000	522.000000	0.000000	171.000000	46.000000	26.000000	10.000000
1.190000	94.370000	30.490000	521.000000	0.000000	171.000000	46.000000	23.000000	10.000000
1.200000	94.560000	30.580000	522.000000	0.000000	171.000000	46.000000	19.000000	9.000000
1.210000	94.740000	30.700000	521.000000	0.000000	171.000000	46.000000	18.000000	12.000000
1.220000	94.940000	30.830000	521.000000	0.000000	171.000000	46.000000	20.000000	13.000000
1.230000	95.020000	30.930000	524.000000	0.000000	172.000000	46.000000	8.000000	10.000000
1.240000	95.020000	31.040000	521.000000	0.000000	172.000000	46.000000	0.000000	11.000000
1.250000	94.920000	31.130000	519.000000	0.000000	172.000000	45.000000	-10.000000	9.000000
1.260000	94.740000	31.130000	483.000000	0.000000	172.000000	45.000000	-18.000000	0.000000
1.270000	94.520000	31.130000	440.000000	0.000000	172.000000	45.000000	-22.000000	0.000000
1.280000	94.280000	30.910000	402.000000	0.000000	172.000000	45.000000	-24.000000	-22.000000
1.290000	94.010000	30.630000	381.000000	0.000000	172.000000	45.000000	-27.000000	-28.000000
1.300000	93.710000	30.220000	349.000000	0.000000	172.000000	45.000000	-30.000000	-41.000000
1.310000	93.590000	29.930000	332.000000	0.000000	172.000000	45.000000	-12.000000	-29.000000
1.320000	93.590000	29.720000	325.000000	0.000000	172.000000	46.000000	0.000000	-21.000000
1.330000	93.750000	29.610000	364.000000	0.000000	172.000000	46.000000	16.000000	-11.000000
1.340000	94.070000	29.610000	420.000000	0.000000	171.000000	46.000000	32.000000	0.000000
1.350000	94.450000	29.770000	466.000000	0.000000	170.000000	47.000000	38.000000	16.000000
1.360000	94.930000	30.030000	493.000000	0.000000	170.000000	47.000000	48.000000	26.000000
1.370000	95.390000	30.330000	495.000000	0.000000	170.000000	47.000000	46.000000	30.000000
1.380000	95.760000	30.660000	489.000000	0.000000	170.000000	47.000000	37.000000	33.000000
1.390000	96.070000	31.000000	496.000000	0.000000	171.000000	47.000000	31.000000	34.000000
1.400000	96.330000	31.460000	491.000000	0.000000	171.000000	47.000000	26.000000	46.000000
1.410000	96.510000	32.000000	496.000000	0.000000	171.000000	47.000000	18.000000	54.000000
1.420000	96.640000	32.590000	495.000000	0.000000	171.000000	47.000000	13.000000	59.000000
1.430000	96.640000	33.160000	491.000000	0.000000	172.000000	46.000000	0.000000	57.000000
1.440000	96.510000	33.720000	495.000000	0.000000	172.000000	46.000000	-13.000000	56.000000
1.450000	96.340000	33.910000	491.000000	0.000000	172.000000	46.000000	-17.000000	19.000000
1.460000	96.130000	33.910000	486.000000	0.000000	172.000000	46.000000	-21.000000	0.000000
1.470000	95.880000	33.740000	483.000000	0.000000	172.000000	46.000000	-25.000000	-17.000000
1.480000	95.600000	33.400000	483.000000	0.000000	171.000000	46.000000	-28.000000	-34.000000
1.490000	95.430000	32.900000	483.000000	0.000000	171.000000	46.000000	-17.000000	-50.000000
1.500000	95.260000	32.300000	481.000000	0.000000	171.000000	46.000000	-17.000000	-60.000000
1.510000	95.260000	31.750000	480.000000	0.000000	171.000000	46.000000	0.000000	-55.000000
1.520000	95.390000	31.200000	478.000000	0.000000	172.000000	45.000000	13.000000	-55.000000
1.530000	95.610000	30.800000	478.000000	0.000000	172.000000	45.000000	22.000000	-40.000000
1.540000	95.830000	30.510000	477.000000	0.000000	172.000000	45.000000	22.000000	-29.000000
1.550000	96.060000	30.360000	485.000000	0.000000	173.000000	45.000000	23.000000	-15.000000
1.560000	96.240000	30.310000	488.000000	0.000000	173.000000	45.000000	18.000000	-5.000000
1.570000	96.390000	30.310000	505.000000	0.000000	173.000000	46.000000	15.000000	0.000000
1.580000	96.590000	30.450000	510.000000	0.000000	173.000000	46.000000	20.000000	14.000000
1.590000	96.790000	30.640000	510.000000	0.000000	173.000000	46.000000	20.000000	19.000000
1.600000	96.920000	30.870000	510.000000	0.000000	174.000000	46.000000	13.000000	23.000000
1.610000	96.990000	31.030000	512.000000	0.000000	174.000000	46.000000	7.000000	16.000000
1.620000	96.990000	31.140000	510.000000	0.000000	174.000000	46.000000	0.000000	11.000000
1.630000	96.990000	31.140000	502.000000	0.000000	174.000000	46.000000	0.000000	0.000000
1.640000	96.990000	31.140000	502.000000	0.000000	174.000000	46.000000	0.000000	0.000000
1.650000	96.990000	31.050000	502.000000	0.000000	174.000000	45.000000	0.000000	-9.000000
1.660000	97.040000	30.900000	504.000000	0.000000	174.000000	45.000000	5.000000	-15.000000
1.670000	97.040000	30.770000	501.000000	0.000000	174.000000	45.000000	0.000000	-13.000000
1.680000	97.040000	30.650000	501.000000	0.000000	174.000000	45.000000	0.000000	-12.000000
1.690000	97.040000	30.600000	497.000000	0.000000	174.000000	45.000000	0.000000	-5.000000
1.700000	97.040000	30.540000	486.000000	0.000000	174.000000	45.000000	0.000000	-6.000000
1.710000	97.040000	30.540000	417.000000	0.000000	174.000000	45.000000	0.000000	0.000000
1.720000	97.130000	30.540000	301.000000	0.000000	174.000000	45.000000	9.000000	0.000000
1.730000	97.200000	30.540000	68.000000	0.000000	174.000000	45.000000	7.000000	0.000000
1.740000	97.200000	30.540000	0.000000	1.000000	174.000000	45.000000	0.000000	0.000000
1.750000	97.330000	30.730000	0.000000	0.000000	174.000000	45.000000	13.000000	19.000000
1.760000	97.390000	30.890000	0.000000	0.000000	174.000000	45.000000	6.000000	16.000000
1.770000	97.490000	31.160000	0.000000	0.000000	174.000000	45.000000	10.000000	27.000000
1.780000	97.490000	31.510000	0.000000	0.000000	174.000000	45.000000	0.000000	35.000000
1.790000	97.490000	31.870000	0.000000	0.000000	173.000000	45.000000	0.000000	36.000000
1.800000	97.440000	32.210000	0.000000	0.000000	173.000000	45.000000	-5.000000	34.000000
1.810000	97.440000	32.210000	127.000000	1.000000	173.000000	45.000000	0.000000	0.000000
1.820000	97.380000	32.650000	186.000000	0.000000	173.000000	45.000000	-6.000000	44.000000
1.830000	97.380000	32.720000	216.000000	0.000000	173.000000	44.000000	0.000000	7.000000
1.840000	97.330000	32.720000	223.000000	0.000000	173.000000	44.000000	-5.000000	0.000000
1.850000	97.330000	32.580000	218.000000	0.000000	174.000000	44.000000	0.000000	-14.000000
1.860000	97.420000	32.380000	180.000000	0.000000	174.000000	44.000000	9.000000	-20.000000
1.870000	97.490000	32.090000	53.000000	0.000000	174.000000	44.000000	7.000000	-29.000000
1.880000	97.490000	32.090000	0.000000	1.000000	175.000000	44.000000	0.000000	0.000000
1.890000	97.660000	31.420000	0.000000	0.000000	175.000000	44.000000	17.000000	-67.000000
1.900000	97.660000	31.210000	0.000000	0.000000	175.000000	44.000000	0.000000	-21.000000
1.910000	97.740000	31.070000	0.000000	0.000000	175.000000	44.000000	8.000000	-14.000000
1.920000	97.810000	30.990000	0.000000	0.000000	175.000000	44.000000	7.000000	-8.000000
1.930000	97.900000	30.990000	0.000000	0.000000	174.000000	44.000000	9.000000	0.000000
1.940000	97.900000	30.990000	0.000000	0.000000	174.000000	44.000000	0.000000	0.000000
1.950000	97.900000	30.990000	0.000000	0.000000	174.000000	44.000000	0.000000	0.000000
1.960000	98.200000	31.130000	0.000000	0.000000	174.000000	44.000000	30.000000	14.000000
1.970000	98.290000	31.200000	0.000000	0.000000	174.000000	45.000000	9.000000	7.000000
1.980000	98.290000	31.200000	30.000000	1.000000	174.000000	45.000000	0.000000	0.000000
1.990000	98.290000	31.200000	53.000000	0.000000	175.000000	45.000000	0.000000	0.000000
2.000000	98.290000	31.200000	132.000000	0.000000	176.000000	45.000000	0.000000	0.000000
2.010000	98.360000	30.940000	218.000000	0.000000	177.000000	45.000000	7.000000	-26.000000
2.020000	98.280000	30.530000	281.000000	0.000000	177.000000	46.000000	-8.000000	-41.000000
2.030000	98.280000	30.000000	336.000000	0.000000	178.000000	46.000000	0.000000	-53.000000
2.040000	98.220000	29.440000	346.000000	0.000000	179.000000	46.000000	-6.000000	-56.000000
2.050000	98.220000	28.830000	353.000000	0.000000	180.000000	47.000000	0.000000	-61.000000
2.060000	98.150000	28.320000	354.000000	0.000000	180.000000	47.000000	-7.000000	-51.000000
2.070000	98.070000	27.880000	353.000000	0.000000	180.000000	48.000000	-8.000000	-44.000000
2.080000	98.070000	27.680000	349.000000	0.000000	180.000000	48.000000	0.000000	-20.000000
2.090000	98.020000	27.680000	369.000000	0.000000	180.000000	49.000000	-5.000000	0.000000
2.100000	98.020000	27.780000	445.000000	0.000000	180.000000	50.000000	0.000000	10.000000
2.110000	98.020000	27.960000	545.000000	0.000000	180.000000	50.000000	0.000000	18.000000
2.120000	98.020000	28.320000	569.000000	0.000000	179.000000	50.000000	0.000000	36.000000
2.130000	98.080000	28.810000	611.000000	0.000000	179.000000	50.000000	6.000000	49.000000
2.140000	98.130000	29.400000	637.000000	0.000000	179.000000	50.000000	5.000000	59.000000
2.150000	98.190000	30.150000	646.000000	0.000000	179.000000	49.000000	6.000000	75.000000
2.160000	98.260000	31.020000	647.000000	0.000000	179.000000	49.000000	7.000000	87.000000
2.170000	98.490000	31.730000	647.000000	0.000000	179.000000	48.000000	23.000000	71.000000
2.180000	98.820000	32.170000	643.000000	0.000000	178.000000	47.000000	33.000000	44.000000
2.190000	99.160000	32.430000	637.000000	0.000000	178.000000	47.000000	34.000000	26.000000
2.200000	99.350000	32.430000	617.000000	0.000000	178.000000	46.000000	19.000000	0.000000
2.210000	99.440000	32.330000	594.000000	0.000000	178.000000	45.000000	9.000000	-10.000000
