t	x	y	pressure	penup	azimuth	inclination	v_x	v_y
0.000000	57.110000	54.200000	146.000000	1.000000	116.000000	60.000000	0.000000	0.000000
0.010000	57.110000	54.200000	218.000000	0.000000	118.000000	60.000000	0.000000	0.000000
0.020000	57.010000	53.320000	305.000000	0.000000	119.000000	60.000000	-10.000000	-88.000000
0.030000	56.820000	51.820000	412.000000	0.000000	119.000000	60.000000	-19.000000	-150.000000
0.040000	56.570000	49.790000	512.000000	0.000000	119.000000	60.000000	-25.000000	-203.000000
0.050000	56.120000	47.690000	611.000000	0.000000	119.000000	60.000000	-45.000000	-210.000000
0.060000	55.800000	45.550000	645.000000	0.000000	118.000000	60.000000	-32.000000	-214.000000
0.070000	55.570000	44.010000	658.000000	0.000000	114.000000	61.000000	-23.000000	-154.000000
0.080000	55.480000	43.010000	670.000000	0.000000	113.000000	61.000000	-9.000000	-100.000000
0.090000	55.430000	42.360000	655.000000	0.000000	108.000000	61.000000	-5.000000	-65.000000
0.100000	55.550000	42.120000	617.000000	0.000000	107.000000	61.000000	12.000000	-24.000000
0.110000	55.760000	42.060000	588.000000	0.000000	103.000000	61.000000	21.000000	-6.000000
0.120000	55.920000	42.120000	570.000000	0.000000	101.000000	62.000000	16.000000	6.000000
0.130000	56.070000	42.440000	564.000000	0.000000	99.000000	61.000000	15.000000	32.000000
0.140000	56.140000	43.160000	561.000000	0.000000	99.000000	61.000000	7.000000	72.000000
0.150000	56.140000	44.140000	565.000000	0.000000	99.000000	61.000000	0.000000	98.000000
0.160000	55.930000	45.250000	564.000000	0.000000	99.000000	61.000000	-21.000000	111.000000
0.170000	55.570000	46.310000	561.000000	0.000000	99.000000	61.000000	-36.000000	106.000000
0.180000	55.110000	46.920000	546.000000	0.000000	99.000000	61.000000	-46.000000	61.000000
0.190000	54.820000	47.250000	542.000000	0.000000	99.000000	61.000000	-29.000000	33.000000
0.200000	53.910000	47.060000	539.000000	0.000000	99.000000	61.000000	-91.000000	-19.000000
0.210000	52.580000	46.490000	526.000000	0.000000	101.000000	61.000000	-133.000000	-57.000000
0.220000	51.290000	45.660000	546.000000	0.000000	101.000000	61.000000	-129.000000	-83.000000
0.230000	50.010000	44.990000	578.000000	0.000000	101.000000	61.000000	-128.000000	-67.000000
0.240000	49.080000	44.540000	620.000000	0.000000	101.000000	61.000000	-93.000000	-45.000000
0.250000	48.380000	44.240000	636.000000	0.000000	101.000000	61.000000	-70.000000	-30.000000
0.260000	48.230000	44.150000	628.000000	0.000000	101.000000	62.000000	-15.000000	-9.000000
0.270000	48.660000	44.270000	628.000000	0.000000	101.000000	62.000000	43.000000	12.000000
0.280000	49.470000	44.540000	634.000000	0.000000	101.000000	62.000000	81.000000	27.000000
0.290000	51.140000	45.090000	646.000000	0.000000	101.000000	62.000000	167.000000	55.000000
0.300000	53.460000	45.630000	669.000000	0.000000	101.000000	62.000000	232.000000	54.000000
0.310000	56.220000	46.320000	690.000000	0.000000	102.000000	63.000000	276.000000	69.000000
0.320000	59.570000	47.110000	724.000000	0.000000	102.000000	63.000000	335.000000	79.000000
0.330000	63.140000	48.340000	722.000000	0.000000	104.000000	62.000000	357.000000	123.000000
0.340000	66.850000	49.570000	730.000000	0.000000	106.000000	63.000000	371.000000	123.000000
0.350000	70.610000	50.860000	690.000000	0.000000	108.000000	63.000000	376.000000	129.000000
0.360000	73.770000	51.860000	649.000000	0.000000	110.000000	63.000000	316.000000	100.000000
0.370000	76.520000	52.630000	583.000000	0.000000	113.000000	63.000000	275.000000	77.000000
0.380000	78.600000	52.990000	438.000000	0.000000	115.000000	63.000000	208.000000	36.000000
0.390000	79.720000	53.050000	136.000000	0.000000	117.000000	63.000000	112.000000	6.000000
0.400000	79.720000	53.050000	0.000000	1.000000	119.000000	63.000000	0.000000	0.000000
0.410000	80.140000	52.720000	0.000000	0.000000	120.000000	64.000000	42.000000	-33.000000
0.420000	79.920000	52.530000	0.000000	0.000000	122.000000	63.000000	-22.000000	-19.000000
0.430000	79.590000	52.470000	0.000000	0.000000	124.000000	64.000000	-33.000000	-6.000000
0.440000	79.130000	52.470000	0.000000	0.000000	124.000000	64.000000	-46.000000	0.000000
0.450000	78.420000	52.470000	0.000000	0.000000	125.000000	64.000000	-71.000000	0.000000
0.460000	77.530000	52.400000	0.000000	0.000000	125.000000	64.000000	-89.000000	-7.000000
0.470000	76.760000	52.230000	0.000000	0.000000	125.000000	64.000000	-77.000000	-17.000000
0.480000	75.870000	52.120000	0.000000	0.000000	125.000000	64.000000	-89.000000	-11.000000
0.490000	74.890000	52.030000	0.000000	0.000000	124.000000	63.000000	-98.000000	-9.000000
0.500000	73.820000	51.960000	0.000000	0.000000	123.000000	62.000000	-107.000000	-7.000000
0.510000	72.780000	51.960000	0.000000	0.000000	122.000000	61.000000	-104.000000	0.000000
0.520000	71.730000	51.910000	0.000000	0.000000	120.000000	60.000000	-105.000000	-5.000000
0.530000	70.670000	51.860000	0.000000	0.000000	118.000000	59.000000	-106.000000	-5.000000
0.540000	69.210000	51.670000	0.000000	0.000000	116.000000	58.000000	-146.000000	-19.000000
0.550000	67.910000	51.670000	0.000000	0.000000	115.000000	58.000000	-130.000000	0.000000
0.560000	66.710000	51.440000	0.000000	0.000000	114.000000	57.000000	-120.000000	-23.000000
0.570000	65.650000	51.100000	0.000000	0.000000	113.000000	57.000000	-106.000000	-34.000000
0.580000	64.590000	50.790000	0.000000	0.000000	110.000000	56.000000	-106.000000	-31.000000
0.590000	63.560000	50.460000	0.000000	0.000000	109.000000	57.000000	-103.000000	-33.000000
0.600000	62.540000	50.080000	0.000000	0.000000	107.000000	57.000000	-102.000000	-38.000000
0.610000	61.560000	49.660000	0.000000	0.000000	105.000000	56.000000	-98.000000	-42.000000
0.620000	60.670000	49.220000	0.000000	0.000000	102.000000	56.000000	-89.000000	-44.000000
0.630000	59.870000	48.790000	0.000000	0.000000	101.000000	57.000000	-80.000000	-43.000000
0.640000	59.170000	48.340000	0.000000	0.000000	97.000000	56.000000	-70.000000	-45.000000
0.650000	58.720000	47.910000	0.000000	0.000000	96.000000	55.000000	-45.000000	-43.000000
0.660000	58.420000	47.710000	0.000000	0.000000	95.000000	54.000000	-30.000000	-20.000000
0.670000	58.500000	47.710000	0.000000	0.000000	95.000000	54.000000	8.000000	0.000000
0.680000	58.550000	47.710000	0.000000	0.000000	95.000000	54.000000	5.000000	0.000000
0.690000	58.550000	47.710000	0.000000	0.000000	97.000000	55.000000	0.000000	0.000000
0.700000	58.550000	47.710000	0.000000	0.000000	99.000000	56.000000	0.000000	0.000000
0.710000	58.610000	47.600000	0.000000	0.000000	99.000000	57.000000	6.000000	-11.000000
0.720000	58.610000	47.500000	0.000000	0.000000	101.000000	58.000000	0.000000	-10.000000
0.730000	58.610000	47.400000	0.000000	0.000000	103.000000	58.000000	0.000000	-10.000000
0.740000	58.610000	47.340000	0.000000	0.000000	104.000000	59.000000	0.000000	-6.000000
0.750000	58.610000	47.340000	0.000000	0.000000	104.000000	60.000000	0.000000	0.000000
0.760000	58.530000	47.430000	0.000000	0.000000	104.000000	60.000000	-8.000000	9.000000
0.770000	58.450000	47.430000	0.000000	0.000000	105.000000	61.000000	-8.000000	0.000000
0.780000	58.360000	47.500000	0.000000	0.000000	105.000000	61.000000	-9.000000	7.000000
0.790000	58.270000	47.500000	0.000000	0.000000	105.000000	62.000000	-9.000000	0.000000
0.800000	58.200000	47.570000	0.000000	0.000000	105.000000	62.000000	-7.000000	7.000000
0.810000	58.140000	47.640000	0.000000	0.000000	105.000000	62.000000	-6.000000	7.000000
0.820000	58.140000	47.770000	0.000000	0.000000	105.000000	62.000000	0.000000	13.000000
0.830000	58.200000	47.950000	0.000000	0.000000	105.000000	62.000000	6.000000	18.000000
0.840000	58.260000	48.140000	0.000000	0.000000	105.000000	62.000000	6.000000	19.000000
0.850000	58.320000	48.330000	0.000000	0.000000	107.000000	62.000000	6.000000	19.000000
0.860000	58.380000	48.520000	0.000000	0.000000	107.000000	62.000000	6.000000	19.000000
0.870000	58.440000	48.700000	0.000000	0.000000	107.000000	62.000000	6.000000	18.000000
0.880000	58.440000	48.870000	0.000000	0.000000	107.000000	62.000000	0.000000	17.000000
0.890000	58.440000	48.990000	0.000000	0.000000	107.000000	62.000000	0.000000	12.000000
0.900000	58.320000	49.050000	0.000000	0.000000	107.000000	62.000000	-12.000000	6.000000
0.910000	58.170000	49.050000	0.000000	0.000000	109.000000	62.000000	-15.000000	0.000000
0.920000	57.980000	48.800000	0.000000	0.000000	108.000000	61.000000	-19.000000	-25.000000
0.930000	57.710000	48.490000	0.000000	0.000000	108.000000	61.000000	-27.000000	-31.000000
0.940000	57.520000	48.070000	0.000000	0.000000	107.000000	61.000000	-19.000000	-42.000000
0.950000	57.520000	48.070000	369.000000	1.000000	107.000000	61.000000	0.000000	0.000000
0.960000	57.260000	47.390000	394.000000	0.000000	107.000000	61.000000	-26.000000	-68.000000
0.970000	57.350000	47.330000	440.000000	0.000000	105.000000	61.000000	9.000000	-6.000000
0.980000	57.560000	47.270000	480.000000	0.000000	105.000000	61.000000	21.000000	-6.000000
0.990000	57.840000	47.330000	494.000000	0.000000	105.000000	62.000000	28.000000	6.000000
1.000000	58.180000	47.460000	499.000000	0.000000	105.000000	62.000000	34.000000	13.000000
1.010000	58.480000	47.760000	501.000000	0.000000	105.000000	62.000000	30.000000	30.000000
1.020000	58.740000	48.060000	495.000000	0.000000	106.000000	63.000000	26.000000	30.000000
1.030000	58.910000	48.390000	466.000000	0.000000	106.000000	63.000000	17.000000	33.000000
1.040000	59.000000	48.740000	423.000000	0.000000	108.000000	63.000000	9.000000	35.000000
1.050000	59.000000	49.050000	391.000000	0.000000	109.000000	64.000000	0.000000	31.000000
1.060000	59.000000	49.260000	394.000000	0.000000	111.000000	64.000000	0.000000	21.000000
1.070000	58.850000	49.400000	399.000000	0.000000	113.000000	63.000000	-15.000000	14.000000
1.080000	58.680000	49.450000	422.000000	0.000000	113.000000	63.000000	-17.000000	5.000000
1.090000	58.540000	49.450000	420.000000	0.000000	113.000000	63.000000	-14.000000	0.000000
1.100000	58.410000	49.300000	438.000000	0.000000	115.000000	63.000000	-13.000000	-15.000000
1.110000	58.250000	48.900000	494.000000	0.000000	115.000000	63.000000	-16.000000	-40.000000
1.120000	58.070000	48.340000	530.000000	0.000000	113.000000	63.000000	-18.000000	-56.000000
1.130000	58.070000	47.790000	537.000000	0.000000	112.000000	62.000000	0.000000	-55.000000
1.140000	58.070000	47.270000	542.000000	0.000000	110.000000	63.000000	0.000000	-52.000000
1.150000	58.190000	46.950000	545.000000	0.000000	108.000000	63.000000	12.000000	-32.000000
1.160000	58.370000	46.750000	526.000000	0.000000	105.000000	62.000000	18.000000	-20.000000
1.170000	58.530000	46.680000	493.000000	0.000000	105.000000	62.000000	16.000000	-7.000000
1.180000	58.670000	46.780000	369.000000	0.000000	104.000000	62.000000	14.000000	10.000000
1.190000	58.940000	46.990000	212.000000	0.000000	102.000000	63.000000	27.000000	21.000000
1.200000	59.220000	47.430000	37.000000	0.000000	102.000000	63.000000	28.000000	44.000000
1.210000	59.220000	47.430000	0.000000	1.000000	102.000000	63.000000	0.000000	0.000000
1.220000	59.930000	48.780000	0.000000	0.000000	104.000000	63.000000	71.000000	135.000000
1.230000	60.200000	49.490000	0.000000	0.000000	105.000000	64.000000	27.000000	71.000000
1.240000	60.460000	50.210000	0.000000	0.000000	107.000000	64.000000	26.000000	72.000000
1.250000	60.700000	50.930000	0.000000	0.000000	111.000000	64.000000	24.000000	72.000000
1.260000	60.840000	51.570000	0.000000	0.000000	113.000000	63.000000	14.000000	64.000000
1.270000	60.920000	52.000000	0.000000	0.000000	115.000000	63.000000	8.000000	43.000000
1.280000	60.920000	52.300000	0.000000	0.000000	116.000000	63.000000	0.000000	30.000000
1.290000	60.920000	52.380000	0.000000	0.000000	117.000000	61.000000	0.000000	8.000000
1.300000	60.870000	52.230000	0.000000	0.000000	117.000000	61.000000	-5.000000	-15.000000
1.310000	60.870000	52.230000	339.000000	1.000000	117.000000	61.000000	0.000000	0.000000
1.320000	60.560000	51.490000	504.000000	0.000000	119.000000	61.000000	-31.000000	-74.000000
1.330000	60.390000	50.990000	606.000000	0.000000	117.000000	61.000000	-17.000000	-50.000000
1.340000	60.290000	50.350000	667.000000	0.000000	117.000000	61.000000	-10.000000	-64.000000
1.350000	60.210000	49.640000	682.000000	0.000000	117.000000	61.000000	-8.000000	-71.000000
1.360000	60.150000	48.950000	681.000000	0.000000	116.000000	63.000000	-6.000000	-69.000000
1.370000	60.240000	48.420000	681.000000	0.000000	116.000000	63.000000	9.000000	-53.000000
1.380000	60.420000	47.990000	675.000000	0.000000	115.000000	63.000000	18.000000	-43.000000
1.390000	60.640000	47.820000	637.000000	0.000000	113.000000	63.000000	22.000000	-17.000000
1.400000	60.920000	47.820000	602.000000	0.000000	111.000000	64.000000	28.000000	0.000000
1.410000	61.300000	47.990000	517.000000	0.000000	109.000000	64.000000	38.000000	17.000000
1.420000	61.710000	48.470000	396.000000	0.000000	108.000000	63.000000	41.000000	48.000000
1.430000	62.110000	48.940000	193.000000	0.000000	108.000000	63.000000	40.000000	47.000000
1.440000	62.350000	49.420000	172.000000	0.000000	108.000000	63.000000	24.000000	48.000000
1.450000	62.490000	49.910000	275.000000	0.000000	108.000000	63.000000	14.000000	49.000000
1.460000	62.440000	49.970000	443.000000	0.000000	110.000000	63.000000	-5.000000	6.000000
1.470000	62.380000	49.890000	540.000000	0.000000	110.000000	63.000000	-6.000000	-8.000000
1.480000	62.300000	49.730000	614.000000	0.000000	112.000000	62.000000	-8.000000	-16.000000
1.490000	62.300000	49.440000	643.000000	0.000000	111.000000	61.000000	0.000000	-29.000000
1.500000	62.300000	49.110000	678.000000	0.000000	111.000000	61.000000	0.000000	-33.000000
1.510000	62.420000	48.720000	702.000000	0.000000	111.000000	61.000000	12.000000	-39.000000
1.520000	62.530000	48.510000	693.000000	0.000000	111.000000	61.000000	11.000000	-21.000000
1.530000	62.610000	48.430000	693.000000	0.000000	109.000000	62.000000	8.000000	-8.000000
1.540000	62.680000	48.350000	627.000000	0.000000	109.000000	62.000000	7.000000	-8.000000
1.550000	62.860000	48.350000	465.000000	0.000000	107.000000	62.000000	18.000000	0.000000
1.560000	63.080000	48.520000	73.000000	0.000000	107.000000	62.000000	22.000000	17.000000
1.570000	63.080000	48.520000	0.000000	1.000000	107.000000	62.000000	0.000000	0.000000
1.580000	63.480000	49.190000	0.000000	0.000000	107.000000	62.000000	40.000000	67.000000
1.590000	63.480000	49.500000	0.000000	0.000000	107.000000	62.000000	0.000000	31.000000
1.600000	63.480000	49.750000	0.000000	0.000000	107.000000	62.000000	0.000000	25.000000
1.610000	63.480000	50.020000	0.000000	0.000000	107.000000	62.000000	0.000000	27.000000
1.620000	63.410000	50.340000	0.000000	0.000000	109.000000	62.000000	-7.000000	32.000000
1.630000	63.350000	50.690000	0.000000	0.000000	109.000000	62.000000	-6.000000	35.000000
1.640000	63.260000	50.970000	0.000000	0.000000	111.000000	61.000000	-9.000000	28.000000
1.650000	63.160000	51.220000	0.000000	0.000000	110.000000	60.000000	-10.000000	25.000000
1.660000	63.070000	51.410000	0.000000	0.000000	110.000000	60.000000	-9.000000	19.000000
1.670000	63.070000	51.410000	337.000000	1.000000	112.000000	60.000000	0.000000	0.000000
1.680000	63.070000	51.410000	348.000000	0.000000	112.000000	60.000000	0.000000	0.000000
1.690000	63.070000	51.410000	315.000000	0.000000	112.000000	60.000000	0.000000	0.000000
1.700000	63.070000	51.410000	153.000000	0.000000	114.000000	61.000000	0.000000	0.000000
1.710000	63.070000	51.410000	0.000000	1.000000	114.000000	61.000000	0.000000	0.000000
1.720000	63.220000	50.350000	0.000000	0.000000	113.000000	61.000000	15.000000	-106.000000
1.730000	63.380000	49.690000	0.000000	0.000000	113.000000	61.000000	16.000000	-66.000000
1.740000	63.380000	49.690000	81.000000	1.000000	113.000000	61.000000	0.000000	0.000000
1.750000	63.750000	48.280000	196.000000	0.000000	111.000000	61.000000	37.000000	-141.000000
1.760000	63.850000	47.740000	287.000000	0.000000	109.000000	62.000000	10.000000	-54.000000
1.770000	63.960000	47.280000	379.000000	0.000000	107.000000	62.000000	11.000000	-46.000000
1.780000	64.060000	46.920000	490.000000	0.000000	105.000000	62.000000	10.000000	-36.000000
1.790000	64.060000	46.710000	595.000000	0.000000	104.000000	62.000000	0.000000	-21.000000
1.800000	64.060000	46.590000	668.000000	0.000000	102.000000	63.000000	0.000000	-12.000000
1.810000	64.060000	46.590000	728.000000	0.000000	100.000000	63.000000	0.000000	0.000000
1.820000	64.060000	46.700000	754.000000	0.000000	100.000000	63.000000	0.000000	11.000000
1.830000	64.060000	46.880000	761.000000	0.000000	100.000000	63.000000	0.000000	18.000000
1.840000	63.970000	47.330000	731.000000	0.000000	100.000000	63.000000	-9.000000	45.000000
1.850000	63.970000	48.030000	708.000000	0.000000	100.000000	63.000000	0.000000	70.000000
1.860000	63.970000	48.910000	661.000000	0.000000	100.000000	64.000000	0.000000	88.000000
1.870000	64.240000	49.960000	585.000000	0.000000	102.000000	63.000000	27.000000	105.000000
1.880000	64.590000	50.730000	574.000000	0.000000	104.000000	63.000000	35.000000	77.000000
1.890000	64.850000	51.310000	562.000000	0.000000	106.000000	63.000000	26.000000	58.000000
1.900000	65.040000	51.490000	548.000000	0.000000	108.000000	63.000000	19.000000	18.000000
1.910000	65.190000	51.410000	554.000000	0.000000	110.000000	63.000000	15.000000	-8.000000
1.920000	65.190000	51.170000	569.000000	0.000000	112.000000	62.000000	0.000000	-24.000000
1.930000	65.190000	50.680000	592.000000	0.000000	115.000000	63.000000	0.000000	-49.000000
1.940000	65.010000	50.180000	636.000000	0.000000	115.000000	63.000000	-18.000000	-50.000000
1.950000	64.870000	49.740000	681.000000	0.000000	116.000000	63.000000	-14.000000	-44.000000
1.960000	64.710000	49.350000	693.000000	0.000000	115.000000	63.000000	-16.000000	-39.000000
1.970000	64.540000	49.110000	690.000000	0.000000	115.000000	63.000000	-17.000000	-24.000000
1.980000	64.370000	48.940000	636.000000	0.000000	115.000000	63.000000	-17.000000	-17.000000
1.990000	64.190000	48.820000	440.000000	0.000000	112.000000	62.000000	-18.000000	-12.000000
2.000000	64.190000	48.820000	0.000000	1.000000	112.000000	62.000000	0.000000	0.000000
2.010000	64.070000	49.190000	0.000000	0.000000	112.000000	62.000000	-12.000000	37.000000
2.020000	64.140000	49.530000	0.000000	0.000000	112.000000	62.000000	7.000000	34.000000
2.030000	64.420000	49.730000	0.000000	0.000000	111.000000	61.000000	28.000000	20.000000
2.040000	64.830000	49.930000	0.000000	0.000000	111.000000	61.000000	41.000000	20.000000
2.050000	65.480000	50.140000	0.000000	0.000000	111.000000	61.000000	65.000000	21.000000
2.060000	66.160000	50.340000	0.000000	0.000000	112.000000	62.000000	68.000000	20.000000
2.070000	66.870000	50.540000	0.000000	0.000000	112.000000	62.000000	71.000000	20.000000
2.080000	67.570000	50.740000	0.000000	0.000000	115.000000	63.000000	70.000000	20.000000
2.090000	68.180000	50.940000	0.000000	0.000000	115.000000	63.000000	61.000000	20.000000
2.100000	68.730000	51.110000	0.000000	0.000000	116.000000	64.000000	55.000000	17.000000
2.110000	69.020000	51.230000	0.000000	0.000000	116.000000	64.000000	29.000000	12.000000
2.120000	69.020000	51.310000	0.000000	0.000000	117.000000	63.000000	0.000000	8.000000
2.130000	68.910000	51.310000	0.000000	0.000000	117.000000	63.000000	-11.000000	0.000000
2.140000	68.670000	51.240000	0.000000	0.000000	117.000000	63.000000	-24.000000	-7.000000
2.150000	68.240000	51.100000	0.000000	0.000000	119.000000	63.000000	-43.000000	-14.000000
2.160000	67.670000	50.950000	0.000000	0.000000	119.000000	63.000000	-57.000000	-15.000000
2.170000	67.230000	50.870000	0.000000	0.000000	119.000000	63.000000	-44.000000	-8.000000
2.180000	66.840000	50.870000	0.000000	0.000000	117.000000	63.000000	-39.000000	0.000000
2.190000	66.620000	50.870000	0.000000	0.000000	117.000000	63.000000	-22.000000	0.000000
2.200000	66.500000	50.930000	0.000000	0.000000	117.000000	63.000000	-12.000000	6.000000
2.210000	66.440000	50.930000	0.000000	0.000000	117.000000	63.000000	-6.000000	0.000000
2.220000	66.440000	50.930000	0.000000	0.000000	117.000000	63.000000	0.000000	0.000000
