t	x	y	pressure	penup	azimuth	inclination	v_x	v_y
0.000000	13.990000	30.300000	240.000000	1.000000	125.000000	60.000000	0.000000	0.000000
0.010000	13.630000	30.610000	356.000000	0.000000	124.000000	60.000000	-36.000000	31.000000
0.020000	13.440000	30.680000	456.000000	0.000000	123.000000	59.000000	-19.000000	7.000000
0.030000	13.310000	30.680000	542.000000	0.000000	123.000000	59.000000	-13.000000	0.000000
0.040000	13.250000	30.730000	619.000000	0.000000	121.000000	58.000000	-6.000000	5.000000
0.050000	13.250000	30.790000	655.000000	0.000000	121.000000	58.000000	0.000000	6.000000
0.060000	13.250000	30.790000	671.000000	0.000000	120.000000	57.000000	0.000000	0.000000
0.070000	13.250000	30.730000	667.000000	0.000000	120.000000	57.000000	0.000000	-6.000000
0.080000	13.310000	30.730000	691.000000	0.000000	120.000000	57.000000	6.000000	0.000000
0.090000	13.620000	30.580000	705.000000	0.000000	121.000000	56.000000	31.000000	-15.000000
0.100000	14.080000	30.400000	719.000000	0.000000	122.000000	57.000000	46.000000	-18.000000
0.110000	14.720000	30.200000	721.000000	0.000000	122.000000	57.000000	64.000000	-20.000000
0.120000	15.740000	30.060000	757.000000	0.000000	122.000000	57.000000	102.000000	-14.000000
0.130000	17.020000	29.970000	782.000000	0.000000	122.000000	57.000000	128.000000	-9.000000
0.140000	18.680000	30.100000	805.000000	0.000000	122.000000	57.000000	166.000000	13.000000
0.150000	20.530000	30.220000	817.000000	0.000000	123.000000	56.000000	185.000000	12.000000
0.160000	22.510000	30.310000	854.000000	0.000000	123.000000	56.000000	198.000000	9.000000
0.170000	24.390000	30.310000	869.000000	0.000000	123.000000	56.000000	188.000000	0.000000
0.180000	26.110000	30.310000	903.000000	0.000000	123.000000	56.000000	172.000000	0.000000
0.190000	27.720000	30.310000	911.000000	0.000000	126.000000	57.000000	161.000000	0.000000
0.200000	28.700000	30.310000	924.000000	0.000000	127.000000	57.000000	98.000000	0.000000
0.210000	29.310000	30.240000	926.000000	0.000000	128.000000	58.000000	61.000000	-7.000000
0.220000	29.680000	30.190000	926.000000	0.000000	129.000000	59.000000	37.000000	-5.000000
0.230000	29.770000	30.190000	921.000000	0.000000	131.000000	60.000000	9.000000	0.000000
0.240000	29.770000	30.190000	890.000000	0.000000	132.000000	60.000000	0.000000	0.000000
0.250000	29.770000	30.140000	791.000000	0.000000	134.000000	61.000000	0.000000	-5.000000
0.260000	29.640000	30.220000	577.000000	0.000000	134.000000	61.000000	-13.000000	8.000000
0.270000	29.330000	30.380000	32.000000	0.000000	135.000000	62.000000	-31.000000	16.000000
0.280000	29.330000	30.380000	0.000000	1.000000	135.000000	62.000000	0.000000	0.000000
0.290000	28.340000	30.460000	0.000000	0.000000	135.000000	62.000000	-99.000000	8.000000
0.300000	27.630000	30.460000	0.000000	0.000000	135.000000	62.000000	-71.000000	0.000000
0.310000	26.810000	30.460000	0.000000	0.000000	135.000000	62.000000	-82.000000	0.000000
0.320000	25.750000	30.390000	0.000000	0.000000	134.000000	61.000000	-106.000000	-7.000000
0.330000	24.580000	30.240000	0.000000	0.000000	134.000000	61.000000	-117.000000	-15.000000
0.340000	23.340000	29.970000	0.000000	0.000000	132.000000	60.000000	-124.000000	-27.000000
0.350000	22.060000	29.730000	0.000000	0.000000	129.000000	60.000000	-128.000000	-24.000000
0.360000	20.820000	29.530000	0.000000	0.000000	128.000000	59.000000	-124.000000	-20.000000
0.370000	19.670000	29.440000	0.000000	0.000000	126.000000	58.000000	-115.000000	-9.000000
0.380000	18.940000	29.390000	0.000000	0.000000	124.000000	57.000000	-73.000000	-5.000000
0.390000	18.480000	29.390000	0.000000	0.000000	123.000000	56.000000	-46.000000	0.000000
0.400000	18.160000	29.390000	0.000000	0.000000	122.000000	56.000000	-32.000000	0.000000
0.410000	17.810000	29.320000	0.000000	0.000000	121.000000	55.000000	-35.000000	-7.000000
0.420000	17.430000	29.320000	0.000000	0.000000	121.000000	55.000000	-38.000000	0.000000
0.430000	17.120000	29.320000	0.000000	0.000000	120.000000	54.000000	-31.000000	0.000000
0.440000	16.860000	29.320000	0.000000	0.000000	121.000000	55.000000	-26.000000	0.000000
0.450000	16.650000	29.430000	0.000000	0.000000	121.000000	55.000000	-21.000000	11.000000
0.460000	16.450000	29.560000	0.000000	0.000000	121.000000	55.000000	-20.000000	13.000000
0.470000	16.450000	29.620000	0.000000	0.000000	123.000000	55.000000	0.000000	6.000000
0.480000	16.620000	29.690000	0.000000	0.000000	123.000000	55.000000	17.000000	7.000000
0.490000	16.740000	29.750000	0.000000	0.000000	123.000000	55.000000	12.000000	6.000000
0.500000	16.880000	29.800000	0.000000	0.000000	123.000000	55.000000	14.000000	5.000000
0.510000	16.960000	29.800000	0.000000	0.000000	123.000000	55.000000	8.000000	0.000000
0.520000	16.960000	29.800000	0.000000	0.000000	124.000000	54.000000	0.000000	0.000000
0.530000	16.960000	29.800000	0.000000	0.000000	124.000000	54.000000	0.000000	0.000000
0.540000	16.960000	29.800000	55.000000	1.000000	124.000000	54.000000	0.000000	0.000000
0.550000	16.960000	29.800000	142.000000	0.000000	124.000000	54.000000	0.000000	0.000000
0.560000	16.960000	29.800000	161.000000	0.000000	124.000000	54.000000	0.000000	0.000000
0.570000	16.960000	29.800000	196.000000	0.000000	124.000000	54.000000	0.000000	0.000000
0.580000	16.960000	29.800000	250.000000	0.000000	124.000000	54.000000	0.000000	0.000000
0.590000	16.960000	29.800000	329.000000	0.000000	125.000000	55.000000	0.000000	0.000000
0.600000	16.960000	29.800000	407.000000	0.000000	125.000000	55.000000	0.000000	0.000000
0.610000	16.960000	29.800000	469.000000	0.000000	125.000000	55.000000	0.000000	0.000000
0.620000	16.960000	29.800000	507.000000	0.000000	125.000000	55.000000	0.000000	0.000000
0.630000	16.960000	29.800000	529.000000	0.000000	125.000000	55.000000	0.000000	0.000000
0.640000	16.960000	29.800000	550.000000	0.000000	125.000000	55.000000	0.000000	0.000000
0.650000	17.230000	29.590000	561.000000	0.000000	126.000000	54.000000	27.000000	-21.000000
0.660000	17.300000	29.150000	592.000000	0.000000	126.000000	54.000000	7.000000	-44.000000
0.670000	17.370000	28.540000	586.000000	0.000000	125.000000	55.000000	7.000000	-61.000000
0.680000	17.450000	27.790000	605.000000	0.000000	126.000000	56.000000	8.000000	-75.000000
0.690000	17.520000	26.940000	627.000000	0.000000	126.000000	56.000000	7.000000	-85.000000
0.700000	17.520000	26.020000	647.000000	0.000000	125.000000	56.000000	0.000000	-92.000000
0.710000	17.570000	25.230000	661.000000	0.000000	124.000000	57.000000	5.000000	-79.000000
0.720000	17.570000	24.410000	673.000000	0.000000	124.000000	58.000000	0.000000	-82.000000
0.730000	17.650000	23.760000	670.000000	0.000000	124.000000	58.000000	8.000000	-65.000000
0.740000	17.710000	23.240000	676.000000	0.000000	124.000000	60.000000	6.000000	-52.000000
0.750000	17.790000	22.910000	684.000000	0.000000	124.000000	60.000000	8.000000	-33.000000
0.760000	17.850000	22.810000	682.000000	0.000000	123.000000	61.000000	6.000000	-10.000000
0.770000	17.850000	22.870000	691.000000	0.000000	123.000000	61.000000	0.000000	6.000000
0.780000	17.850000	22.870000	700.000000	0.000000	124.000000	62.000000	0.000000	0.000000
0.790000	17.850000	22.870000	721.000000	0.000000	124.000000	62.000000	0.000000	0.000000
0.800000	17.850000	22.930000	727.000000	0.000000	124.000000	62.000000	0.000000	6.000000
0.810000	17.700000	23.100000	749.000000	0.000000	126.000000	61.000000	-15.000000	17.000000
0.820000	17.520000	23.380000	752.000000	0.000000	126.000000	61.000000	-18.000000	28.000000
0.830000	17.160000	23.710000	754.000000	0.000000	126.000000	61.000000	-36.000000	33.000000
0.840000	16.680000	24.000000	754.000000	0.000000	126.000000	61.000000	-48.000000	29.000000
0.850000	16.030000	24.220000	739.000000	0.000000	124.000000	62.000000	-65.000000	22.000000
0.860000	15.280000	24.420000	730.000000	0.000000	123.000000	61.000000	-75.000000	20.000000
0.870000	14.470000	24.560000	727.000000	0.000000	123.000000	61.000000	-81.000000	14.000000
0.880000	13.740000	24.560000	724.000000	0.000000	123.000000	61.000000	-73.000000	0.000000
0.890000	13.080000	24.560000	720.000000	0.000000	123.000000	61.000000	-66.000000	0.000000
0.900000	12.550000	24.400000	720.000000	0.000000	122.000000	61.000000	-53.000000	-16.000000
0.910000	12.150000	24.260000	733.000000	0.000000	122.000000	61.000000	-40.000000	-14.000000
0.920000	11.840000	24.160000	733.000000	0.000000	122.000000	61.000000	-31.000000	-10.000000
0.930000	11.710000	24.080000	727.000000	0.000000	122.000000	61.000000	-13.000000	-8.000000
0.940000	11.600000	23.990000	721.000000	0.000000	122.000000	61.000000	-11.000000	-9.000000
0.950000	11.600000	23.880000	717.000000	0.000000	122.000000	61.000000	0.000000	-11.000000
0.960000	11.600000	23.510000	716.000000	0.000000	120.000000	60.000000	0.000000	-37.000000
0.970000	11.890000	22.980000	711.000000	0.000000	122.000000	60.000000	29.000000	-53.000000
0.980000	12.250000	22.410000	705.000000	0.000000	122.000000	60.000000	36.000000	-57.000000
0.990000	12.690000	21.810000	703.000000	0.000000	122.000000	60.000000	44.000000	-60.000000
1.000000	13.140000	21.350000	702.000000	0.000000	124.000000	60.000000	45.000000	-46.000000
1.010000	13.610000	20.980000	699.000000	0.000000	125.000000	60.000000	47.000000	-37.000000
1.020000	14.260000	20.780000	699.000000	0.000000	126.000000	60.000000	65.000000	-20.000000
1.030000	15.030000	20.780000	699.000000	0.000000	126.000000	60.000000	77.000000	0.000000
1.040000	15.950000	20.780000	700.000000	0.000000	126.000000	60.000000	92.000000	0.000000
1.050000	16.950000	20.950000	699.000000	0.000000	128.000000	59.000000	100.000000	17.000000
1.060000	17.990000	21.070000	700.000000	0.000000	128.000000	59.000000	104.000000	12.000000
1.070000	18.920000	21.160000	699.000000	0.000000	128.000000	59.000000	93.000000	9.000000
1.080000	19.870000	21.240000	700.000000	0.000000	128.000000	59.000000	95.000000	8.000000
1.090000	20.870000	21.430000	697.000000	0.000000	127.000000	59.000000	100.000000	19.000000
1.100000	21.670000	21.700000	690.000000	0.000000	125.000000	59.000000	80.000000	27.000000
1.110000	22.330000	21.980000	699.000000	0.000000	125.000000	59.000000	66.000000	28.000000
1.120000	22.600000	22.300000	699.000000	0.000000	124.000000	58.000000	27.000000	32.000000
1.130000	22.600000	22.650000	696.000000	0.000000	124.000000	58.000000	0.000000	35.000000
1.140000	22.360000	23.000000	676.000000	0.000000	124.000000	58.000000	-24.000000	35.000000
1.150000	21.770000	23.320000	650.000000	0.000000	123.000000	59.000000	-59.000000	32.000000
1.160000	20.870000	23.570000	589.000000	0.000000	123.000000	59.000000	-90.000000	25.000000
1.170000	19.760000	23.780000	540.000000	0.000000	124.000000	60.000000	-111.000000	21.000000
1.180000	18.740000	23.780000	512.000000	0.000000	124.000000	60.000000	-102.000000	0.000000
1.190000	17.810000	23.780000	448.000000	0.000000	124.000000	60.000000	-93.000000	0.000000
1.200000	16.950000	23.510000	448.000000	0.000000	124.000000	60.000000	-86.000000	-27.000000
1.210000	15.960000	23.230000	449.000000	0.000000	125.000000	60.000000	-99.000000	-28.000000
1.220000	15.010000	22.900000	440.000000	0.000000	125.000000	60.000000	-95.000000	-33.000000
1.230000	14.110000	22.600000	452.000000	0.000000	125.000000	60.000000	-90.000000	-30.000000
1.240000	13.230000	22.320000	460.000000	0.000000	125.000000	60.000000	-88.000000	-28.000000
1.250000	12.380000	21.910000	469.000000	0.000000	126.000000	60.000000	-85.000000	-41.000000
1.260000	11.620000	21.350000	481.000000	0.000000	128.000000	61.000000	-76.000000	-56.000000
1.270000	11.110000	20.700000	493.000000	0.000000	129.000000	60.000000	-51.000000	-65.000000
1.280000	10.730000	20.180000	496.000000	0.000000	129.000000	60.000000	-38.000000	-52.000000
1.290000	10.890000	19.730000	504.000000	0.000000	129.000000	60.000000	16.000000	-45.000000
1.300000	11.390000	19.320000	516.000000	0.000000	131.000000	60.000000	50.000000	-41.000000
1.310000	12.110000	19.190000	530.000000	0.000000	131.000000	60.000000	72.000000	-13.000000
1.320000	13.080000	19.240000	538.000000	0.000000	131.000000	60.000000	97.000000	5.000000
1.330000	14.270000	19.420000	542.000000	0.000000	132.000000	59.000000	119.000000	18.000000
1.340000	15.610000	19.640000	560.000000	0.000000	132.000000	59.000000	134.000000	22.000000
1.350000	17.330000	19.840000	592.000000	0.000000	132.000000	59.000000	172.000000	20.000000
1.360000	19.060000	19.980000	594.000000	0.000000	131.000000	60.000000	173.000000	14.000000
1.370000	20.790000	20.110000	597.000000	0.000000	131.000000	60.000000	173.000000	13.000000
1.380000	22.100000	20.200000	602.000000	0.000000	131.000000	60.000000	131.000000	9.000000
1.390000	23.140000	20.200000	600.000000	0.000000	131.000000	60.000000	104.000000	0.000000
1.400000	23.840000	20.260000	602.000000	0.000000	128.000000	59.000000	70.000000	6.000000
1.410000	24.330000	20.260000	592.000000	0.000000	128.000000	59.000000	49.000000	0.000000
1.420000	24.670000	20.260000	570.000000	0.000000	128.000000	59.000000	34.000000	0.000000
1.430000	24.910000	20.360000	533.000000	0.000000	128.000000	59.000000	24.000000	10.000000
1.440000	25.050000	20.470000	486.000000	0.000000	129.000000	60.000000	14.000000	11.000000
1.450000	25.120000	20.570000	465.000000	0.000000	129.000000	60.000000	7.000000	10.000000
1.460000	25.120000	20.770000	351.000000	0.000000	129.000000	60.000000	0.000000	20.000000
1.470000	25.120000	21.030000	76.000000	0.000000	131.000000	61.000000	0.000000	26.000000
1.480000	25.120000	21.030000	0.000000	1.000000	131.000000	61.000000	0.000000	0.000000
1.490000	25.120000	21.480000	0.000000	0.000000	131.000000	61.000000	0.000000	45.000000
1.500000	25.120000	21.480000	0.000000	0.000000	134.000000	61.000000	0.000000	0.000000
1.510000	24.650000	21.950000	0.000000	0.000000	134.000000	61.000000	-47.000000	47.000000
1.520000	24.250000	22.240000	0.000000	0.000000	134.000000	61.000000	-40.000000	29.000000
1.530000	23.760000	22.590000	0.000000	0.000000	134.000000	61.000000	-49.000000	35.000000
1.540000	23.210000	23.000000	0.000000	0.000000	134.000000	61.000000	-55.000000	41.000000
1.550000	22.670000	23.440000	0.000000	0.000000	134.000000	61.000000	-54.000000	44.000000
1.560000	22.180000	23.870000	0.000000	0.000000	134.000000	61.000000	-49.000000	43.000000
1.570000	21.800000	24.090000	0.000000	0.000000	132.000000	60.000000	-38.000000	22.000000
1.580000	21.460000	24.170000	0.000000	0.000000	131.000000	60.000000	-34.000000	8.000000
1.590000	21.050000	24.270000	0.000000	0.000000	129.000000	59.000000	-41.000000	10.000000
1.600000	20.610000	24.420000	0.000000	0.000000	131.000000	58.000000	-44.000000	15.000000
1.610000	20.190000	24.600000	0.000000	0.000000	130.000000	58.000000	-42.000000	18.000000
1.620000	19.710000	24.930000	0.000000	0.000000	128.000000	57.000000	-48.000000	33.000000
1.630000	19.190000	25.290000	0.000000	0.000000	127.000000	56.000000	-52.000000	36.000000
1.640000	18.600000	25.660000	0.000000	0.000000	127.000000	56.000000	-59.000000	37.000000
1.650000	18.010000	25.940000	0.000000	0.000000	126.000000	56.000000	-59.000000	28.000000
1.660000	17.690000	26.040000	0.000000	0.000000	126.000000	56.000000	-32.000000	10.000000
1.670000	17.540000	26.040000	0.000000	0.000000	126.000000	56.000000	-15.000000	0.000000
1.680000	17.540000	25.990000	0.000000	0.000000	125.000000	55.000000	0.000000	-5.000000
1.690000	17.590000	26.050000	0.000000	0.000000	125.000000	55.000000	5.000000	6.000000
1.700000	17.590000	26.160000	0.000000	0.000000	125.000000	56.000000	0.000000	11.000000
1.710000	17.650000	26.380000	0.000000	0.000000	125.000000	56.000000	6.000000	22.000000
1.720000	17.650000	26.630000	0.000000	0.000000	123.000000	56.000000	0.000000	25.000000
1.730000	17.650000	26.900000	0.000000	0.000000	124.000000	57.000000	0.000000	27.000000
1.740000	17.650000	27.130000	0.000000	0.000000	123.000000	58.000000	0.000000	23.000000
1.750000	17.650000	27.130000	0.000000	0.000000	124.000000	58.000000	0.000000	0.000000
1.760000	17.310000	27.220000	0.000000	0.000000	124.000000	58.000000	-34.000000	9.000000
1.770000	17.100000	27.220000	0.000000	0.000000	124.000000	58.000000	-21.000000	0.000000
1.780000	16.840000	27.220000	0.000000	0.000000	124.000000	58.000000	-26.000000	0.000000
1.790000	16.620000	27.220000	0.000000	0.000000	124.000000	58.000000	-22.000000	0.000000
1.800000	16.490000	27.340000	0.000000	0.000000	126.000000	58.000000	-13.000000	12.000000
1.810000	16.410000	27.450000	0.000000	0.000000	124.000000	57.000000	-8.000000	11.000000
1.820000	16.410000	27.450000	65.000000	1.000000	124.000000	57.000000	0.000000	0.000000
1.830000	16.410000	27.450000	93.000000	0.000000	123.000000	56.000000	0.000000	0.000000
1.840000	16.410000	27.450000	172.000000	0.000000	123.000000	56.000000	0.000000	0.000000
1.850000	16.080000	27.650000	265.000000	0.000000	123.000000	56.000000	-33.000000	20.000000
1.860000	15.990000	27.650000	361.000000	0.000000	123.000000	56.000000	-9.000000	0.000000
1.870000	15.910000	27.550000	446.000000	0.000000	124.000000	57.000000	-8.000000	-10.000000
1.880000	15.840000	27.490000	519.000000	0.000000	126.000000	58.000000	-7.000000	-6.000000
1.890000	15.840000	27.490000	559.000000	0.000000	125.000000	59.000000	0.000000	0.000000
1.900000	15.840000	27.490000	585.000000	0.000000	126.000000	60.000000	0.000000	0.000000
1.910000	16.030000	27.490000	646.000000	0.000000	128.000000	61.000000	19.000000	0.000000
1.920000	16.370000	27.490000	731.000000	0.000000	128.000000	61.000000	34.000000	0.000000
1.930000	17.090000	27.630000	760.000000	0.000000	128.000000	61.000000	72.000000	14.000000
1.940000	18.000000	27.860000	788.000000	0.000000	126.000000	60.000000	91.000000	23.000000
1.950000	19.030000	28.100000	812.000000	0.000000	127.000000	59.000000	103.000000	24.000000
1.960000	20.260000	28.330000	824.000000	0.000000	127.000000	59.000000	123.000000	23.000000
1.970000	21.520000	28.480000	821.000000	0.000000	127.000000	57.000000	126.000000	15.000000
1.980000	22.510000	28.530000	822.000000	0.000000	126.000000	57.000000	99.000000	5.000000
1.990000	23.310000	28.460000	818.000000	0.000000	126.000000	57.000000	80.000000	-7.000000
2.000000	23.680000	28.390000	821.000000	0.000000	126.000000	56.000000	37.000000	-7.000000
2.010000	23.840000	28.340000	800.000000	0.000000	126.000000	56.000000	16.000000	-5.000000
2.020000	23.840000	28.340000	725.000000	0.000000	126.000000	56.000000	0.000000	0.000000
2.030000	23.780000	28.340000	458.000000	0.000000	126.000000	56.000000	-6.000000	0.000000
2.040000	23.780000	28.340000	0.000000	1.000000	126.000000	56.000000	0.000000	0.000000
2.050000	23.140000	28.440000	0.000000	0.000000	126.000000	56.000000	-64.000000	10.000000
2.060000	23.140000	28.310000	0.000000	0.000000	126.000000	56.000000	0.000000	-13.000000
2.070000	22.530000	28.060000	0.000000	0.000000	126.000000	56.000000	-61.000000	-25.000000
2.080000	21.520000	27.680000	0.000000	0.000000	125.000000	56.000000	-101.000000	-38.000000
2.090000	20.840000	27.260000	0.000000	0.000000	125.000000	56.000000	-68.000000	-42.000000
2.100000	20.190000	26.790000	0.000000	0.000000	125.000000	56.000000	-65.000000	-47.000000
2.110000	19.600000	26.420000	0.000000	0.000000	125.000000	56.000000	-59.000000	-37.000000
2.120000	19.060000	26.100000	0.000000	0.000000	123.000000	56.000000	-54.000000	-32.000000
2.130000	18.600000	25.960000	0.000000	0.000000	123.000000	56.000000	-46.000000	-14.000000
2.140000	18.170000	25.850000	0.000000	0.000000	124.000000	57.000000	-43.000000	-11.000000
2.150000	17.710000	25.770000	0.000000	0.000000	124.000000	57.000000	-46.000000	-8.000000
2.160000	17.240000	25.590000	0.000000	0.000000	124.000000	57.000000	-47.000000	-18.000000
2.170000	16.990000	25.400000	0.000000	0.000000	123.000000	58.000000	-25.000000	-19.000000
2.180000	16.990000	25.400000	139.000000	1.000000	123.000000	58.000000	0.000000	0.000000
2.190000	16.800000	25.030000	207.000000	0.000000	124.000000	58.000000	-19.000000	-37.000000
2.200000	16.800000	24.870000	301.000000	0.000000	123.000000	59.000000	0.000000	-16.000000
2.210000	16.850000	24.740000	396.000000	0.000000	123.000000	59.000000	5.000000	-13.000000
2.220000	17.000000	24.650000	440.000000	0.000000	123.000000	59.000000	15.000000	-9.000000
