t	x	y	pressure	penup	azimuth	inclination	v_x	v_y
0.000000	57.190000	88.400000	53.000000	1.000000	118.000000	62.000000	0.000000	0.000000
0.010000	57.300000	87.980000	91.000000	0.000000	118.000000	62.000000	11.000000	-42.000000
0.020000	57.240000	87.100000	193.000000	0.000000	118.000000	62.000000	-6.000000	-88.000000
0.030000	57.100000	85.400000	274.000000	0.000000	118.000000	62.000000	-14.000000	-170.000000
0.040000	56.890000	83.620000	366.000000	0.000000	118.000000	62.000000	-21.000000	-178.000000
0.050000	56.630000	81.800000	470.000000	0.000000	118.000000	62.000000	-26.000000	-182.000000
0.060000	56.300000	80.190000	499.000000	0.000000	116.000000	63.000000	-33.000000	-161.000000
0.070000	55.980000	79.030000	526.000000	0.000000	116.000000	63.000000	-32.000000	-116.000000
0.080000	55.860000	78.160000	532.000000	0.000000	116.000000	63.000000	-12.000000	-87.000000
0.090000	55.860000	77.740000	522.000000	0.000000	115.000000	63.000000	0.000000	-42.000000
0.100000	56.070000	77.570000	485.000000	0.000000	113.000000	63.000000	21.000000	-17.000000
0.110000	56.250000	77.570000	470.000000	0.000000	112.000000	62.000000	18.000000	0.000000
0.120000	56.410000	77.740000	453.000000	0.000000	110.000000	63.000000	16.000000	17.000000
0.130000	56.560000	78.240000	450.000000	0.000000	110.000000	63.000000	15.000000	50.000000
0.140000	56.730000	78.960000	443.000000	0.000000	110.000000	63.000000	17.000000	72.000000
0.150000	56.730000	79.900000	435.000000	0.000000	111.000000	64.000000	0.000000	94.000000
0.160000	56.730000	80.820000	433.000000	0.000000	111.000000	64.000000	0.000000	92.000000
0.170000	56.490000	81.720000	435.000000	0.000000	113.000000	63.000000	-24.000000	90.000000
0.180000	56.200000	82.450000	444.000000	0.000000	115.000000	63.000000	-29.000000	73.000000
0.190000	55.850000	82.940000	440.000000	0.000000	116.000000	63.000000	-35.000000	49.000000
0.200000	54.950000	83.280000	453.000000	0.000000	116.000000	63.000000	-90.000000	34.000000
0.210000	54.060000	83.460000	461.000000	0.000000	118.000000	62.000000	-89.000000	18.000000
0.220000	53.140000	83.460000	472.000000	0.000000	117.000000	61.000000	-92.000000	0.000000
0.230000	52.070000	83.260000	496.000000	0.000000	119.000000	61.000000	-107.000000	-20.000000
0.240000	50.940000	82.930000	489.000000	0.000000	119.000000	61.000000	-113.000000	-33.000000
0.250000	49.950000	82.560000	546.000000	0.000000	118.000000	60.000000	-99.000000	-37.000000
0.260000	48.990000	82.070000	563.000000	0.000000	118.000000	60.000000	-96.000000	-49.000000
0.270000	48.410000	81.530000	567.000000	0.000000	119.000000	61.000000	-58.000000	-54.000000
0.280000	48.060000	81.260000	564.000000	0.000000	119.000000	61.000000	-35.000000	-27.000000
0.290000	48.220000	81.060000	563.000000	0.000000	119.000000	61.000000	16.000000	-20.000000
0.300000	49.110000	80.920000	561.000000	0.000000	119.000000	61.000000	89.000000	-14.000000
0.310000	50.480000	80.920000	570.000000	0.000000	119.000000	61.000000	137.000000	0.000000
0.320000	52.600000	81.260000	568.000000	0.000000	119.000000	61.000000	212.000000	34.000000
0.330000	55.180000	81.830000	567.000000	0.000000	119.000000	61.000000	258.000000	57.000000
0.340000	58.060000	82.390000	581.000000	0.000000	120.000000	62.000000	288.000000	56.000000
0.350000	61.350000	83.040000	591.000000	0.000000	120.000000	62.000000	329.000000	65.000000
0.360000	64.820000	83.750000	592.000000	0.000000	120.000000	62.000000	347.000000	71.000000
0.370000	68.420000	84.560000	592.000000	0.000000	120.000000	62.000000	360.000000	81.000000
0.380000	71.560000	85.360000	599.000000	0.000000	120.000000	62.000000	314.000000	80.000000
0.390000	74.180000	85.910000	603.000000	0.000000	119.000000	63.000000	262.000000	55.000000
0.400000	76.450000	86.290000	603.000000	0.000000	119.000000	63.000000	227.000000	38.000000
0.410000	78.010000	86.500000	592.000000	0.000000	119.000000	63.000000	156.000000	21.000000
0.420000	78.950000	86.590000	554.000000	0.000000	117.000000	63.000000	94.000000	9.000000
0.430000	79.480000	86.590000	515.000000	0.000000	116.000000	64.000000	53.000000	0.000000
0.440000	79.430000	86.590000	496.000000	0.000000	116.000000	64.000000	-5.000000	0.000000
0.450000	79.190000	86.540000	363.000000	0.000000	114.000000	64.000000	-24.000000	-5.000000
0.460000	78.810000	86.490000	161.000000	0.000000	114.000000	64.000000	-38.000000	-5.000000
0.470000	78.810000	86.490000	0.000000	1.000000	114.000000	64.000000	0.000000	0.000000
0.480000	77.480000	86.200000	0.000000	0.000000	114.000000	64.000000	-133.000000	-29.000000
0.490000	76.560000	86.000000	0.000000	0.000000	114.000000	64.000000	-92.000000	-20.000000
0.500000	75.600000	85.930000	0.000000	0.000000	114.000000	64.000000	-96.000000	-7.000000
0.510000	74.310000	85.830000	0.000000	0.000000	116.000000	64.000000	-129.000000	-10.000000
0.520000	72.800000	85.650000	0.000000	0.000000	116.000000	64.000000	-151.000000	-18.000000
0.530000	71.430000	85.490000	0.000000	0.000000	116.000000	63.000000	-137.000000	-16.000000
0.540000	69.780000	85.360000	0.000000	0.000000	116.000000	63.000000	-165.000000	-13.000000
0.550000	67.930000	85.360000	0.000000	0.000000	117.000000	61.000000	-185.000000	0.000000
0.560000	66.500000	85.360000	0.000000	0.000000	119.000000	61.000000	-143.000000	0.000000
0.570000	65.120000	85.310000	0.000000	0.000000	118.000000	60.000000	-138.000000	-5.000000
0.580000	63.930000	85.250000	0.000000	0.000000	118.000000	59.000000	-119.000000	-6.000000
0.590000	62.840000	85.200000	0.000000	0.000000	117.000000	58.000000	-109.000000	-5.000000
0.600000	61.780000	85.140000	0.000000	0.000000	118.000000	57.000000	-106.000000	-6.000000
0.610000	60.750000	85.080000	0.000000	0.000000	117.000000	56.000000	-103.000000	-6.000000
0.620000	59.730000	84.870000	0.000000	0.000000	116.000000	56.000000	-102.000000	-21.000000
0.630000	58.970000	84.710000	0.000000	0.000000	115.000000	55.000000	-76.000000	-16.000000
0.640000	58.570000	84.590000	0.000000	0.000000	114.000000	55.000000	-40.000000	-12.000000
0.650000	58.410000	84.590000	0.000000	0.000000	112.000000	54.000000	-16.000000	0.000000
0.660000	58.410000	84.540000	0.000000	0.000000	112.000000	54.000000	0.000000	-5.000000
0.670000	58.300000	84.490000	0.000000	0.000000	110.000000	54.000000	-11.000000	-5.000000
0.680000	58.130000	84.260000	0.000000	0.000000	110.000000	54.000000	-17.000000	-23.000000
0.690000	58.130000	84.050000	0.000000	0.000000	109.000000	55.000000	0.000000	-21.000000
0.700000	58.210000	83.860000	0.000000	0.000000	110.000000	55.000000	8.000000	-19.000000
0.710000	58.290000	83.860000	0.000000	0.000000	110.000000	56.000000	8.000000	0.000000
0.720000	58.360000	83.630000	0.000000	0.000000	111.000000	57.000000	7.000000	-23.000000
0.730000	58.360000	83.300000	0.000000	0.000000	112.000000	58.000000	0.000000	-33.000000
0.740000	58.360000	83.020000	0.000000	0.000000	113.000000	59.000000	0.000000	-28.000000
0.750000	58.360000	82.820000	0.000000	0.000000	113.000000	59.000000	0.000000	-20.000000
0.760000	58.450000	82.670000	0.000000	0.000000	113.000000	60.000000	9.000000	-15.000000
0.770000	58.600000	82.670000	0.000000	0.000000	114.000000	61.000000	15.000000	0.000000
0.780000	58.700000	82.740000	0.000000	0.000000	114.000000	61.000000	10.000000	7.000000
0.790000	58.700000	82.860000	0.000000	0.000000	115.000000	62.000000	0.000000	12.000000
0.800000	58.820000	83.000000	0.000000	0.000000	115.000000	62.000000	12.000000	14.000000
0.810000	58.870000	83.130000	0.000000	0.000000	115.000000	62.000000	5.000000	13.000000
0.820000	58.870000	83.220000	0.000000	0.000000	115.000000	62.000000	0.000000	9.000000
0.830000	58.870000	83.270000	0.000000	0.000000	115.000000	62.000000	0.000000	5.000000
0.840000	58.930000	83.380000	0.000000	0.000000	115.000000	62.000000	6.000000	11.000000
0.850000	59.010000	83.540000	0.000000	0.000000	115.000000	62.000000	8.000000	16.000000
0.860000	59.080000	83.610000	0.000000	0.000000	115.000000	62.000000	7.000000	7.000000
0.870000	59.130000	83.680000	0.000000	0.000000	115.000000	62.000000	5.000000	7.000000
0.880000	59.130000	83.680000	0.000000	0.000000	115.000000	62.000000	0.000000	0.000000
0.890000	59.130000	83.680000	0.000000	0.000000	116.000000	63.000000	0.000000	0.000000
0.900000	59.060000	83.680000	0.000000	0.000000	116.000000	63.000000	-7.000000	0.000000
0.910000	58.980000	83.680000	0.000000	0.000000	116.000000	63.000000	-8.000000	0.000000
0.920000	58.980000	83.680000	0.000000	0.000000	116.000000	63.000000	0.000000	0.000000
0.930000	58.980000	83.600000	0.000000	0.000000	116.000000	63.000000	0.000000	-8.000000
0.940000	58.980000	83.600000	0.000000	0.000000	116.000000	63.000000	0.000000	0.000000
0.950000	58.980000	83.600000	0.000000	0.000000	116.000000	63.000000	0.000000	0.000000
0.960000	58.980000	83.600000	0.000000	0.000000	116.000000	63.000000	0.000000	0.000000
0.970000	58.980000	83.600000	0.000000	0.000000	116.000000	63.000000	0.000000	0.000000
0.980000	58.980000	83.600000	0.000000	0.000000	116.000000	63.000000	0.000000	0.000000
0.990000	58.980000	83.600000	0.000000	0.000000	116.000000	63.000000	0.000000	0.000000
1.000000	58.980000	83.600000	0.000000	0.000000	116.000000	63.000000	0.000000	0.000000
1.010000	58.980000	83.600000	0.000000	0.000000	116.000000	63.000000	0.000000	0.000000
1.020000	58.980000	83.600000	0.000000	0.000000	115.000000	62.000000	0.000000	0.000000
1.030000	58.980000	83.600000	0.000000	0.000000	115.000000	62.000000	0.000000	0.000000
1.040000	58.980000	83.600000	0.000000	0.000000	115.000000	62.000000	0.000000	0.000000
1.050000	58.730000	83.770000	0.000000	0.000000	115.000000	62.000000	-25.000000	17.000000
1.060000	58.650000	83.680000	0.000000	0.000000	115.000000	62.000000	-8.000000	-9.000000
1.070000	58.560000	83.560000	0.000000	0.000000	115.000000	62.000000	-9.000000	-12.000000
1.080000	58.440000	83.420000	0.000000	0.000000	115.000000	62.000000	-12.000000	-14.000000
1.090000	58.290000	83.280000	0.000000	0.000000	115.000000	62.000000	-15.000000	-14.000000
1.100000	58.290000	83.280000	335.000000	1.000000	115.000000	62.000000	0.000000	0.000000
1.110000	57.950000	83.040000	397.000000	0.000000	115.000000	62.000000	-34.000000	-24.000000
1.120000	57.950000	82.990000	499.000000	0.000000	114.000000	61.000000	0.000000	-5.000000
1.130000	58.120000	82.990000	543.000000	0.000000	114.000000	61.000000	17.000000	0.000000
1.140000	58.360000	82.990000	568.000000	0.000000	115.000000	62.000000	24.000000	0.000000
1.150000	58.620000	83.040000	561.000000	0.000000	115.000000	62.000000	26.000000	5.000000
1.160000	58.890000	83.200000	567.000000	0.000000	115.000000	62.000000	27.000000	16.000000
1.170000	59.180000	83.450000	546.000000	0.000000	116.000000	63.000000	29.000000	25.000000
1.180000	59.410000	83.740000	501.000000	0.000000	116.000000	63.000000	23.000000	29.000000
1.190000	59.610000	84.070000	465.000000	0.000000	116.000000	63.000000	20.000000	33.000000
1.200000	59.670000	84.360000	463.000000	0.000000	117.000000	63.000000	6.000000	29.000000
1.210000	59.670000	84.620000	463.000000	0.000000	117.000000	63.000000	0.000000	26.000000
1.220000	59.590000	84.840000	498.000000	0.000000	117.000000	63.000000	-8.000000	22.000000
1.230000	59.440000	84.910000	515.000000	0.000000	117.000000	63.000000	-15.000000	7.000000
1.240000	59.290000	84.910000	567.000000	0.000000	117.000000	63.000000	-15.000000	0.000000
1.250000	59.050000	84.600000	585.000000	0.000000	117.000000	63.000000	-24.000000	-31.000000
1.260000	58.750000	84.300000	622.000000	0.000000	117.000000	63.000000	-30.000000	-30.000000
1.270000	58.540000	84.000000	647.000000	0.000000	117.000000	63.000000	-21.000000	-30.000000
1.280000	58.350000	83.590000	655.000000	0.000000	116.000000	63.000000	-19.000000	-41.000000
1.290000	58.350000	83.250000	652.000000	0.000000	116.000000	63.000000	0.000000	-34.000000
1.300000	58.420000	82.990000	650.000000	0.000000	116.000000	63.000000	7.000000	-26.000000
1.310000	58.580000	82.770000	652.000000	0.000000	116.000000	63.000000	16.000000	-22.000000
1.320000	58.750000	82.650000	646.000000	0.000000	116.000000	63.000000	17.000000	-12.000000
1.330000	58.940000	82.650000	589.000000	0.000000	116.000000	63.000000	19.000000	0.000000
1.340000	59.150000	82.650000	509.000000	0.000000	116.000000	63.000000	21.000000	0.000000
1.350000	59.370000	82.820000	190.000000	0.000000	116.000000	63.000000	22.000000	17.000000
1.360000	59.370000	82.820000	0.000000	1.000000	117.000000	63.000000	0.000000	0.000000
1.370000	59.950000	83.370000	0.000000	0.000000	117.000000	63.000000	58.000000	55.000000
1.380000	60.260000	83.600000	0.000000	0.000000	117.000000	63.000000	31.000000	23.000000
1.390000	60.500000	83.710000	0.000000	0.000000	117.000000	63.000000	24.000000	11.000000
1.400000	60.720000	83.710000	0.000000	0.000000	117.000000	63.000000	22.000000	0.000000
1.410000	60.980000	83.850000	0.000000	0.000000	117.000000	63.000000	26.000000	14.000000
1.420000	61.170000	83.960000	0.000000	0.000000	116.000000	63.000000	19.000000	11.000000
1.430000	61.310000	84.050000	0.000000	0.000000	116.000000	63.000000	14.000000	9.000000
1.440000	61.380000	84.210000	0.000000	0.000000	116.000000	63.000000	7.000000	16.000000
1.450000	61.460000	84.430000	0.000000	0.000000	115.000000	62.000000	8.000000	22.000000
1.460000	61.540000	84.660000	0.000000	0.000000	115.000000	62.000000	8.000000	23.000000
1.470000	61.540000	84.880000	0.000000	0.000000	115.000000	62.000000	0.000000	22.000000
1.480000	61.540000	85.070000	0.000000	0.000000	114.000000	61.000000	0.000000	19.000000
1.490000	61.440000	85.250000	0.000000	0.000000	114.000000	61.000000	-10.000000	18.000000
1.500000	61.360000	85.430000	0.000000	0.000000	114.000000	61.000000	-8.000000	18.000000
1.510000	61.290000	85.620000	0.000000	0.000000	114.000000	61.000000	-7.000000	19.000000
1.520000	61.220000	85.850000	0.000000	0.000000	114.000000	61.000000	-7.000000	23.000000
1.530000	61.290000	86.120000	0.000000	0.000000	114.000000	61.000000	7.000000	27.000000
1.540000	61.380000	86.470000	0.000000	0.000000	114.000000	61.000000	9.000000	35.000000
1.550000	61.490000	86.790000	0.000000	0.000000	113.000000	61.000000	11.000000	32.000000
1.560000	61.570000	86.950000	0.000000	0.000000	113.000000	61.000000	8.000000	16.000000
1.570000	61.570000	87.020000	0.000000	0.000000	113.000000	61.000000	0.000000	7.000000
1.580000	61.570000	86.960000	0.000000	0.000000	113.000000	61.000000	0.000000	-6.000000
1.590000	61.570000	86.960000	307.000000	1.000000	111.000000	61.000000	0.000000	0.000000
1.600000	61.280000	86.700000	413.000000	0.000000	111.000000	61.000000	-29.000000	-26.000000
1.610000	61.060000	86.470000	474.000000	0.000000	111.000000	61.000000	-22.000000	-23.000000
1.620000	60.950000	86.110000	565.000000	0.000000	112.000000	62.000000	-11.000000	-36.000000
1.630000	60.830000	85.680000	617.000000	0.000000	112.000000	62.000000	-12.000000	-43.000000
1.640000	60.720000	85.040000	636.000000	0.000000	112.000000	62.000000	-11.000000	-64.000000
1.650000	60.610000	84.390000	645.000000	0.000000	112.000000	62.000000	-11.000000	-65.000000
1.660000	60.540000	83.930000	647.000000	0.000000	112.000000	62.000000	-7.000000	-46.000000
1.670000	60.640000	83.590000	630.000000	0.000000	112.000000	62.000000	10.000000	-34.000000
1.680000	60.860000	83.300000	592.000000	0.000000	112.000000	62.000000	22.000000	-29.000000
1.690000	61.090000	83.170000	550.000000	0.000000	112.000000	62.000000	23.000000	-13.000000
1.700000	61.290000	83.170000	516.000000	0.000000	112.000000	62.000000	20.000000	0.000000
1.710000	61.480000	83.270000	430.000000	0.000000	112.000000	62.000000	19.000000	10.000000
1.720000	61.680000	83.520000	371.000000	0.000000	112.000000	62.000000	20.000000	25.000000
1.730000	61.850000	83.870000	324.000000	0.000000	112.000000	62.000000	17.000000	35.000000
1.740000	61.960000	84.140000	315.000000	0.000000	112.000000	62.000000	11.000000	27.000000
1.750000	62.030000	84.390000	356.000000	0.000000	112.000000	62.000000	7.000000	25.000000
1.760000	62.030000	84.390000	447.000000	0.000000	112.000000	62.000000	0.000000	0.000000
1.770000	62.120000	84.330000	542.000000	0.000000	112.000000	62.000000	9.000000	-6.000000
1.780000	62.170000	84.130000	655.000000	0.000000	112.000000	62.000000	5.000000	-20.000000
1.790000	62.260000	83.950000	703.000000	0.000000	112.000000	62.000000	9.000000	-18.000000
1.800000	62.360000	83.790000	733.000000	0.000000	112.000000	62.000000	10.000000	-16.000000
1.810000	62.430000	83.660000	721.000000	0.000000	112.000000	62.000000	7.000000	-13.000000
1.820000	62.480000	83.520000	663.000000	0.000000	112.000000	62.000000	5.000000	-14.000000
1.830000	62.610000	83.470000	439.000000	0.000000	112.000000	62.000000	13.000000	-5.000000
1.840000	62.610000	83.470000	0.000000	1.000000	113.000000	63.000000	0.000000	0.000000
1.850000	63.130000	83.640000	0.000000	0.000000	113.000000	63.000000	52.000000	17.000000
1.860000	63.310000	83.780000	0.000000	0.000000	113.000000	63.000000	18.000000	14.000000
1.870000	63.380000	83.910000	0.000000	0.000000	113.000000	63.000000	7.000000	13.000000
1.880000	63.380000	84.040000	0.000000	0.000000	113.000000	63.000000	0.000000	13.000000
1.890000	63.380000	84.240000	0.000000	0.000000	112.000000	62.000000	0.000000	20.000000
1.900000	63.330000	84.490000	0.000000	0.000000	112.000000	62.000000	-5.000000	25.000000
1.910000	63.270000	84.700000	0.000000	0.000000	112.000000	62.000000	-6.000000	21.000000
1.920000	63.210000	84.950000	0.000000	0.000000	113.000000	61.000000	-6.000000	25.000000
1.930000	63.100000	85.220000	0.000000	0.000000	113.000000	61.000000	-11.000000	27.000000
1.940000	62.950000	85.490000	0.000000	0.000000	113.000000	61.000000	-15.000000	27.000000
1.950000	62.950000	85.490000	259.000000	1.000000	112.000000	60.000000	0.000000	0.000000
1.960000	62.510000	85.760000	342.000000	0.000000	110.000000	60.000000	-44.000000	27.000000
1.970000	62.230000	85.760000	254.000000	0.000000	111.000000	61.000000	-28.000000	0.000000
1.980000	62.230000	85.810000	15.000000	0.000000	111.000000	61.000000	0.000000	5.000000
1.990000	62.230000	85.810000	0.000000	1.000000	111.000000	61.000000	0.000000	0.000000
2.000000	62.600000	85.810000	0.000000	0.000000	112.000000	62.000000	37.000000	0.000000
2.010000	62.930000	85.540000	0.000000	0.000000	112.000000	62.000000	33.000000	-27.000000
2.020000	63.300000	85.180000	0.000000	0.000000	112.000000	62.000000	37.000000	-36.000000
2.030000	63.690000	84.780000	0.000000	0.000000	112.000000	62.000000	39.000000	-40.000000
2.040000	63.910000	84.360000	0.000000	0.000000	112.000000	62.000000	22.000000	-42.000000
2.050000	64.000000	83.860000	0.000000	0.000000	112.000000	62.000000	9.000000	-50.000000
2.060000	64.000000	83.240000	0.000000	0.000000	112.000000	62.000000	0.000000	-62.000000
2.070000	64.000000	83.240000	337.000000	1.000000	112.000000	62.000000	0.000000	0.000000
2.080000	64.090000	82.090000	536.000000	0.000000	112.000000	62.000000	9.000000	-115.000000
2.090000	64.030000	81.690000	684.000000	0.000000	112.000000	62.000000	-6.000000	-40.000000
2.100000	64.030000	81.440000	785.000000	0.000000	111.000000	64.000000	0.000000	-25.000000
2.110000	64.120000	81.320000	817.000000	0.000000	111.000000	64.000000	9.000000	-12.000000
2.120000	64.120000	81.320000	819.000000	0.000000	111.000000	64.000000	0.000000	0.000000
2.130000	64.120000	81.320000	824.000000	0.000000	111.000000	64.000000	0.000000	0.000000
2.140000	64.070000	81.540000	785.000000	0.000000	111.000000	64.000000	-5.000000	22.000000
2.150000	64.070000	81.940000	736.000000	0.000000	111.000000	64.000000	0.000000	40.000000
2.160000	64.070000	82.490000	693.000000	0.000000	111.000000	64.000000	0.000000	55.000000
2.170000	64.070000	83.150000	653.000000	0.000000	111.000000	64.000000	0.000000	66.000000
2.180000	64.070000	83.880000	634.000000	0.000000	111.000000	64.000000	0.000000	73.000000
2.190000	64.070000	84.500000	619.000000	0.000000	111.000000	64.000000	0.000000	62.000000
2.200000	64.310000	84.930000	609.000000	0.000000	113.000000	63.000000	24.000000	43.000000
2.210000	64.540000	85.240000	595.000000	0.000000	113.000000	63.000000	23.000000	31.000000
2.220000	64.780000	85.310000	589.000000	0.000000	113.000000	63.000000	24.000000	7.000000
