t	x	y	pressure	penup	azimuth	inclination	v_x	v_y
0.000000	21.040000	11.800000	125.000000	1.000000	170.000000	40.000000	0.000000	0.000000
0.010000	20.400000	12.600000	181.000000	0.000000	170.000000	41.000000	-64.000000	80.000000
0.020000	20.190000	12.760000	210.000000	0.000000	169.000000	41.000000	-21.000000	16.000000
0.030000	20.100000	12.580000	221.000000	0.000000	169.000000	42.000000	-9.000000	-18.000000
0.040000	20.100000	12.030000	279.000000	0.000000	169.000000	42.000000	0.000000	-55.000000
0.050000	20.340000	11.230000	327.000000	0.000000	168.000000	43.000000	24.000000	-80.000000
0.060000	20.730000	10.610000	379.000000	0.000000	168.000000	43.000000	39.000000	-62.000000
0.070000	21.280000	10.030000	423.000000	0.000000	168.000000	44.000000	55.000000	-58.000000
0.080000	21.830000	9.490000	450.000000	0.000000	168.000000	44.000000	55.000000	-54.000000
0.090000	22.350000	9.010000	474.000000	0.000000	168.000000	44.000000	52.000000	-48.000000
0.100000	22.780000	8.640000	480.000000	0.000000	168.000000	45.000000	43.000000	-37.000000
0.110000	23.160000	8.350000	496.000000	0.000000	168.000000	45.000000	38.000000	-29.000000
0.120000	23.390000	8.240000	504.000000	0.000000	168.000000	45.000000	23.000000	-11.000000
0.130000	23.510000	8.240000	536.000000	0.000000	168.000000	45.000000	12.000000	0.000000
0.140000	23.510000	8.240000	564.000000	0.000000	168.000000	45.000000	0.000000	0.000000
0.150000	23.510000	8.380000	561.000000	0.000000	168.000000	45.000000	0.000000	14.000000
0.160000	23.000000	8.630000	554.000000	0.000000	168.000000	45.000000	-51.000000	25.000000
0.170000	22.170000	8.970000	554.000000	0.000000	169.000000	45.000000	-83.000000	34.000000
0.180000	20.760000	9.110000	543.000000	0.000000	169.000000	45.000000	-141.000000	14.000000
0.190000	19.000000	9.220000	526.000000	0.000000	169.000000	45.000000	-176.000000	11.000000
0.200000	17.010000	9.120000	526.000000	0.000000	171.000000	45.000000	-199.000000	-10.000000
0.210000	15.250000	8.900000	541.000000	0.000000	172.000000	45.000000	-176.000000	-22.000000
0.220000	14.420000	8.790000	533.000000	0.000000	175.000000	44.000000	-83.000000	-11.000000
0.230000	14.220000	8.680000	535.000000	0.000000	177.000000	43.000000	-20.000000	-11.000000
0.240000	14.620000	8.560000	541.000000	0.000000	180.000000	42.000000	40.000000	-12.000000
0.250000	15.380000	8.360000	540.000000	0.000000	181.000000	41.000000	76.000000	-20.000000
0.260000	16.370000	8.460000	553.000000	0.000000	182.000000	41.000000	99.000000	10.000000
0.270000	18.340000	8.770000	564.000000	0.000000	183.000000	40.000000	197.000000	31.000000
0.280000	20.880000	9.490000	572.000000	0.000000	182.000000	41.000000	254.000000	72.000000
0.290000	23.810000	10.520000	586.000000	0.000000	181.000000	42.000000	293.000000	103.000000
0.300000	26.710000	11.750000	597.000000	0.000000	179.000000	43.000000	290.000000	123.000000
0.310000	29.080000	13.050000	560.000000	0.000000	177.000000	45.000000	237.000000	130.000000
0.320000	31.090000	13.920000	485.000000	0.000000	174.000000	46.000000	201.000000	87.000000
0.330000	32.480000	14.510000	205.000000	0.000000	171.000000	48.000000	139.000000	59.000000
0.340000	32.480000	14.510000	0.000000	1.000000	169.000000	48.000000	0.000000	0.000000
0.350000	33.230000	14.830000	0.000000	0.000000	168.000000	49.000000	75.000000	32.000000
0.360000	32.470000	14.690000	0.000000	0.000000	167.000000	49.000000	-76.000000	-14.000000
0.370000	31.200000	14.490000	0.000000	0.000000	167.000000	49.000000	-127.000000	-20.000000
0.380000	29.580000	14.250000	0.000000	0.000000	166.000000	48.000000	-162.000000	-24.000000
0.390000	27.750000	13.950000	0.000000	0.000000	167.000000	47.000000	-183.000000	-30.000000
0.400000	25.840000	13.620000	0.000000	0.000000	166.000000	46.000000	-191.000000	-33.000000
0.410000	23.870000	13.240000	0.000000	0.000000	167.000000	44.000000	-197.000000	-38.000000
0.420000	22.330000	12.750000	0.000000	0.000000	168.000000	42.000000	-154.000000	-49.000000
0.430000	21.090000	12.220000	0.000000	0.000000	168.000000	40.000000	-124.000000	-53.000000
0.440000	20.050000	11.730000	0.000000	0.000000	168.000000	39.000000	-104.000000	-49.000000
0.450000	19.370000	11.420000	0.000000	0.000000	169.000000	37.000000	-68.000000	-31.000000
0.460000	18.870000	11.200000	0.000000	0.000000	169.000000	35.000000	-50.000000	-22.000000
0.470000	18.480000	11.050000	0.000000	0.000000	169.000000	35.000000	-39.000000	-15.000000
0.480000	18.160000	10.900000	0.000000	0.000000	170.000000	34.000000	-32.000000	-15.000000
0.490000	17.880000	10.770000	0.000000	0.000000	169.000000	34.000000	-28.000000	-13.000000
0.500000	17.700000	10.770000	0.000000	0.000000	169.000000	34.000000	-18.000000	0.000000
0.510000	17.550000	10.720000	0.000000	0.000000	169.000000	34.000000	-15.000000	-5.000000
0.520000	17.430000	10.720000	0.000000	0.000000	169.000000	34.000000	-12.000000	0.000000
0.530000	17.350000	10.800000	0.000000	0.000000	169.000000	34.000000	-8.000000	8.000000
0.540000	17.290000	10.910000	0.000000	0.000000	169.000000	35.000000	-6.000000	11.000000
0.550000	17.290000	10.910000	65.000000	1.000000	169.000000	36.000000	0.000000	0.000000
0.560000	16.990000	11.020000	160.000000	0.000000	168.000000	37.000000	-30.000000	11.000000
0.570000	16.830000	11.070000	285.000000	0.000000	167.000000	38.000000	-16.000000	5.000000
0.580000	16.720000	11.070000	340.000000	0.000000	166.000000	39.000000	-11.000000	0.000000
0.590000	16.820000	11.130000	428.000000	0.000000	165.000000	40.000000	10.000000	6.000000
0.600000	17.050000	11.130000	519.000000	0.000000	165.000000	41.000000	23.000000	0.000000
0.610000	17.800000	11.530000	580.000000	0.000000	163.000000	42.000000	75.000000	40.000000
0.620000	19.170000	12.210000	655.000000	0.000000	163.000000	43.000000	137.000000	68.000000
0.630000	20.950000	13.300000	691.000000	0.000000	162.000000	43.000000	178.000000	109.000000
0.640000	23.260000	14.380000	730.000000	0.000000	162.000000	44.000000	231.000000	108.000000
0.650000	25.380000	15.450000	736.000000	0.000000	162.000000	44.000000	212.000000	107.000000
0.660000	27.370000	16.150000	737.000000	0.000000	162.000000	45.000000	199.000000	70.000000
0.670000	28.560000	16.640000	719.000000	0.000000	162.000000	45.000000	119.000000	49.000000
0.680000	29.450000	17.000000	643.000000	0.000000	163.000000	45.000000	89.000000	36.000000
0.690000	30.130000	17.370000	467.000000	0.000000	163.000000	46.000000	68.000000	37.000000
0.700000	30.420000	17.480000	222.000000	0.000000	162.000000	47.000000	29.000000	11.000000
0.710000	30.420000	17.480000	0.000000	1.000000	162.000000	48.000000	0.000000	0.000000
0.720000	29.680000	17.180000	0.000000	0.000000	161.000000	48.000000	-74.000000	-30.000000
0.730000	28.850000	16.820000	0.000000	0.000000	161.000000	48.000000	-83.000000	-36.000000
0.740000	27.560000	16.370000	0.000000	0.000000	161.000000	48.000000	-129.000000	-45.000000
0.750000	25.960000	15.820000	0.000000	0.000000	162.000000	48.000000	-160.000000	-55.000000
0.760000	24.480000	15.120000	0.000000	0.000000	162.000000	47.000000	-148.000000	-70.000000
0.770000	23.210000	14.330000	0.000000	0.000000	163.000000	46.000000	-127.000000	-79.000000
0.780000	22.070000	13.540000	0.000000	0.000000	164.000000	44.000000	-114.000000	-79.000000
0.790000	21.110000	12.840000	0.000000	0.000000	164.000000	42.000000	-96.000000	-70.000000
0.800000	20.280000	12.210000	0.000000	0.000000	165.000000	41.000000	-83.000000	-63.000000
0.810000	19.530000	11.560000	0.000000	0.000000	166.000000	40.000000	-75.000000	-65.000000
0.820000	18.940000	11.020000	0.000000	0.000000	166.000000	39.000000	-59.000000	-54.000000
0.830000	18.390000	10.560000	0.000000	0.000000	166.000000	39.000000	-55.000000	-46.000000
0.840000	17.880000	10.070000	0.000000	0.000000	167.000000	40.000000	-51.000000	-49.000000
0.850000	17.880000	10.070000	71.000000	1.000000	167.000000	40.000000	0.000000	0.000000
0.860000	17.660000	9.690000	143.000000	0.000000	168.000000	40.000000	-22.000000	-38.000000
0.870000	18.130000	9.820000	240.000000	0.000000	167.000000	41.000000	47.000000	13.000000
0.880000	18.910000	10.090000	371.000000	0.000000	167.000000	42.000000	78.000000	27.000000
0.890000	19.880000	10.450000	448.000000	0.000000	166.000000	43.000000	97.000000	36.000000
0.900000	20.930000	10.850000	452.000000	0.000000	166.000000	43.000000	105.000000	40.000000
0.910000	21.670000	11.170000	453.000000	0.000000	166.000000	44.000000	74.000000	32.000000
0.920000	22.210000	11.310000	448.000000	0.000000	166.000000	45.000000	54.000000	14.000000
0.930000	22.360000	11.360000	269.000000	0.000000	164.000000	46.000000	15.000000	5.000000
0.940000	22.410000	11.280000	13.000000	1.000000	164.000000	46.000000	0.000000	0.000000
0.950000	22.410000	11.280000	0.000000	0.000000	163.000000	47.000000	0.000000	0.000000
0.960000	22.090000	11.040000	0.000000	0.000000	162.000000	47.000000	-32.000000	-24.000000
0.970000	21.820000	10.930000	0.000000	0.000000	162.000000	47.000000	-27.000000	-11.000000
0.980000	21.600000	10.930000	0.000000	0.000000	162.000000	47.000000	-22.000000	0.000000
0.990000	21.600000	10.930000	0.000000	0.000000	162.000000	47.000000	0.000000	0.000000
1.000000	21.720000	10.930000	0.000000	0.000000	163.000000	46.000000	12.000000	0.000000
1.010000	21.900000	11.050000	0.000000	0.000000	163.000000	46.000000	18.000000	12.000000
1.020000	22.090000	11.160000	0.000000	0.000000	163.000000	45.000000	19.000000	11.000000
1.030000	22.290000	11.300000	0.000000	0.000000	163.000000	45.000000	20.000000	14.000000
1.040000	22.340000	11.420000	0.000000	0.000000	163.000000	45.000000	5.000000	12.000000
1.050000	22.340000	11.520000	0.000000	0.000000	164.000000	44.000000	0.000000	10.000000
1.060000	22.340000	11.520000	3.000000	0.000000	163.000000	45.000000	0.000000	0.000000
1.070000	22.340000	11.520000	56.000000	1.000000	162.000000	45.000000	0.000000	0.000000
1.080000	22.340000	11.520000	91.000000	0.000000	162.000000	45.000000	0.000000	0.000000
1.090000	22.340000	11.520000	122.000000	0.000000	162.000000	46.000000	0.000000	0.000000
1.100000	22.340000	11.520000	175.000000	0.000000	162.000000	46.000000	0.000000	0.000000
1.110000	22.340000	11.520000	216.000000	0.000000	161.000000	46.000000	0.000000	0.000000
1.120000	22.520000	11.270000	237.000000	0.000000	161.000000	46.000000	18.000000	-25.000000
1.130000	22.720000	11.270000	245.000000	0.000000	161.000000	47.000000	20.000000	0.000000
1.140000	22.910000	11.270000	255.000000	0.000000	161.000000	47.000000	19.000000	0.000000
1.150000	23.110000	11.350000	274.000000	0.000000	161.000000	47.000000	20.000000	8.000000
1.160000	23.220000	11.520000	285.000000	0.000000	161.000000	47.000000	11.000000	17.000000
1.170000	23.270000	11.740000	285.000000	0.000000	161.000000	47.000000	5.000000	22.000000
1.180000	23.320000	12.010000	287.000000	0.000000	161.000000	47.000000	5.000000	27.000000
1.190000	23.270000	12.240000	277.000000	0.000000	161.000000	47.000000	-5.000000	23.000000
1.200000	23.150000	12.390000	281.000000	0.000000	161.000000	47.000000	-12.000000	15.000000
1.210000	22.990000	12.450000	284.000000	0.000000	161.000000	47.000000	-16.000000	6.000000
1.220000	22.800000	12.320000	281.000000	0.000000	161.000000	47.000000	-19.000000	-13.000000
1.230000	22.580000	12.060000	281.000000	0.000000	161.000000	47.000000	-22.000000	-26.000000
1.240000	22.390000	11.610000	277.000000	0.000000	161.000000	47.000000	-19.000000	-45.000000
1.250000	22.220000	11.240000	277.000000	0.000000	161.000000	47.000000	-17.000000	-37.000000
1.260000	22.130000	10.930000	274.000000	0.000000	161.000000	47.000000	-9.000000	-31.000000
1.270000	22.130000	10.710000	273.000000	0.000000	161.000000	47.000000	0.000000	-22.000000
1.280000	22.250000	10.610000	282.000000	0.000000	161.000000	47.000000	12.000000	-10.000000
1.290000	22.470000	10.610000	311.000000	0.000000	161.000000	47.000000	22.000000	0.000000
1.300000	22.710000	10.610000	319.000000	0.000000	161.000000	47.000000	24.000000	0.000000
1.310000	22.990000	10.820000	337.000000	0.000000	161.000000	47.000000	28.000000	21.000000
1.320000	23.230000	11.070000	366.000000	0.000000	161.000000	47.000000	24.000000	25.000000
1.330000	23.440000	11.340000	389.000000	0.000000	161.000000	47.000000	21.000000	27.000000
1.340000	23.630000	11.760000	399.000000	0.000000	161.000000	47.000000	19.000000	42.000000
1.350000	23.800000	12.280000	394.000000	0.000000	161.000000	47.000000	17.000000	52.000000
1.360000	23.970000	12.860000	396.000000	0.000000	161.000000	47.000000	17.000000	58.000000
1.370000	24.070000	13.530000	404.000000	0.000000	162.000000	48.000000	10.000000	67.000000
1.380000	24.120000	14.260000	402.000000	0.000000	162.000000	48.000000	5.000000	73.000000
1.390000	24.120000	15.100000	397.000000	0.000000	162.000000	48.000000	0.000000	84.000000
1.400000	24.120000	15.700000	399.000000	0.000000	163.000000	48.000000	0.000000	60.000000
1.410000	24.070000	16.150000	399.000000	0.000000	163.000000	47.000000	-5.000000	45.000000
1.420000	24.000000	16.220000	392.000000	0.000000	163.000000	47.000000	-7.000000	7.000000
1.430000	23.920000	16.050000	394.000000	0.000000	165.000000	46.000000	-8.000000	-17.000000
1.440000	23.840000	15.720000	394.000000	0.000000	166.000000	45.000000	-8.000000	-33.000000
1.450000	23.690000	14.990000	397.000000	0.000000	166.000000	45.000000	-15.000000	-73.000000
1.460000	23.580000	14.210000	400.000000	0.000000	166.000000	44.000000	-11.000000	-78.000000
1.470000	23.530000	13.340000	409.000000	0.000000	166.000000	45.000000	-5.000000	-87.000000
1.480000	23.600000	12.510000	423.000000	0.000000	166.000000	45.000000	7.000000	-83.000000
1.490000	23.760000	11.710000	417.000000	0.000000	164.000000	46.000000	16.000000	-80.000000
1.500000	23.980000	11.210000	433.000000	0.000000	163.000000	47.000000	22.000000	-50.000000
1.510000	24.180000	10.940000	449.000000	0.000000	163.000000	48.000000	20.000000	-27.000000
1.520000	24.360000	10.830000	447.000000	0.000000	162.000000	48.000000	18.000000	-11.000000
1.530000	24.520000	10.830000	464.000000	0.000000	161.000000	48.000000	16.000000	0.000000
1.540000	24.610000	10.910000	546.000000	0.000000	161.000000	48.000000	9.000000	8.000000
1.550000	24.610000	11.010000	543.000000	0.000000	161.000000	48.000000	0.000000	10.000000
1.560000	24.740000	11.280000	550.000000	0.000000	161.000000	49.000000	13.000000	27.000000
1.570000	24.820000	11.690000	554.000000	0.000000	161.000000	49.000000	8.000000	41.000000
1.580000	24.870000	12.190000	556.000000	0.000000	162.000000	50.000000	5.000000	50.000000
1.590000	24.870000	12.430000	554.000000	0.000000	162.000000	50.000000	0.000000	24.000000
1.600000	24.870000	12.490000	550.000000	0.000000	163.000000	50.000000	0.000000	6.000000
1.610000	24.870000	12.490000	551.000000	0.000000	163.000000	50.000000	0.000000	0.000000
1.620000	24.870000	12.170000	553.000000	0.000000	164.000000	50.000000	0.000000	-32.000000
1.630000	24.870000	11.910000	556.000000	0.000000	164.000000	50.000000	0.000000	-26.000000
1.640000	24.870000	11.640000	567.000000	0.000000	165.000000	50.000000	0.000000	-27.000000
1.650000	24.870000	11.420000	564.000000	0.000000	165.000000	50.000000	0.000000	-22.000000
1.660000	24.950000	11.300000	565.000000	0.000000	165.000000	50.000000	8.000000	-12.000000
1.670000	24.950000	11.300000	568.000000	0.000000	165.000000	50.000000	0.000000	0.000000
1.680000	25.010000	11.250000	570.000000	0.000000	165.000000	50.000000	6.000000	-5.000000
1.690000	25.010000	11.250000	538.000000	0.000000	165.000000	50.000000	0.000000	0.000000
1.700000	25.010000	11.250000	394.000000	0.000000	165.000000	50.000000	0.000000	0.000000
1.710000	25.070000	11.380000	83.000000	0.000000	165.000000	50.000000	6.000000	13.000000
1.720000	25.070000	11.380000	0.000000	1.000000	164.000000	50.000000	0.000000	0.000000
1.730000	25.260000	12.030000	0.000000	0.000000	164.000000	50.000000	19.000000	65.000000
1.740000	25.310000	12.550000	0.000000	0.000000	164.000000	50.000000	5.000000	52.000000
1.750000	25.310000	13.100000	0.000000	0.000000	163.000000	50.000000	0.000000	55.000000
1.760000	25.310000	13.660000	0.000000	0.000000	163.000000	49.000000	0.000000	56.000000
1.770000	25.310000	13.660000	36.000000	1.000000	162.000000	49.000000	0.000000	0.000000
1.780000	25.250000	14.100000	207.000000	0.000000	163.000000	48.000000	-6.000000	44.000000
1.790000	25.110000	14.100000	305.000000	0.000000	163.000000	48.000000	-14.000000	0.000000
1.800000	25.110000	14.160000	379.000000	0.000000	163.000000	48.000000	0.000000	6.000000
1.810000	25.030000	14.160000	389.000000	0.000000	163.000000	47.000000	-8.000000	0.000000
1.820000	25.030000	14.160000	387.000000	0.000000	165.000000	47.000000	0.000000	0.000000
1.830000	25.030000	14.090000	363.000000	0.000000	164.000000	48.000000	0.000000	-7.000000
1.840000	25.170000	13.870000	193.000000	0.000000	164.000000	48.000000	14.000000	-22.000000
1.850000	25.170000	13.870000	0.000000	1.000000	165.000000	48.000000	0.000000	0.000000
1.860000	25.510000	13.150000	0.000000	0.000000	165.000000	48.000000	34.000000	-72.000000
1.870000	25.650000	12.700000	0.000000	0.000000	165.000000	48.000000	14.000000	-45.000000
1.880000	25.710000	12.340000	0.000000	0.000000	165.000000	48.000000	6.000000	-36.000000
1.890000	25.800000	12.050000	0.000000	0.000000	165.000000	48.000000	9.000000	-29.000000
1.900000	25.910000	11.870000	0.000000	0.000000	165.000000	48.000000	11.000000	-18.000000
1.910000	26.030000	11.870000	0.000000	0.000000	165.000000	48.000000	12.000000	0.000000
1.920000	26.110000	11.870000	0.000000	0.000000	167.000000	47.000000	8.000000	0.000000
1.930000	26.160000	12.020000	0.000000	0.000000	167.000000	47.000000	5.000000	15.000000
1.940000	26.160000	12.180000	0.000000	0.000000	167.000000	47.000000	0.000000	16.000000
1.950000	26.160000	12.180000	108.000000	1.000000	167.000000	46.000000	0.000000	0.000000
1.960000	26.070000	12.590000	182.000000	0.000000	167.000000	47.000000	-9.000000	41.000000
1.970000	25.930000	12.790000	217.000000	0.000000	167.000000	47.000000	-14.000000	20.000000
1.980000	25.880000	12.700000	269.000000	0.000000	167.000000	47.000000	-5.000000	-9.000000
1.990000	25.820000	12.430000	304.000000	0.000000	166.000000	48.000000	-6.000000	-27.000000
2.000000	25.740000	11.840000	334.000000	0.000000	166.000000	49.000000	-8.000000	-59.000000
2.010000	25.660000	11.240000	346.000000	0.000000	165.000000	49.000000	-8.000000	-60.000000
2.020000	25.660000	10.660000	359.000000	0.000000	164.000000	50.000000	0.000000	-58.000000
2.030000	25.660000	10.160000	364.000000	0.000000	164.000000	50.000000	0.000000	-50.000000
2.040000	25.710000	9.680000	343.000000	0.000000	164.000000	50.000000	5.000000	-48.000000
2.050000	25.790000	9.360000	285.000000	0.000000	164.000000	50.000000	8.000000	-32.000000
2.060000	25.840000	9.170000	100.000000	0.000000	165.000000	50.000000	5.000000	-19.000000
2.070000	25.840000	9.170000	0.000000	1.000000	166.000000	49.000000	0.000000	0.000000
2.080000	25.840000	9.080000	0.000000	0.000000	166.000000	49.000000	0.000000	-9.000000
2.090000	25.840000	9.240000	0.000000	0.000000	167.000000	49.000000	0.000000	16.000000
2.100000	25.890000	9.450000	0.000000	0.000000	167.000000	49.000000	5.000000	21.000000
2.110000	25.890000	9.770000	0.000000	0.000000	167.000000	49.000000	0.000000	32.000000
2.120000	25.810000	10.180000	0.000000	0.000000	167.000000	48.000000	-8.000000	41.000000
2.130000	25.710000	10.660000	0.000000	0.000000	167.000000	48.000000	-10.000000	48.000000
2.140000	25.610000	11.210000	0.000000	0.000000	167.000000	48.000000	-10.000000	55.000000
2.150000	25.610000	11.210000	139.000000	1.000000	167.000000	48.000000	0.000000	0.000000
2.160000	25.500000	12.670000	151.000000	0.000000	166.000000	48.000000	-11.000000	146.000000
2.170000	25.500000	13.190000	183.000000	0.000000	166.000000	49.000000	0.000000	52.000000
2.180000	25.760000	13.530000	246.000000	0.000000	166.000000	49.000000	26.000000	34.000000
2.190000	26.110000	13.750000	304.000000	0.000000	165.000000	49.000000	35.000000	22.000000
2.200000	26.560000	13.890000	345.000000	0.000000	165.000000	49.000000	45.000000	14.000000
2.210000	26.940000	14.000000	344.000000	0.000000	165.000000	49.000000	38.000000	11.000000
