t	x	y	pressure	penup	azimuth	inclination	v_x	v_y
0.000000	56.720000	82.940000	60.000000	1.000000	165.000000	47.000000	0.000000	0.000000
0.010000	56.720000	82.940000	139.000000	0.000000	165.000000	47.000000	0.000000	0.000000
0.020000	56.650000	83.260000	207.000000	0.000000	165.000000	46.000000	-7.000000	32.000000
0.030000	56.650000	83.350000	262.000000	0.000000	165.000000	46.000000	0.000000	9.000000
0.040000	56.650000	83.490000	337.000000	0.000000	165.000000	46.000000	0.000000	14.000000
0.050000	56.650000	83.660000	413.000000	0.000000	166.000000	45.000000	0.000000	17.000000
0.060000	56.650000	83.660000	452.000000	0.000000	166.000000	45.000000	0.000000	0.000000
0.070000	56.650000	83.660000	486.000000	0.000000	166.000000	45.000000	0.000000	0.000000
0.080000	56.700000	83.590000	516.000000	0.000000	167.000000	45.000000	5.000000	-7.000000
0.090000	56.750000	83.480000	572.000000	0.000000	167.000000	45.000000	5.000000	-11.000000
0.100000	56.800000	83.060000	613.000000	0.000000	167.000000	45.000000	5.000000	-42.000000
0.110000	56.800000	82.620000	644.000000	0.000000	168.000000	45.000000	0.000000	-44.000000
0.120000	56.850000	82.000000	691.000000	0.000000	168.000000	45.000000	5.000000	-62.000000
0.130000	56.910000	81.280000	725.000000	0.000000	169.000000	45.000000	6.000000	-72.000000
0.140000	57.020000	80.290000	754.000000	0.000000	168.000000	46.000000	11.000000	-99.000000
0.150000	57.220000	79.270000	774.000000	0.000000	169.000000	46.000000	20.000000	-102.000000
0.160000	57.480000	78.420000	790.000000	0.000000	169.000000	46.000000	26.000000	-85.000000
0.170000	57.700000	77.700000	793.000000	0.000000	170.000000	48.000000	22.000000	-72.000000
0.180000	57.890000	77.200000	796.000000	0.000000	171.000000	49.000000	19.000000	-50.000000
0.190000	58.090000	76.910000	797.000000	0.000000	170.000000	50.000000	20.000000	-29.000000
0.200000	58.280000	76.760000	790.000000	0.000000	172.000000	50.000000	19.000000	-15.000000
0.210000	58.360000	76.760000	796.000000	0.000000	173.000000	50.000000	8.000000	0.000000
0.220000	58.360000	76.890000	794.000000	0.000000	173.000000	51.000000	0.000000	13.000000
0.230000	58.360000	77.140000	777.000000	0.000000	173.000000	51.000000	0.000000	25.000000
0.240000	58.180000	77.390000	763.000000	0.000000	173.000000	51.000000	-18.000000	25.000000
0.250000	57.930000	77.620000	756.000000	0.000000	173.000000	51.000000	-25.000000	23.000000
0.260000	57.590000	77.780000	753.000000	0.000000	173.000000	51.000000	-34.000000	16.000000
0.270000	57.130000	77.890000	751.000000	0.000000	173.000000	51.000000	-46.000000	11.000000
0.280000	56.580000	77.950000	754.000000	0.000000	173.000000	51.000000	-55.000000	6.000000
0.290000	55.790000	77.950000	750.000000	0.000000	173.000000	51.000000	-79.000000	0.000000
0.300000	54.890000	77.870000	751.000000	0.000000	171.000000	51.000000	-90.000000	-8.000000
0.310000	53.910000	77.730000	753.000000	0.000000	171.000000	51.000000	-98.000000	-14.000000
0.320000	53.000000	77.540000	751.000000	0.000000	172.000000	50.000000	-91.000000	-19.000000
0.330000	52.130000	77.300000	751.000000	0.000000	170.000000	50.000000	-87.000000	-24.000000
0.340000	51.570000	77.080000	750.000000	0.000000	170.000000	50.000000	-56.000000	-22.000000
0.350000	51.200000	76.930000	763.000000	0.000000	170.000000	50.000000	-37.000000	-15.000000
0.360000	51.150000	76.840000	751.000000	0.000000	170.000000	50.000000	-5.000000	-9.000000
0.370000	51.150000	76.840000	745.000000	0.000000	172.000000	50.000000	0.000000	0.000000
0.380000	51.450000	76.840000	748.000000	0.000000	172.000000	50.000000	30.000000	0.000000
0.390000	51.950000	76.840000	752.000000	0.000000	172.000000	50.000000	50.000000	0.000000
0.400000	52.990000	76.950000	754.000000	0.000000	172.000000	50.000000	104.000000	11.000000
0.410000	54.230000	77.130000	752.000000	0.000000	172.000000	50.000000	124.000000	18.000000
0.420000	55.600000	77.310000	758.000000	0.000000	170.000000	50.000000	137.000000	18.000000
0.430000	57.310000	77.530000	757.000000	0.000000	170.000000	50.000000	171.000000	22.000000
0.440000	59.190000	77.770000	763.000000	0.000000	170.000000	50.000000	188.000000	24.000000
0.450000	61.180000	78.010000	779.000000	0.000000	172.000000	50.000000	199.000000	24.000000
0.460000	63.240000	78.240000	794.000000	0.000000	172.000000	50.000000	206.000000	23.000000
0.470000	65.240000	78.450000	793.000000	0.000000	172.000000	50.000000	200.000000	21.000000
0.480000	67.210000	78.710000	799.000000	0.000000	173.000000	50.000000	197.000000	26.000000
0.490000	69.510000	79.010000	806.000000	0.000000	173.000000	49.000000	230.000000	30.000000
0.500000	71.470000	79.320000	815.000000	0.000000	174.000000	49.000000	196.000000	31.000000
0.510000	73.210000	79.550000	817.000000	0.000000	175.000000	49.000000	174.000000	23.000000
0.520000	74.580000	79.750000	821.000000	0.000000	176.000000	48.000000	137.000000	20.000000
0.530000	75.400000	79.960000	827.000000	0.000000	175.000000	49.000000	82.000000	21.000000
0.540000	75.840000	80.010000	819.000000	0.000000	175.000000	49.000000	44.000000	5.000000
0.550000	75.940000	80.010000	863.000000	0.000000	175.000000	50.000000	10.000000	0.000000
0.560000	75.940000	80.060000	873.000000	0.000000	175.000000	50.000000	0.000000	5.000000
0.570000	75.940000	80.060000	888.000000	0.000000	175.000000	51.000000	0.000000	0.000000
0.580000	75.880000	80.060000	885.000000	0.000000	175.000000	51.000000	-6.000000	0.000000
0.590000	75.880000	80.060000	872.000000	0.000000	175.000000	51.000000	0.000000	0.000000
0.600000	75.880000	80.060000	828.000000	0.000000	175.000000	51.000000	0.000000	0.000000
0.610000	75.880000	80.060000	757.000000	0.000000	175.000000	51.000000	0.000000	0.000000
0.620000	75.880000	80.010000	597.000000	0.000000	176.000000	51.000000	0.000000	-5.000000
0.630000	75.880000	80.010000	299.000000	0.000000	176.000000	51.000000	0.000000	0.000000
0.640000	75.880000	80.010000	0.000000	1.000000	176.000000	51.000000	0.000000	0.000000
0.650000	75.880000	79.800000	0.000000	0.000000	176.000000	51.000000	0.000000	-21.000000
0.660000	75.740000	79.890000	0.000000	0.000000	176.000000	52.000000	-14.000000	9.000000
0.670000	75.480000	80.100000	0.000000	0.000000	176.000000	52.000000	-26.000000	21.000000
0.680000	74.940000	80.180000	0.000000	0.000000	176.000000	52.000000	-54.000000	8.000000
0.690000	74.100000	80.340000	0.000000	0.000000	176.000000	53.000000	-84.000000	16.000000
0.700000	73.050000	80.590000	0.000000	0.000000	176.000000	53.000000	-105.000000	25.000000
0.710000	71.830000	80.720000	0.000000	0.000000	176.000000	54.000000	-122.000000	13.000000
0.720000	70.480000	80.770000	0.000000	0.000000	176.000000	54.000000	-135.000000	5.000000
0.730000	69.030000	80.690000	0.000000	0.000000	174.000000	55.000000	-145.000000	-8.000000
0.740000	67.440000	80.510000	0.000000	0.000000	174.000000	55.000000	-159.000000	-18.000000
0.750000	65.760000	80.250000	0.000000	0.000000	173.000000	55.000000	-168.000000	-26.000000
0.760000	64.020000	79.920000	0.000000	0.000000	172.000000	54.000000	-174.000000	-33.000000
0.770000	62.130000	79.500000	0.000000	0.000000	171.000000	51.000000	-189.000000	-42.000000
0.780000	60.140000	78.970000	0.000000	0.000000	171.000000	48.000000	-199.000000	-53.000000
0.790000	58.090000	78.700000	0.000000	0.000000	171.000000	45.000000	-205.000000	-27.000000
0.800000	56.320000	78.610000	0.000000	0.000000	171.000000	42.000000	-177.000000	-9.000000
0.810000	55.050000	78.610000	0.000000	0.000000	171.000000	39.000000	-127.000000	0.000000
0.820000	54.120000	78.890000	0.000000	0.000000	171.000000	35.000000	-93.000000	28.000000
0.830000	53.550000	79.300000	0.000000	0.000000	171.000000	33.000000	-57.000000	41.000000
0.840000	53.270000	79.700000	0.000000	0.000000	170.000000	32.000000	-28.000000	40.000000
0.850000	53.180000	80.080000	0.000000	0.000000	170.000000	32.000000	-9.000000	38.000000
0.860000	53.340000	80.450000	0.000000	0.000000	169.000000	34.000000	16.000000	37.000000
0.870000	53.740000	80.780000	0.000000	0.000000	168.000000	35.000000	40.000000	33.000000
0.880000	54.290000	81.050000	0.000000	0.000000	167.000000	38.000000	55.000000	27.000000
0.890000	54.830000	81.210000	0.000000	0.000000	166.000000	41.000000	54.000000	16.000000
0.900000	55.300000	81.340000	0.000000	0.000000	165.000000	43.000000	47.000000	13.000000
0.910000	55.730000	81.430000	0.000000	0.000000	164.000000	46.000000	43.000000	9.000000
0.920000	55.970000	81.480000	0.000000	0.000000	163.000000	48.000000	24.000000	5.000000
0.930000	56.080000	81.480000	0.000000	0.000000	162.000000	49.000000	11.000000	0.000000
0.940000	56.080000	81.400000	0.000000	0.000000	163.000000	50.000000	0.000000	-8.000000
0.950000	56.080000	81.400000	0.000000	0.000000	162.000000	51.000000	0.000000	0.000000
0.960000	56.000000	81.400000	0.000000	0.000000	163.000000	50.000000	-8.000000	0.000000
0.970000	55.850000	81.400000	0.000000	0.000000	163.000000	50.000000	-15.000000	0.000000
0.980000	55.650000	81.250000	0.000000	0.000000	163.000000	49.000000	-20.000000	-15.000000
0.990000	55.450000	81.080000	0.000000	0.000000	163.000000	49.000000	-20.000000	-17.000000
1.000000	55.260000	81.400000	0.000000	0.000000	164.000000	48.000000	-19.000000	32.000000
1.010000	55.080000	81.460000	0.000000	0.000000	164.000000	48.000000	-18.000000	6.000000
1.020000	54.990000	81.340000	0.000000	0.000000	163.000000	47.000000	-9.000000	-12.000000
1.030000	54.930000	81.340000	0.000000	0.000000	164.000000	46.000000	-6.000000	0.000000
1.040000	54.930000	81.340000	0.000000	0.000000	164.000000	46.000000	0.000000	0.000000
1.050000	54.860000	81.340000	0.000000	0.000000	164.000000	45.000000	-7.000000	0.000000
1.060000	54.730000	81.340000	0.000000	0.000000	164.000000	45.000000	-13.000000	0.000000
1.070000	54.550000	81.340000	0.000000	0.000000	164.000000	45.000000	-18.000000	0.000000
1.080000	54.380000	81.400000	0.000000	0.000000	164.000000	44.000000	-17.000000	6.000000
1.090000	54.160000	81.280000	0.000000	0.000000	164.000000	44.000000	-22.000000	-12.000000
1.100000	54.160000	81.280000	34.000000	1.000000	164.000000	44.000000	0.000000	0.000000
1.110000	53.730000	81.080000	148.000000	0.000000	164.000000	44.000000	-43.000000	-20.000000
1.120000	53.590000	81.080000	228.000000	0.000000	165.000000	44.000000	-14.000000	0.000000
1.130000	53.540000	81.080000	302.000000	0.000000	165.000000	43.000000	-5.000000	0.000000
1.140000	53.540000	81.080000	359.000000	0.000000	165.000000	43.000000	0.000000	0.000000
1.150000	53.640000	81.080000	412.000000	0.000000	165.000000	43.000000	10.000000	0.000000
1.160000	53.820000	81.150000	460.000000	0.000000	166.000000	42.000000	18.000000	7.000000
1.170000	54.270000	81.290000	504.000000	0.000000	166.000000	42.000000	45.000000	14.000000
1.180000	54.900000	81.460000	544.000000	0.000000	166.000000	42.000000	63.000000	17.000000
1.190000	55.590000	81.650000	565.000000	0.000000	166.000000	42.000000	69.000000	19.000000
1.200000	56.330000	81.810000	577.000000	0.000000	166.000000	41.000000	74.000000	16.000000
1.210000	57.130000	81.990000	586.000000	0.000000	166.000000	41.000000	80.000000	18.000000
1.220000	57.910000	82.180000	586.000000	0.000000	166.000000	41.000000	78.000000	19.000000
1.230000	58.440000	82.320000	589.000000	0.000000	166.000000	41.000000	53.000000	14.000000
1.240000	58.830000	82.420000	584.000000	0.000000	167.000000	41.000000	39.000000	10.000000
1.250000	58.900000	82.420000	575.000000	0.000000	167.000000	42.000000	7.000000	0.000000
1.260000	58.900000	82.420000	550.000000	0.000000	168.000000	42.000000	0.000000	0.000000
1.270000	58.900000	82.420000	483.000000	0.000000	169.000000	42.000000	0.000000	0.000000
1.280000	58.760000	82.470000	369.000000	0.000000	170.000000	43.000000	-14.000000	5.000000
1.290000	58.520000	82.470000	267.000000	0.000000	169.000000	44.000000	-24.000000	0.000000
1.300000	58.180000	82.390000	143.000000	0.000000	170.000000	44.000000	-34.000000	-8.000000
1.310000	58.180000	82.390000	0.000000	1.000000	170.000000	44.000000	0.000000	0.000000
1.320000	57.490000	82.070000	0.000000	0.000000	170.000000	45.000000	-69.000000	-32.000000
1.330000	57.020000	81.820000	0.000000	0.000000	170.000000	45.000000	-47.000000	-25.000000
1.340000	56.470000	81.560000	0.000000	0.000000	169.000000	44.000000	-55.000000	-26.000000
1.350000	55.940000	81.280000	0.000000	0.000000	168.000000	43.000000	-53.000000	-28.000000
1.360000	55.490000	80.980000	0.000000	0.000000	167.000000	43.000000	-45.000000	-30.000000
1.370000	55.130000	80.690000	0.000000	0.000000	166.000000	43.000000	-36.000000	-29.000000
1.380000	55.130000	80.690000	46.000000	1.000000	166.000000	43.000000	0.000000	0.000000
1.390000	54.650000	80.290000	142.000000	0.000000	165.000000	43.000000	-48.000000	-40.000000
1.400000	54.560000	80.200000	205.000000	0.000000	165.000000	43.000000	-9.000000	-9.000000
1.410000	54.560000	80.200000	259.000000	0.000000	165.000000	43.000000	0.000000	0.000000
1.420000	54.560000	80.200000	296.000000	0.000000	165.000000	42.000000	0.000000	0.000000
1.430000	54.610000	80.200000	315.000000	0.000000	165.000000	42.000000	5.000000	0.000000
1.440000	54.660000	80.200000	399.000000	0.000000	165.000000	42.000000	5.000000	0.000000
1.450000	54.770000	80.140000	486.000000	0.000000	165.000000	42.000000	11.000000	-6.000000
1.460000	55.110000	80.140000	551.000000	0.000000	165.000000	42.000000	34.000000	0.000000
1.470000	55.590000	80.220000	592.000000	0.000000	165.000000	42.000000	48.000000	8.000000
1.480000	56.170000	80.420000	616.000000	0.000000	165.000000	42.000000	58.000000	20.000000
1.490000	56.830000	80.620000	616.000000	0.000000	165.000000	42.000000	66.000000	20.000000
1.500000	57.550000	80.830000	620.000000	0.000000	166.000000	42.000000	72.000000	21.000000
1.510000	58.200000	80.970000	622.000000	0.000000	166.000000	42.000000	65.000000	14.000000
1.520000	58.650000	81.100000	614.000000	0.000000	166.000000	42.000000	45.000000	13.000000
1.530000	58.960000	81.180000	575.000000	0.000000	167.000000	42.000000	31.000000	8.000000
1.540000	59.060000	81.180000	495.000000	0.000000	168.000000	42.000000	10.000000	0.000000
1.550000	59.060000	81.230000	277.000000	0.000000	168.000000	43.000000	0.000000	5.000000
1.560000	59.060000	81.230000	0.000000	1.000000	169.000000	44.000000	0.000000	0.000000
1.570000	58.950000	81.180000	0.000000	0.000000	170.000000	45.000000	-11.000000	-5.000000
1.580000	58.830000	81.180000	0.000000	0.000000	170.000000	46.000000	-12.000000	0.000000
1.590000	58.670000	81.240000	0.000000	0.000000	169.000000	46.000000	-16.000000	6.000000
1.600000	58.670000	81.340000	0.000000	0.000000	169.000000	46.000000	0.000000	10.000000
1.610000	58.670000	81.340000	0.000000	0.000000	169.000000	47.000000	0.000000	0.000000
1.620000	58.810000	81.260000	0.000000	0.000000	169.000000	47.000000	14.000000	-8.000000
1.630000	58.990000	81.060000	0.000000	0.000000	167.000000	48.000000	18.000000	-20.000000
1.640000	59.270000	80.860000	0.000000	0.000000	167.000000	48.000000	28.000000	-20.000000
1.650000	59.610000	80.650000	0.000000	0.000000	166.000000	49.000000	34.000000	-21.000000
1.660000	59.750000	80.410000	0.000000	0.000000	166.000000	49.000000	14.000000	-24.000000
1.670000	59.750000	80.170000	0.000000	0.000000	165.000000	50.000000	0.000000	-24.000000
1.680000	59.600000	79.920000	0.000000	0.000000	165.000000	50.000000	-15.000000	-25.000000
1.690000	59.600000	79.650000	0.000000	0.000000	165.000000	50.000000	0.000000	-27.000000
1.700000	59.540000	79.540000	0.000000	0.000000	167.000000	50.000000	-6.000000	-11.000000
1.710000	59.540000	79.540000	0.000000	0.000000	167.000000	49.000000	0.000000	0.000000
1.720000	59.540000	79.540000	0.000000	0.000000	169.000000	48.000000	0.000000	0.000000
1.730000	59.660000	79.540000	0.000000	0.000000	170.000000	49.000000	12.000000	0.000000
1.740000	59.750000	79.490000	0.000000	0.000000	170.000000	48.000000	9.000000	-5.000000
1.750000	59.750000	79.490000	0.000000	0.000000	170.000000	47.000000	0.000000	0.000000
1.760000	59.750000	79.490000	0.000000	0.000000	171.000000	46.000000	0.000000	0.000000
1.770000	59.670000	79.490000	0.000000	0.000000	172.000000	45.000000	-8.000000	0.000000
1.780000	59.580000	79.490000	0.000000	0.000000	172.000000	45.000000	-9.000000	0.000000
1.790000	59.480000	79.440000	0.000000	0.000000	172.000000	44.000000	-10.000000	-5.000000
1.800000	59.420000	79.390000	0.000000	0.000000	172.000000	44.000000	-6.000000	-5.000000
1.810000	59.360000	79.330000	0.000000	0.000000	172.000000	45.000000	-6.000000	-6.000000
1.820000	59.300000	79.280000	0.000000	0.000000	171.000000	45.000000	-6.000000	-5.000000
1.830000	59.300000	79.230000	0.000000	0.000000	171.000000	45.000000	0.000000	-5.000000
1.840000	59.210000	79.230000	0.000000	0.000000	171.000000	45.000000	-9.000000	0.000000
1.850000	59.210000	79.170000	0.000000	0.000000	171.000000	46.000000	0.000000	-6.000000
1.860000	59.210000	79.170000	0.000000	0.000000	171.000000	46.000000	0.000000	0.000000
1.870000	59.210000	79.170000	0.000000	0.000000	170.000000	46.000000	0.000000	0.000000
1.880000	59.210000	79.100000	0.000000	0.000000	170.000000	46.000000	0.000000	-7.000000
1.890000	59.210000	79.040000	0.000000	0.000000	170.000000	46.000000	0.000000	-6.000000
1.900000	59.210000	78.960000	0.000000	0.000000	170.000000	46.000000	0.000000	-8.000000
1.910000	59.210000	78.960000	30.000000	1.000000	170.000000	46.000000	0.000000	0.000000
1.920000	59.210000	78.960000	81.000000	0.000000	170.000000	46.000000	0.000000	0.000000
1.930000	59.210000	78.960000	110.000000	0.000000	170.000000	46.000000	0.000000	0.000000
1.940000	59.210000	78.960000	139.000000	0.000000	170.000000	46.000000	0.000000	0.000000
1.950000	59.210000	78.960000	184.000000	0.000000	170.000000	45.000000	0.000000	0.000000
1.960000	59.210000	78.960000	193.000000	0.000000	170.000000	45.000000	0.000000	0.000000
1.970000	59.210000	78.960000	212.000000	0.000000	170.000000	45.000000	0.000000	0.000000
1.980000	59.600000	78.720000	241.000000	0.000000	170.000000	45.000000	39.000000	-24.000000
1.990000	59.880000	78.720000	267.000000	0.000000	171.000000	45.000000	28.000000	0.000000
2.000000	60.180000	78.880000	275.000000	0.000000	171.000000	45.000000	30.000000	16.000000
2.010000	60.490000	79.060000	285.000000	0.000000	171.000000	45.000000	31.000000	18.000000
2.020000	60.720000	79.240000	273.000000	0.000000	172.000000	45.000000	23.000000	18.000000
2.030000	60.900000	79.400000	273.000000	0.000000	172.000000	45.000000	18.000000	16.000000
2.040000	60.950000	79.550000	279.000000	0.000000	172.000000	44.000000	5.000000	15.000000
2.050000	60.950000	79.680000	277.000000	0.000000	172.000000	45.000000	0.000000	13.000000
2.060000	60.950000	79.830000	281.000000	0.000000	173.000000	45.000000	0.000000	15.000000
2.070000	60.810000	79.980000	279.000000	0.000000	173.000000	46.000000	-14.000000	15.000000
2.080000	60.640000	80.090000	284.000000	0.000000	173.000000	46.000000	-17.000000	11.000000
2.090000	60.440000	80.170000	289.000000	0.000000	172.000000	47.000000	-20.000000	8.000000
2.100000	60.230000	80.170000	289.000000	0.000000	172.000000	48.000000	-21.000000	0.000000
2.110000	60.020000	80.030000	299.000000	0.000000	172.000000	48.000000	-21.000000	-14.000000
2.120000	59.800000	79.900000	304.000000	0.000000	172.000000	49.000000	-22.000000	-13.000000
2.130000	59.610000	79.780000	304.000000	0.000000	172.000000	49.000000	-19.000000	-12.000000
2.140000	59.440000	79.580000	305.000000	0.000000	172.000000	49.000000	-17.000000	-20.000000
2.150000	59.330000	79.420000	310.000000	0.000000	171.000000	49.000000	-11.000000	-16.000000
2.160000	59.250000	79.270000	324.000000	0.000000	171.000000	48.000000	-8.000000	-15.000000
2.170000	59.180000	79.030000	337.000000	0.000000	170.000000	47.000000	-7.000000	-24.000000
2.180000	59.180000	78.790000	340.000000	0.000000	171.000000	46.000000	0.000000	-24.000000
2.190000	59.180000	78.610000	343.000000	0.000000	171.000000	46.000000	0.000000	-18.000000
2.200000	59.290000	78.460000	351.000000	0.000000	170.000000	46.000000	11.000000	-15.000000
2.210000	59.430000	78.380000	373.000000	0.000000	170.000000	45.000000	14.000000	-8.000000
2.220000	59.630000	78.380000	407.000000	0.000000	170.000000	45.000000	20.000000	0.000000
