t	x	y	pressure	penup	azimuth	inclination	v_x	v_y
0.000000	52.440000	35.270000	65.000000	1.000000	144.000000	54.000000	0.000000	0.000000
0.010000	52.440000	35.270000	115.000000	0.000000	143.000000	55.000000	0.000000	0.000000
0.020000	52.440000	35.270000	184.000000	0.000000	143.000000	55.000000	0.000000	0.000000
0.030000	52.440000	35.270000	211.000000	0.000000	143.000000	55.000000	0.000000	0.000000
0.040000	52.440000	35.270000	282.000000	0.000000	143.000000	55.000000	0.000000	0.000000
0.050000	52.440000	35.270000	343.000000	0.000000	143.000000	55.000000	0.000000	0.000000
0.060000	52.440000	35.270000	389.000000	0.000000	143.000000	55.000000	0.000000	0.000000
0.070000	52.440000	35.020000	458.000000	0.000000	143.000000	55.000000	0.000000	-25.000000
0.080000	52.440000	34.890000	496.000000	0.000000	143.000000	55.000000	0.000000	-13.000000
0.090000	52.500000	34.680000	551.000000	0.000000	143.000000	55.000000	6.000000	-21.000000
0.100000	52.500000	34.390000	586.000000	0.000000	143.000000	55.000000	0.000000	-29.000000
0.110000	52.500000	34.040000	599.000000	0.000000	144.000000	56.000000	0.000000	-35.000000
0.120000	52.500000	33.630000	617.000000	0.000000	144.000000	56.000000	0.000000	-41.000000
0.130000	52.440000	33.050000	638.000000	0.000000	145.000000	55.000000	-6.000000	-58.000000
0.140000	52.280000	32.370000	662.000000	0.000000	145.000000	55.000000	-16.000000	-68.000000
0.150000	52.070000	31.580000	676.000000	0.000000	145.000000	55.000000	-21.000000	-79.000000
0.160000	51.780000	30.730000	691.000000	0.000000	146.000000	54.000000	-29.000000	-85.000000
0.170000	51.480000	29.770000	691.000000	0.000000	146.000000	54.000000	-30.000000	-96.000000
0.180000	51.160000	28.760000	705.000000	0.000000	146.000000	54.000000	-32.000000	-101.000000
0.190000	51.000000	27.840000	714.000000	0.000000	145.000000	54.000000	-16.000000	-92.000000
0.200000	51.000000	26.990000	731.000000	0.000000	144.000000	54.000000	0.000000	-85.000000
0.210000	51.210000	26.360000	722.000000	0.000000	144.000000	54.000000	21.000000	-63.000000
0.220000	51.410000	25.790000	745.000000	0.000000	143.000000	55.000000	20.000000	-57.000000
0.230000	51.650000	25.250000	758.000000	0.000000	143.000000	56.000000	24.000000	-54.000000
0.240000	51.970000	24.850000	760.000000	0.000000	142.000000	57.000000	32.000000	-40.000000
0.250000	52.300000	24.570000	777.000000	0.000000	140.000000	58.000000	33.000000	-28.000000
0.260000	52.660000	24.360000	796.000000	0.000000	139.000000	58.000000	36.000000	-21.000000
0.270000	53.040000	24.220000	836.000000	0.000000	138.000000	59.000000	38.000000	-14.000000
0.280000	53.430000	24.220000	854.000000	0.000000	138.000000	59.000000	39.000000	0.000000
0.290000	53.770000	24.340000	873.000000	0.000000	139.000000	60.000000	34.000000	12.000000
0.300000	54.160000	24.520000	894.000000	0.000000	139.000000	60.000000	39.000000	18.000000
0.310000	54.520000	24.690000	906.000000	0.000000	139.000000	60.000000	36.000000	17.000000
0.320000	54.760000	24.860000	930.000000	0.000000	139.000000	60.000000	24.000000	17.000000
0.330000	54.930000	25.060000	947.000000	0.000000	141.000000	60.000000	17.000000	20.000000
0.340000	55.080000	25.360000	943.000000	0.000000	141.000000	60.000000	15.000000	30.000000
0.350000	55.180000	25.730000	955.000000	0.000000	141.000000	60.000000	10.000000	37.000000
0.360000	55.240000	26.090000	968.000000	0.000000	141.000000	60.000000	6.000000	36.000000
0.370000	55.240000	26.450000	973.000000	0.000000	142.000000	61.000000	0.000000	36.000000
0.380000	55.240000	26.840000	986.000000	0.000000	142.000000	61.000000	0.000000	39.000000
0.390000	55.120000	27.240000	995.000000	0.000000	142.000000	61.000000	-12.000000	40.000000
0.400000	54.990000	27.660000	979.000000	0.000000	144.000000	60.000000	-13.000000	42.000000
0.410000	54.830000	28.040000	979.000000	0.000000	145.000000	59.000000	-16.000000	38.000000
0.420000	54.660000	28.370000	984.000000	0.000000	145.000000	59.000000	-17.000000	33.000000
0.430000	54.430000	28.700000	979.000000	0.000000	146.000000	58.000000	-23.000000	33.000000
0.440000	54.190000	29.030000	984.000000	0.000000	147.000000	58.000000	-24.000000	33.000000
0.450000	53.940000	29.370000	981.000000	0.000000	148.000000	57.000000	-25.000000	34.000000
0.460000	53.680000	29.670000	981.000000	0.000000	148.000000	57.000000	-26.000000	30.000000
0.470000	53.420000	29.930000	982.000000	0.000000	149.000000	56.000000	-26.000000	26.000000
0.480000	53.210000	30.120000	982.000000	0.000000	148.000000	56.000000	-21.000000	19.000000
0.490000	52.960000	30.260000	982.000000	0.000000	148.000000	56.000000	-25.000000	14.000000
0.500000	52.690000	30.360000	979.000000	0.000000	149.000000	55.000000	-27.000000	10.000000
0.510000	52.340000	30.430000	981.000000	0.000000	149.000000	55.000000	-35.000000	7.000000
0.520000	52.050000	30.430000	978.000000	0.000000	149.000000	55.000000	-29.000000	0.000000
0.530000	51.790000	30.430000	978.000000	0.000000	149.000000	55.000000	-26.000000	0.000000
0.540000	51.520000	30.430000	978.000000	0.000000	149.000000	55.000000	-27.000000	0.000000
0.550000	51.320000	30.430000	994.000000	0.000000	147.000000	55.000000	-20.000000	0.000000
0.560000	51.080000	30.360000	994.000000	0.000000	147.000000	55.000000	-24.000000	-7.000000
0.570000	50.810000	30.240000	991.000000	0.000000	147.000000	55.000000	-27.000000	-12.000000
0.580000	50.480000	30.040000	994.000000	0.000000	146.000000	54.000000	-33.000000	-20.000000
0.590000	50.160000	29.820000	991.000000	0.000000	146.000000	54.000000	-32.000000	-22.000000
0.600000	49.880000	29.590000	986.000000	0.000000	146.000000	54.000000	-28.000000	-23.000000
0.610000	49.600000	29.340000	991.000000	0.000000	146.000000	54.000000	-28.000000	-25.000000
0.620000	49.350000	28.970000	991.000000	0.000000	145.000000	54.000000	-25.000000	-37.000000
0.630000	49.130000	28.540000	986.000000	0.000000	144.000000	54.000000	-22.000000	-43.000000
0.640000	48.950000	28.070000	986.000000	0.000000	144.000000	54.000000	-18.000000	-47.000000
0.650000	48.810000	27.530000	991.000000	0.000000	144.000000	54.000000	-14.000000	-54.000000
0.660000	48.740000	26.950000	992.000000	0.000000	143.000000	55.000000	-7.000000	-58.000000
0.670000	48.740000	26.460000	992.000000	0.000000	140.000000	55.000000	0.000000	-49.000000
0.680000	48.740000	25.950000	995.000000	0.000000	139.000000	56.000000	0.000000	-51.000000
0.690000	48.740000	25.440000	978.000000	0.000000	138.000000	57.000000	0.000000	-51.000000
0.700000	48.840000	25.060000	977.000000	0.000000	136.000000	57.000000	10.000000	-38.000000
0.710000	48.990000	24.680000	979.000000	0.000000	135.000000	58.000000	15.000000	-38.000000
0.720000	49.200000	24.320000	981.000000	0.000000	132.000000	58.000000	21.000000	-36.000000
0.730000	49.510000	24.040000	978.000000	0.000000	132.000000	58.000000	31.000000	-28.000000
0.740000	49.830000	23.800000	982.000000	0.000000	134.000000	58.000000	32.000000	-24.000000
0.750000	50.190000	23.590000	987.000000	0.000000	134.000000	58.000000	36.000000	-21.000000
0.760000	50.670000	23.440000	985.000000	0.000000	134.000000	58.000000	48.000000	-15.000000
0.770000	51.140000	23.320000	988.000000	0.000000	134.000000	58.000000	47.000000	-12.000000
0.780000	51.590000	23.190000	988.000000	0.000000	134.000000	58.000000	45.000000	-13.000000
0.790000	52.080000	23.190000	993.000000	0.000000	135.000000	59.000000	49.000000	0.000000
0.800000	52.610000	23.350000	997.000000	0.000000	135.000000	59.000000	53.000000	16.000000
0.810000	53.180000	23.530000	994.000000	0.000000	135.000000	59.000000	57.000000	18.000000
0.820000	53.790000	23.740000	996.000000	0.000000	136.000000	60.000000	61.000000	21.000000
0.830000	54.350000	23.960000	997.000000	0.000000	138.000000	59.000000	56.000000	22.000000
0.840000	54.880000	24.150000	999.000000	0.000000	138.000000	60.000000	53.000000	19.000000
0.850000	55.450000	24.380000	1002.000000	0.000000	138.000000	60.000000	57.000000	23.000000
0.860000	56.150000	24.650000	1006.000000	0.000000	138.000000	60.000000	70.000000	27.000000
0.870000	56.930000	25.180000	1006.000000	0.000000	139.000000	61.000000	78.000000	53.000000
0.880000	57.650000	25.750000	1008.000000	0.000000	139.000000	61.000000	72.000000	57.000000
0.890000	58.380000	26.350000	1009.000000	0.000000	141.000000	61.000000	73.000000	60.000000
0.900000	59.000000	27.000000	1012.000000	0.000000	141.000000	61.000000	62.000000	65.000000
0.910000	59.540000	27.670000	1020.000000	0.000000	141.000000	61.000000	54.000000	67.000000
0.920000	60.030000	28.360000	1020.000000	0.000000	142.000000	61.000000	49.000000	69.000000
0.930000	60.420000	29.170000	1020.000000	0.000000	144.000000	60.000000	39.000000	81.000000
0.940000	60.750000	29.980000	1023.000000	0.000000	145.000000	59.000000	33.000000	81.000000
0.950000	61.070000	30.910000	1017.000000	0.000000	146.000000	58.000000	32.000000	93.000000
0.960000	61.350000	31.920000	1021.000000	0.000000	147.000000	58.000000	28.000000	101.000000
0.970000	61.610000	32.830000	1023.000000	0.000000	148.000000	57.000000	26.000000	91.000000
0.980000	61.790000	33.710000	1023.000000	0.000000	149.000000	56.000000	18.000000	88.000000
0.990000	61.790000	34.300000	1023.000000	0.000000	151.000000	56.000000	0.000000	59.000000
1.000000	61.610000	34.720000	1023.000000	0.000000	151.000000	56.000000	-18.000000	42.000000
1.010000	61.450000	35.230000	1023.000000	0.000000	151.000000	56.000000	-16.000000	51.000000
1.020000	61.120000	35.740000	1023.000000	0.000000	151.000000	56.000000	-33.000000	51.000000
1.030000	60.680000	36.270000	1023.000000	0.000000	151.000000	56.000000	-44.000000	53.000000
1.040000	60.270000	36.810000	1023.000000	0.000000	151.000000	56.000000	-41.000000	54.000000
1.050000	59.850000	37.220000	1023.000000	0.000000	151.000000	56.000000	-42.000000	41.000000
1.060000	59.350000	37.600000	1023.000000	0.000000	151.000000	56.000000	-50.000000	38.000000
1.070000	58.790000	37.670000	1023.000000	0.000000	150.000000	55.000000	-56.000000	7.000000
1.080000	57.970000	37.540000	1023.000000	0.000000	150.000000	55.000000	-82.000000	-13.000000
1.090000	57.050000	37.190000	1023.000000	0.000000	151.000000	54.000000	-92.000000	-35.000000
1.100000	56.070000	36.800000	1023.000000	0.000000	150.000000	54.000000	-98.000000	-39.000000
1.110000	55.210000	36.210000	1023.000000	0.000000	150.000000	54.000000	-86.000000	-59.000000
1.120000	54.390000	35.510000	1023.000000	0.000000	150.000000	54.000000	-82.000000	-70.000000
1.130000	53.740000	34.640000	1023.000000	0.000000	147.000000	55.000000	-65.000000	-87.000000
1.140000	53.180000	33.510000	1023.000000	0.000000	147.000000	55.000000	-56.000000	-113.000000
1.150000	52.700000	32.220000	1023.000000	0.000000	147.000000	55.000000	-48.000000	-129.000000
1.160000	52.370000	31.000000	1023.000000	0.000000	146.000000	55.000000	-33.000000	-122.000000
1.170000	52.150000	29.760000	1023.000000	0.000000	146.000000	55.000000	-22.000000	-124.000000
1.180000	51.970000	28.530000	1018.000000	0.000000	145.000000	56.000000	-18.000000	-123.000000
1.190000	51.970000	27.420000	1023.000000	0.000000	145.000000	56.000000	0.000000	-111.000000
1.200000	52.200000	26.380000	1023.000000	0.000000	143.000000	56.000000	23.000000	-104.000000
1.210000	52.520000	25.660000	1021.000000	0.000000	142.000000	57.000000	32.000000	-72.000000
1.220000	52.860000	25.040000	1021.000000	0.000000	140.000000	58.000000	34.000000	-62.000000
1.230000	53.240000	24.480000	1020.000000	0.000000	138.000000	58.000000	38.000000	-56.000000
1.240000	53.640000	24.070000	1023.000000	0.000000	136.000000	58.000000	40.000000	-41.000000
1.250000	54.090000	23.860000	1021.000000	0.000000	136.000000	58.000000	45.000000	-21.000000
1.260000	54.570000	23.790000	1023.000000	0.000000	136.000000	60.000000	48.000000	-7.000000
1.270000	55.010000	23.850000	1023.000000	0.000000	136.000000	60.000000	44.000000	6.000000
1.280000	55.410000	24.000000	1023.000000	0.000000	136.000000	60.000000	40.000000	15.000000
1.290000	55.880000	24.220000	1023.000000	0.000000	138.000000	60.000000	47.000000	22.000000
1.300000	56.390000	24.600000	1023.000000	0.000000	138.000000	60.000000	51.000000	38.000000
1.310000	56.980000	25.020000	1023.000000	0.000000	138.000000	60.000000	59.000000	42.000000
1.320000	57.620000	25.460000	1023.000000	0.000000	139.000000	61.000000	64.000000	44.000000
1.330000	58.330000	26.030000	1023.000000	0.000000	139.000000	61.000000	71.000000	57.000000
1.340000	58.900000	26.710000	1023.000000	0.000000	141.000000	61.000000	57.000000	68.000000
1.350000	59.370000	27.460000	1023.000000	0.000000	141.000000	61.000000	47.000000	75.000000
1.360000	59.700000	28.170000	1023.000000	0.000000	142.000000	61.000000	33.000000	71.000000
1.370000	59.880000	28.850000	1023.000000	0.000000	144.000000	60.000000	18.000000	68.000000
1.380000	59.970000	29.240000	1023.000000	0.000000	144.000000	60.000000	9.000000	39.000000
1.390000	59.970000	29.460000	1023.000000	0.000000	145.000000	59.000000	0.000000	22.000000
1.400000	59.970000	29.520000	1023.000000	0.000000	146.000000	58.000000	0.000000	6.000000
1.410000	59.970000	29.520000	1023.000000	0.000000	147.000000	58.000000	0.000000	0.000000
1.420000	59.890000	29.450000	1023.000000	0.000000	148.000000	57.000000	-8.000000	-7.000000
1.430000	59.780000	29.150000	1023.000000	0.000000	148.000000	57.000000	-11.000000	-30.000000
1.440000	59.640000	28.700000	1023.000000	0.000000	148.000000	56.000000	-14.000000	-45.000000
1.450000	59.490000	28.100000	1023.000000	0.000000	148.000000	56.000000	-15.000000	-60.000000
1.460000	59.390000	27.490000	1023.000000	0.000000	147.000000	56.000000	-10.000000	-61.000000
1.470000	59.460000	26.870000	1023.000000	0.000000	147.000000	56.000000	7.000000	-62.000000
1.480000	59.630000	26.340000	1023.000000	0.000000	146.000000	57.000000	17.000000	-53.000000
1.490000	59.990000	25.870000	1023.000000	0.000000	146.000000	58.000000	36.000000	-47.000000
1.500000	60.370000	25.460000	1023.000000	0.000000	145.000000	59.000000	38.000000	-41.000000
1.510000	60.790000	25.300000	1023.000000	0.000000	144.000000	60.000000	42.000000	-16.000000
1.520000	61.240000	25.300000	1023.000000	0.000000	144.000000	61.000000	45.000000	0.000000
1.530000	61.760000	25.530000	1023.000000	0.000000	144.000000	61.000000	52.000000	23.000000
1.540000	62.210000	25.940000	1023.000000	0.000000	143.000000	62.000000	45.000000	41.000000
1.550000	62.580000	26.480000	1023.000000	0.000000	144.000000	62.000000	37.000000	54.000000
1.560000	63.050000	27.240000	1023.000000	0.000000	144.000000	62.000000	47.000000	76.000000
1.570000	63.280000	27.970000	1023.000000	0.000000	146.000000	62.000000	23.000000	73.000000
1.580000	63.350000	28.470000	1023.000000	0.000000	147.000000	61.000000	7.000000	50.000000
1.590000	63.350000	28.820000	1023.000000	0.000000	147.000000	61.000000	0.000000	35.000000
1.600000	63.290000	28.880000	1023.000000	0.000000	148.000000	60.000000	-6.000000	6.000000
1.610000	63.240000	28.880000	1023.000000	0.000000	149.000000	59.000000	-5.000000	0.000000
1.620000	63.170000	28.760000	1023.000000	0.000000	150.000000	58.000000	-7.000000	-12.000000
1.630000	63.010000	28.490000	1023.000000	0.000000	150.000000	58.000000	-16.000000	-27.000000
1.640000	62.790000	27.890000	1023.000000	0.000000	150.000000	58.000000	-22.000000	-60.000000
1.650000	62.660000	27.280000	1023.000000	0.000000	150.000000	58.000000	-13.000000	-61.000000
1.660000	62.660000	26.670000	1023.000000	0.000000	150.000000	58.000000	0.000000	-61.000000
1.670000	62.820000	26.200000	1023.000000	0.000000	149.000000	59.000000	16.000000	-47.000000
1.680000	63.060000	25.810000	1023.000000	0.000000	148.000000	60.000000	24.000000	-39.000000
1.690000	63.300000	25.580000	1023.000000	0.000000	148.000000	60.000000	24.000000	-23.000000
1.700000	63.570000	25.380000	1023.000000	0.000000	145.000000	60.000000	27.000000	-20.000000
1.710000	63.910000	25.210000	1023.000000	0.000000	144.000000	61.000000	34.000000	-17.000000
1.720000	64.270000	25.260000	1023.000000	0.000000	144.000000	61.000000	36.000000	5.000000
1.730000	64.620000	25.340000	1023.000000	0.000000	143.000000	62.000000	35.000000	8.000000
1.740000	65.000000	25.450000	1023.000000	0.000000	143.000000	62.000000	38.000000	11.000000
1.750000	65.280000	25.580000	1023.000000	0.000000	143.000000	62.000000	28.000000	13.000000
1.760000	65.500000	25.870000	1023.000000	0.000000	144.000000	62.000000	22.000000	29.000000
1.770000	65.820000	26.270000	1023.000000	0.000000	144.000000	62.000000	32.000000	40.000000
1.780000	66.110000	26.760000	1023.000000	0.000000	144.000000	62.000000	29.000000	49.000000
1.790000	66.350000	27.470000	1023.000000	0.000000	147.000000	62.000000	24.000000	71.000000
1.800000	66.580000	28.320000	1023.000000	0.000000	147.000000	62.000000	23.000000	85.000000
1.810000	66.730000	28.950000	1023.000000	0.000000	148.000000	61.000000	15.000000	63.000000
1.820000	66.730000	29.530000	1023.000000	0.000000	151.000000	61.000000	0.000000	58.000000
1.830000	66.730000	29.790000	1023.000000	0.000000	152.000000	60.000000	0.000000	26.000000
1.840000	66.540000	29.850000	1023.000000	0.000000	155.000000	60.000000	-19.000000	6.000000
1.850000	66.380000	29.850000	1023.000000	0.000000	156.000000	59.000000	-16.000000	0.000000
1.860000	66.130000	29.850000	1023.000000	0.000000	156.000000	59.000000	-25.000000	0.000000
1.870000	65.820000	29.640000	1023.000000	0.000000	156.000000	59.000000	-31.000000	-21.000000
1.880000	65.430000	29.300000	1023.000000	0.000000	157.000000	58.000000	-39.000000	-34.000000
1.890000	65.050000	28.860000	1023.000000	0.000000	157.000000	58.000000	-38.000000	-44.000000
1.900000	64.700000	28.300000	1023.000000	0.000000	157.000000	58.000000	-35.000000	-56.000000
1.910000	64.400000	27.650000	1023.000000	0.000000	156.000000	59.000000	-30.000000	-65.000000
1.920000	64.160000	26.950000	1023.000000	0.000000	156.000000	59.000000	-24.000000	-70.000000
1.930000	64.160000	26.320000	1023.000000	0.000000	153.000000	59.000000	0.000000	-63.000000
1.940000	64.220000	25.780000	1023.000000	0.000000	152.000000	60.000000	6.000000	-54.000000
1.950000	64.480000	25.270000	1023.000000	0.000000	150.000000	60.000000	26.000000	-51.000000
1.960000	64.800000	24.900000	1023.000000	0.000000	148.000000	61.000000	32.000000	-37.000000
1.970000	65.170000	24.710000	1023.000000	0.000000	148.000000	61.000000	37.000000	-19.000000
1.980000	65.540000	24.630000	1023.000000	0.000000	146.000000	62.000000	37.000000	-8.000000
1.990000	65.950000	24.630000	1023.000000	0.000000	146.000000	62.000000	41.000000	0.000000
2.000000	66.390000	24.870000	1023.000000	0.000000	144.000000	62.000000	44.000000	24.000000
2.010000	66.890000	25.340000	1023.000000	0.000000	146.000000	63.000000	50.000000	47.000000
2.020000	67.290000	25.930000	1023.000000	0.000000	146.000000	63.000000	40.000000	59.000000
2.030000	67.620000	26.620000	1023.000000	0.000000	148.000000	63.000000	33.000000	69.000000
2.040000	67.880000	27.390000	1023.000000	0.000000	149.000000	63.000000	26.000000	77.000000
2.050000	67.980000	28.110000	1023.000000	0.000000	151.000000	63.000000	10.000000	72.000000
2.060000	67.980000	28.530000	1023.000000	0.000000	152.000000	62.000000	0.000000	42.000000
2.070000	67.890000	28.740000	1023.000000	0.000000	154.000000	63.000000	-9.000000	21.000000
2.080000	67.830000	28.740000	1023.000000	0.000000	155.000000	62.000000	-6.000000	0.000000
2.090000	67.830000	28.740000	1023.000000	0.000000	157.000000	61.000000	0.000000	0.000000
2.100000	67.830000	28.740000	1023.000000	0.000000	158.000000	60.000000	0.000000	0.000000
2.110000	67.830000	28.740000	1023.000000	0.000000	158.000000	60.000000	0.000000	0.000000
2.120000	67.830000	28.500000	1023.000000	0.000000	158.000000	60.000000	0.000000	-24.000000
2.130000	67.830000	28.080000	1023.000000	0.000000	158.000000	60.000000	0.000000	-42.000000
2.140000	67.830000	27.340000	1023.000000	0.000000	158.000000	60.000000	0.000000	-74.000000
2.150000	67.830000	26.710000	1023.000000	0.000000	158.000000	60.000000	0.000000	-63.000000
2.160000	67.780000	26.160000	1023.000000	0.000000	157.000000	61.000000	-5.000000	-55.000000
2.170000	67.950000	25.740000	1023.000000	0.000000	156.000000	62.000000	17.000000	-42.000000
2.180000	68.140000	25.480000	1023.000000	0.000000	156.000000	62.000000	19.000000	-26.000000
