t	x	y	pressure	penup	azimuth	inclination	v_x	v_y
0.000000	55.690000	49.350000	76.000000	1.000000	147.000000	55.000000	0.000000	0.000000
0.010000	55.680000	49.750000	103.000000	0.000000	147.000000	55.000000	-1.000000	40.000000
0.020000	55.530000	50.040000	186.000000	0.000000	147.000000	55.000000	-15.000000	29.000000
0.030000	55.300000	50.280000	230.000000	0.000000	147.000000	55.000000	-23.000000	24.000000
0.040000	55.010000	50.420000	273.000000	0.000000	147.000000	55.000000	-29.000000	14.000000
0.050000	54.670000	50.420000	317.000000	0.000000	148.000000	54.000000	-34.000000	0.000000
0.060000	54.220000	50.300000	340.000000	0.000000	148.000000	54.000000	-45.000000	-12.000000
0.070000	53.680000	49.970000	364.000000	0.000000	148.000000	54.000000	-54.000000	-33.000000
0.080000	53.080000	49.430000	420.000000	0.000000	147.000000	53.000000	-60.000000	-54.000000
0.090000	52.520000	48.760000	470.000000	0.000000	147.000000	53.000000	-56.000000	-67.000000
0.100000	52.110000	47.740000	532.000000	0.000000	146.000000	54.000000	-41.000000	-102.000000
0.110000	51.790000	46.690000	566.000000	0.000000	146.000000	54.000000	-32.000000	-105.000000
0.120000	51.610000	45.600000	600.000000	0.000000	144.000000	54.000000	-18.000000	-109.000000
0.130000	51.610000	44.730000	619.000000	0.000000	143.000000	55.000000	0.000000	-87.000000
0.140000	51.840000	44.010000	627.000000	0.000000	143.000000	55.000000	23.000000	-72.000000
0.150000	52.310000	43.580000	647.000000	0.000000	141.000000	56.000000	47.000000	-43.000000
0.160000	52.960000	43.460000	649.000000	0.000000	140.000000	56.000000	65.000000	-12.000000
0.170000	53.740000	43.540000	662.000000	0.000000	139.000000	57.000000	78.000000	8.000000
0.180000	54.640000	44.050000	668.000000	0.000000	139.000000	57.000000	90.000000	51.000000
0.190000	55.540000	44.730000	668.000000	0.000000	139.000000	57.000000	90.000000	68.000000
0.200000	56.270000	45.530000	664.000000	0.000000	139.000000	57.000000	73.000000	80.000000
0.210000	56.880000	46.280000	662.000000	0.000000	139.000000	57.000000	61.000000	75.000000
0.220000	57.330000	47.040000	650.000000	0.000000	140.000000	58.000000	45.000000	76.000000
0.230000	57.550000	47.800000	639.000000	0.000000	140.000000	58.000000	22.000000	76.000000
0.240000	57.610000	48.560000	624.000000	0.000000	142.000000	58.000000	6.000000	76.000000
0.250000	57.420000	49.260000	610.000000	0.000000	143.000000	57.000000	-19.000000	70.000000
0.260000	57.120000	49.920000	608.000000	0.000000	143.000000	57.000000	-30.000000	66.000000
0.270000	56.740000	50.400000	594.000000	0.000000	144.000000	57.000000	-38.000000	48.000000
0.280000	56.340000	50.830000	581.000000	0.000000	145.000000	56.000000	-40.000000	43.000000
0.290000	55.980000	51.050000	581.000000	0.000000	146.000000	55.000000	-36.000000	22.000000
0.300000	55.700000	51.140000	577.000000	0.000000	147.000000	55.000000	-28.000000	9.000000
0.310000	55.510000	51.140000	577.000000	0.000000	146.000000	54.000000	-19.000000	0.000000
0.320000	55.400000	51.140000	574.000000	0.000000	147.000000	53.000000	-11.000000	0.000000
0.330000	55.320000	51.080000	567.000000	0.000000	147.000000	53.000000	-8.000000	-6.000000
0.340000	55.250000	51.000000	570.000000	0.000000	146.000000	53.000000	-7.000000	-8.000000
0.350000	55.180000	50.910000	557.000000	0.000000	146.000000	53.000000	-7.000000	-9.000000
0.360000	55.120000	50.770000	546.000000	0.000000	146.000000	53.000000	-6.000000	-14.000000
0.370000	55.060000	50.580000	543.000000	0.000000	145.000000	53.000000	-6.000000	-19.000000
0.380000	54.990000	50.380000	540.000000	0.000000	145.000000	53.000000	-7.000000	-20.000000
0.390000	54.910000	50.220000	537.000000	0.000000	145.000000	53.000000	-8.000000	-16.000000
0.400000	54.850000	50.080000	540.000000	0.000000	145.000000	53.000000	-6.000000	-14.000000
0.410000	54.770000	49.930000	540.000000	0.000000	145.000000	53.000000	-8.000000	-15.000000
0.420000	54.680000	49.830000	541.000000	0.000000	145.000000	53.000000	-9.000000	-10.000000
0.430000	54.600000	49.770000	540.000000	0.000000	145.000000	53.000000	-8.000000	-6.000000
0.440000	54.600000	49.770000	541.000000	0.000000	145.000000	53.000000	0.000000	0.000000
0.450000	54.600000	49.770000	541.000000	0.000000	145.000000	53.000000	0.000000	0.000000
0.460000	54.600000	49.770000	537.000000	0.000000	145.000000	53.000000	0.000000	0.000000
0.470000	54.600000	49.630000	540.000000	0.000000	145.000000	53.000000	0.000000	-14.000000
0.480000	54.550000	49.430000	540.000000	0.000000	145.000000	53.000000	-5.000000	-20.000000
0.490000	54.490000	49.180000	540.000000	0.000000	143.000000	53.000000	-6.000000	-25.000000
0.500000	54.490000	48.940000	544.000000	0.000000	143.000000	53.000000	0.000000	-24.000000
0.510000	54.410000	48.700000	540.000000	0.000000	143.000000	53.000000	-8.000000	-24.000000
0.520000	54.340000	48.380000	550.000000	0.000000	143.000000	53.000000	-7.000000	-32.000000
0.530000	54.260000	48.030000	561.000000	0.000000	142.000000	54.000000	-8.000000	-35.000000
0.540000	54.210000	47.660000	568.000000	0.000000	142.000000	54.000000	-5.000000	-37.000000
0.550000	54.160000	47.360000	568.000000	0.000000	142.000000	54.000000	-5.000000	-30.000000
0.560000	54.160000	47.100000	564.000000	0.000000	141.000000	55.000000	0.000000	-26.000000
0.570000	54.160000	46.760000	567.000000	0.000000	141.000000	55.000000	0.000000	-34.000000
0.580000	54.050000	46.460000	584.000000	0.000000	140.000000	55.000000	-11.000000	-30.000000
0.590000	53.960000	46.190000	592.000000	0.000000	140.000000	55.000000	-9.000000	-27.000000
0.600000	53.880000	45.870000	585.000000	0.000000	139.000000	56.000000	-8.000000	-32.000000
0.610000	53.780000	45.550000	591.000000	0.000000	138.000000	57.000000	-10.000000	-32.000000
0.620000	53.670000	45.220000	595.000000	0.000000	138.000000	57.000000	-11.000000	-33.000000
0.630000	53.580000	44.950000	609.000000	0.000000	136.000000	57.000000	-9.000000	-27.000000
0.640000	53.510000	44.710000	614.000000	0.000000	136.000000	57.000000	-7.000000	-24.000000
0.650000	53.450000	44.470000	620.000000	0.000000	136.000000	57.000000	-6.000000	-24.000000
0.660000	53.340000	44.250000	611.000000	0.000000	136.000000	57.000000	-11.000000	-22.000000
0.670000	53.200000	44.090000	620.000000	0.000000	136.000000	57.000000	-14.000000	-16.000000
0.680000	53.030000	43.970000	610.000000	0.000000	136.000000	57.000000	-17.000000	-12.000000
0.690000	52.740000	43.770000	619.000000	0.000000	136.000000	57.000000	-29.000000	-20.000000
0.700000	52.380000	43.540000	619.000000	0.000000	136.000000	57.000000	-36.000000	-23.000000
0.710000	51.970000	43.370000	620.000000	0.000000	138.000000	57.000000	-41.000000	-17.000000
0.720000	51.590000	43.250000	620.000000	0.000000	138.000000	57.000000	-38.000000	-12.000000
0.730000	51.280000	43.250000	611.000000	0.000000	138.000000	57.000000	-31.000000	0.000000
0.740000	51.120000	43.250000	620.000000	0.000000	138.000000	57.000000	-16.000000	0.000000
0.750000	51.120000	43.250000	610.000000	0.000000	138.000000	57.000000	0.000000	0.000000
0.760000	50.960000	43.510000	613.000000	0.000000	138.000000	57.000000	-16.000000	26.000000
0.770000	50.870000	43.710000	608.000000	0.000000	139.000000	57.000000	-9.000000	20.000000
0.780000	50.790000	43.970000	608.000000	0.000000	139.000000	57.000000	-8.000000	26.000000
0.790000	50.730000	44.200000	606.000000	0.000000	139.000000	57.000000	-6.000000	23.000000
0.800000	50.730000	44.440000	599.000000	0.000000	139.000000	57.000000	0.000000	24.000000
0.810000	50.880000	44.690000	594.000000	0.000000	139.000000	57.000000	15.000000	25.000000
0.820000	51.010000	44.910000	600.000000	0.000000	139.000000	57.000000	13.000000	22.000000
0.830000	51.180000	45.110000	591.000000	0.000000	138.000000	58.000000	17.000000	20.000000
0.840000	51.390000	45.310000	595.000000	0.000000	138.000000	58.000000	21.000000	20.000000
0.850000	51.620000	45.480000	584.000000	0.000000	136.000000	57.000000	23.000000	17.000000
0.860000	51.830000	45.640000	578.000000	0.000000	136.000000	57.000000	21.000000	16.000000
0.870000	52.040000	45.710000	569.000000	0.000000	136.000000	57.000000	21.000000	7.000000
0.880000	52.240000	45.710000	569.000000	0.000000	136.000000	57.000000	20.000000	0.000000
0.890000	52.470000	45.710000	569.000000	0.000000	136.000000	57.000000	23.000000	0.000000
0.900000	52.710000	45.710000	570.000000	0.000000	136.000000	57.000000	24.000000	0.000000
0.910000	52.970000	45.710000	569.000000	0.000000	136.000000	57.000000	26.000000	0.000000
0.920000	53.240000	45.710000	569.000000	0.000000	136.000000	57.000000	27.000000	0.000000
0.930000	53.470000	45.660000	570.000000	0.000000	136.000000	57.000000	23.000000	-5.000000
0.940000	53.660000	45.610000	569.000000	0.000000	136.000000	57.000000	19.000000	-5.000000
0.950000	53.850000	45.540000	570.000000	0.000000	136.000000	57.000000	19.000000	-7.000000
0.960000	54.000000	45.440000	570.000000	0.000000	136.000000	57.000000	15.000000	-10.000000
0.970000	54.130000	45.330000	572.000000	0.000000	136.000000	57.000000	13.000000	-11.000000
0.980000	54.220000	45.200000	575.000000	0.000000	136.000000	57.000000	9.000000	-13.000000
0.990000	54.290000	45.060000	578.000000	0.000000	136.000000	57.000000	7.000000	-14.000000
1.000000	54.340000	44.910000	581.000000	0.000000	136.000000	57.000000	5.000000	-15.000000
1.010000	54.440000	44.770000	583.000000	0.000000	136.000000	57.000000	10.000000	-14.000000
1.020000	54.530000	44.630000	583.000000	0.000000	136.000000	57.000000	9.000000	-14.000000
1.030000	54.630000	44.530000	584.000000	0.000000	136.000000	57.000000	10.000000	-10.000000
1.040000	54.740000	44.460000	583.000000	0.000000	136.000000	57.000000	11.000000	-7.000000
1.050000	54.850000	44.360000	586.000000	0.000000	136.000000	57.000000	11.000000	-10.000000
1.060000	54.920000	44.290000	586.000000	0.000000	136.000000	57.000000	7.000000	-7.000000
1.070000	54.920000	44.230000	586.000000	0.000000	136.000000	57.000000	0.000000	-6.000000
1.080000	54.920000	44.230000	586.000000	0.000000	136.000000	57.000000	0.000000	0.000000
1.090000	54.970000	44.230000	584.000000	0.000000	136.000000	57.000000	5.000000	0.000000
1.100000	54.970000	44.230000	581.000000	0.000000	136.000000	57.000000	0.000000	0.000000
1.110000	54.970000	44.230000	578.000000	0.000000	138.000000	57.000000	0.000000	0.000000
1.120000	54.970000	44.230000	578.000000	0.000000	138.000000	57.000000	0.000000	0.000000
1.130000	55.090000	44.170000	578.000000	0.000000	138.000000	57.000000	12.000000	-6.000000
1.140000	55.180000	44.170000	580.000000	0.000000	138.000000	57.000000	9.000000	0.000000
1.150000	55.270000	44.170000	578.000000	0.000000	138.000000	57.000000	9.000000	0.000000
1.160000	55.340000	44.120000	580.000000	0.000000	138.000000	57.000000	7.000000	-5.000000
1.170000	55.410000	44.120000	584.000000	0.000000	139.000000	57.000000	7.000000	0.000000
1.180000	55.530000	44.120000	586.000000	0.000000	139.000000	57.000000	12.000000	0.000000
1.190000	55.670000	44.120000	586.000000	0.000000	139.000000	57.000000	14.000000	0.000000
1.200000	55.820000	44.120000	584.000000	0.000000	139.000000	57.000000	15.000000	0.000000
1.210000	55.940000	44.060000	589.000000	0.000000	139.000000	57.000000	12.000000	-6.000000
1.220000	56.030000	43.980000	589.000000	0.000000	139.000000	57.000000	9.000000	-8.000000
1.230000	56.180000	43.980000	592.000000	0.000000	140.000000	58.000000	15.000000	0.000000
1.240000	56.330000	43.930000	592.000000	0.000000	140.000000	58.000000	15.000000	-5.000000
1.250000	56.480000	43.930000	595.000000	0.000000	140.000000	58.000000	15.000000	0.000000
1.260000	56.480000	43.930000	595.000000	0.000000	140.000000	58.000000	0.000000	0.000000
1.270000	56.480000	43.930000	585.000000	0.000000	140.000000	58.000000	0.000000	0.000000
1.280000	56.920000	43.880000	585.000000	0.000000	142.000000	58.000000	44.000000	-5.000000
1.290000	57.160000	43.960000	586.000000	0.000000	142.000000	58.000000	24.000000	8.000000
1.300000	57.380000	44.020000	586.000000	0.000000	142.000000	58.000000	22.000000	6.000000
1.310000	57.600000	44.090000	595.000000	0.000000	142.000000	58.000000	22.000000	7.000000
1.320000	57.840000	44.140000	586.000000	0.000000	143.000000	59.000000	24.000000	5.000000
1.330000	58.090000	44.230000	588.000000	0.000000	143.000000	59.000000	25.000000	9.000000
1.340000	58.340000	44.350000	588.000000	0.000000	143.000000	59.000000	25.000000	12.000000
1.350000	58.580000	44.420000	589.000000	0.000000	145.000000	59.000000	24.000000	7.000000
1.360000	58.840000	44.580000	589.000000	0.000000	145.000000	59.000000	26.000000	16.000000
1.370000	59.160000	44.810000	589.000000	0.000000	145.000000	59.000000	32.000000	23.000000
1.380000	59.460000	45.030000	589.000000	0.000000	146.000000	60.000000	30.000000	22.000000
1.390000	59.730000	45.290000	588.000000	0.000000	146.000000	60.000000	27.000000	26.000000
1.400000	59.950000	45.580000	588.000000	0.000000	147.000000	61.000000	22.000000	29.000000
1.410000	60.110000	45.810000	589.000000	0.000000	147.000000	61.000000	16.000000	23.000000
1.420000	60.230000	46.060000	586.000000	0.000000	148.000000	61.000000	12.000000	25.000000
1.430000	60.230000	46.310000	594.000000	0.000000	148.000000	61.000000	0.000000	25.000000
1.440000	60.230000	46.500000	586.000000	0.000000	148.000000	61.000000	0.000000	19.000000
1.450000	60.130000	46.620000	580.000000	0.000000	148.000000	61.000000	-10.000000	12.000000
1.460000	59.960000	46.690000	572.000000	0.000000	148.000000	61.000000	-17.000000	7.000000
1.470000	59.770000	46.750000	569.000000	0.000000	150.000000	60.000000	-19.000000	6.000000
1.480000	59.560000	46.750000	564.000000	0.000000	150.000000	60.000000	-21.000000	0.000000
1.490000	59.300000	46.660000	567.000000	0.000000	150.000000	60.000000	-26.000000	-9.000000
1.500000	59.050000	46.540000	567.000000	0.000000	150.000000	60.000000	-25.000000	-12.000000
1.510000	58.800000	46.390000	562.000000	0.000000	150.000000	60.000000	-25.000000	-15.000000
1.520000	58.720000	46.230000	561.000000	0.000000	150.000000	60.000000	-8.000000	-16.000000
1.530000	58.670000	46.020000	561.000000	0.000000	150.000000	60.000000	-5.000000	-21.000000
1.540000	58.670000	45.760000	561.000000	0.000000	148.000000	60.000000	0.000000	-26.000000
1.550000	58.760000	45.400000	565.000000	0.000000	147.000000	61.000000	9.000000	-36.000000
1.560000	58.830000	45.070000	564.000000	0.000000	147.000000	61.000000	7.000000	-33.000000
1.570000	58.910000	44.760000	574.000000	0.000000	145.000000	60.000000	8.000000	-31.000000
1.580000	59.000000	44.490000	574.000000	0.000000	145.000000	60.000000	9.000000	-27.000000
1.590000	59.140000	44.310000	580.000000	0.000000	147.000000	61.000000	14.000000	-18.000000
1.600000	59.300000	44.200000	588.000000	0.000000	147.000000	61.000000	16.000000	-11.000000
1.610000	59.500000	44.060000	591.000000	0.000000	147.000000	61.000000	20.000000	-14.000000
1.620000	59.700000	44.060000	592.000000	0.000000	150.000000	60.000000	20.000000	0.000000
1.630000	59.930000	44.110000	592.000000	0.000000	150.000000	60.000000	23.000000	5.000000
1.640000	60.190000	44.200000	592.000000	0.000000	150.000000	60.000000	26.000000	9.000000
1.650000	60.460000	44.290000	595.000000	0.000000	150.000000	60.000000	27.000000	9.000000
1.660000	60.720000	44.390000	595.000000	0.000000	150.000000	60.000000	26.000000	10.000000
1.670000	60.940000	44.520000	594.000000	0.000000	150.000000	60.000000	22.000000	13.000000
1.680000	61.130000	44.700000	594.000000	0.000000	150.000000	60.000000	19.000000	18.000000
1.690000	61.370000	44.930000	588.000000	0.000000	150.000000	60.000000	24.000000	23.000000
1.700000	61.610000	45.150000	581.000000	0.000000	150.000000	60.000000	24.000000	22.000000
1.710000	61.780000	45.350000	580.000000	0.000000	148.000000	61.000000	17.000000	20.000000
1.720000	61.890000	45.540000	575.000000	0.000000	147.000000	61.000000	11.000000	19.000000
1.730000	61.950000	45.730000	570.000000	0.000000	147.000000	61.000000	6.000000	19.000000
1.740000	61.950000	45.930000	567.000000	0.000000	147.000000	61.000000	0.000000	20.000000
1.750000	61.950000	46.120000	564.000000	0.000000	147.000000	61.000000	0.000000	19.000000
1.760000	61.890000	46.250000	564.000000	0.000000	147.000000	61.000000	-6.000000	13.000000
1.770000	61.840000	46.360000	561.000000	0.000000	147.000000	61.000000	-5.000000	11.000000
1.780000	61.840000	46.460000	570.000000	0.000000	147.000000	61.000000	0.000000	10.000000
1.790000	61.790000	46.560000	567.000000	0.000000	147.000000	61.000000	-5.000000	10.000000
1.800000	61.790000	46.670000	567.000000	0.000000	147.000000	61.000000	0.000000	11.000000
1.810000	61.790000	46.740000	562.000000	0.000000	147.000000	61.000000	0.000000	7.000000
1.820000	61.880000	46.740000	559.000000	0.000000	147.000000	61.000000	9.000000	0.000000
1.830000	61.970000	46.790000	561.000000	0.000000	148.000000	60.000000	9.000000	5.000000
1.840000	62.170000	46.790000	562.000000	0.000000	148.000000	60.000000	20.000000	0.000000
1.850000	62.430000	46.790000	567.000000	0.000000	148.000000	60.000000	26.000000	0.000000
1.860000	62.760000	46.840000	570.000000	0.000000	149.000000	59.000000	33.000000	5.000000
1.870000	63.050000	46.840000	570.000000	0.000000	149.000000	59.000000	29.000000	0.000000
1.880000	63.300000	46.840000	570.000000	0.000000	149.000000	59.000000	25.000000	0.000000
1.890000	63.530000	46.840000	560.000000	0.000000	149.000000	59.000000	23.000000	0.000000
1.900000	63.670000	46.840000	560.000000	0.000000	149.000000	59.000000	14.000000	0.000000
1.910000	63.760000	46.760000	560.000000	0.000000	149.000000	59.000000	9.000000	-8.000000
1.920000	63.810000	46.710000	564.000000	0.000000	147.000000	59.000000	5.000000	-5.000000
1.930000	63.810000	46.660000	564.000000	0.000000	147.000000	59.000000	0.000000	-5.000000
1.940000	63.810000	46.570000	569.000000	0.000000	147.000000	59.000000	0.000000	-9.000000
1.950000	63.750000	46.420000	570.000000	0.000000	146.000000	60.000000	-6.000000	-15.000000
1.960000	63.640000	46.160000	574.000000	0.000000	146.000000	60.000000	-11.000000	-26.000000
1.970000	63.490000	45.850000	578.000000	0.000000	146.000000	60.000000	-15.000000	-31.000000
1.980000	63.290000	45.520000	583.000000	0.000000	148.000000	60.000000	-20.000000	-33.000000
1.990000	63.140000	45.210000	586.000000	0.000000	148.000000	60.000000	-15.000000	-31.000000
2.000000	63.060000	44.980000	592.000000	0.000000	148.000000	60.000000	-8.000000	-23.000000
2.010000	63.060000	44.780000	595.000000	0.000000	148.000000	60.000000	0.000000	-20.000000
2.020000	63.160000	44.570000	609.000000	0.000000	148.000000	60.000000	10.000000	-21.000000
2.030000	63.270000	44.380000	613.000000	0.000000	148.000000	60.000000	11.000000	-19.000000
2.040000	63.390000	44.220000	611.000000	0.000000	148.000000	60.000000	12.000000	-16.000000
2.050000	63.530000	44.040000	624.000000	0.000000	148.000000	60.000000	14.000000	-18.000000
2.060000	63.700000	43.870000	627.000000	0.000000	148.000000	60.000000	17.000000	-17.000000
2.070000	63.900000	43.780000	636.000000	0.000000	148.000000	60.000000	20.000000	-9.000000
2.080000	64.160000	43.780000	638.000000	0.000000	148.000000	60.000000	26.000000	0.000000
2.090000	64.530000	43.730000	644.000000	0.000000	148.000000	60.000000	37.000000	-5.000000
2.100000	64.860000	43.780000	645.000000	0.000000	148.000000	60.000000	33.000000	5.000000
2.110000	65.150000	43.890000	645.000000	0.000000	148.000000	60.000000	29.000000	11.000000
2.120000	65.580000	44.040000	647.000000	0.000000	148.000000	60.000000	43.000000	15.000000
2.130000	65.970000	44.260000	647.000000	0.000000	150.000000	60.000000	39.000000	22.000000
2.140000	66.340000	44.530000	647.000000	0.000000	150.000000	60.000000	37.000000	27.000000
2.150000	66.680000	44.750000	644.000000	0.000000	150.000000	60.000000	34.000000	22.000000
2.160000	67.040000	44.990000	625.000000	0.000000	151.000000	61.000000	36.000000	24.000000
2.170000	67.400000	45.300000	619.000000	0.000000	151.000000	61.000000	36.000000	31.000000
2.180000	67.730000	45.650000	617.000000	0.000000	151.000000	61.000000	33.000000	35.000000
2.190000	67.920000	45.990000	606.000000	0.000000	153.000000	61.000000	19.000000	34.000000
2.200000	68.010000	46.320000	603.000000	0.000000	153.000000	61.000000	9.000000	33.000000
