t	x	y	pressure	penup	azimuth	inclination	v_x	v_y
0.000000	94.870000	83.810000	70.000000	1.000000	111.000000	61.000000	0.000000	0.000000
0.010000	95.140000	84.890000	235.000000	0.000000	112.000000	62.000000	27.000000	108.000000
0.020000	95.140000	85.440000	314.000000	0.000000	114.000000	62.000000	0.000000	55.000000
0.030000	94.980000	85.530000	354.000000	0.000000	115.000000	63.000000	-16.000000	9.000000
0.040000	94.860000	85.610000	397.000000	0.000000	115.000000	63.000000	-12.000000	8.000000
0.050000	94.630000	85.680000	423.000000	0.000000	116.000000	64.000000	-23.000000	7.000000
0.060000	94.320000	85.540000	420.000000	0.000000	117.000000	63.000000	-31.000000	-14.000000
0.070000	93.840000	84.940000	420.000000	0.000000	119.000000	64.000000	-48.000000	-60.000000
0.080000	93.200000	84.040000	428.000000	0.000000	119.000000	64.000000	-64.000000	-90.000000
0.090000	92.460000	82.790000	428.000000	0.000000	117.000000	65.000000	-74.000000	-125.000000
0.100000	91.810000	81.530000	447.000000	0.000000	116.000000	64.000000	-65.000000	-126.000000
0.110000	91.210000	80.390000	491.000000	0.000000	116.000000	64.000000	-60.000000	-114.000000
0.120000	90.870000	79.330000	512.000000	0.000000	114.000000	64.000000	-34.000000	-106.000000
0.130000	90.680000	78.530000	519.000000	0.000000	113.000000	63.000000	-19.000000	-80.000000
0.140000	90.680000	78.000000	520.000000	0.000000	113.000000	63.000000	0.000000	-53.000000
0.150000	90.770000	77.660000	515.000000	0.000000	112.000000	64.000000	9.000000	-34.000000
0.160000	90.920000	77.520000	518.000000	0.000000	110.000000	65.000000	15.000000	-14.000000
0.170000	91.140000	77.520000	532.000000	0.000000	108.000000	66.000000	22.000000	0.000000
0.180000	91.420000	77.720000	543.000000	0.000000	108.000000	66.000000	28.000000	20.000000
0.190000	91.820000	78.210000	543.000000	0.000000	107.000000	67.000000	40.000000	49.000000
0.200000	92.290000	79.010000	542.000000	0.000000	107.000000	67.000000	47.000000	80.000000
0.210000	92.790000	80.010000	538.000000	0.000000	107.000000	67.000000	50.000000	100.000000
0.220000	93.290000	80.960000	526.000000	0.000000	106.000000	66.000000	50.000000	95.000000
0.230000	93.830000	81.680000	519.000000	0.000000	108.000000	66.000000	54.000000	72.000000
0.240000	94.250000	82.240000	448.000000	0.000000	108.000000	65.000000	42.000000	56.000000
0.250000	94.600000	82.850000	427.000000	0.000000	110.000000	65.000000	35.000000	61.000000
0.260000	94.990000	83.500000	384.000000	0.000000	110.000000	65.000000	39.000000	65.000000
0.270000	95.320000	84.170000	351.000000	0.000000	111.000000	64.000000	33.000000	67.000000
0.280000	95.620000	84.720000	309.000000	0.000000	111.000000	64.000000	30.000000	55.000000
0.290000	95.980000	85.230000	259.000000	0.000000	112.000000	64.000000	36.000000	51.000000
0.300000	96.330000	85.640000	242.000000	0.000000	114.000000	64.000000	35.000000	41.000000
0.310000	96.530000	85.760000	269.000000	0.000000	114.000000	64.000000	20.000000	12.000000
0.320000	96.640000	85.700000	343.000000	0.000000	115.000000	65.000000	11.000000	-6.000000
0.330000	96.500000	85.170000	448.000000	0.000000	115.000000	65.000000	-14.000000	-53.000000
0.340000	96.130000	84.220000	510.000000	0.000000	116.000000	66.000000	-37.000000	-95.000000
0.350000	95.610000	83.000000	530.000000	0.000000	116.000000	66.000000	-52.000000	-122.000000
0.360000	95.120000	81.950000	537.000000	0.000000	116.000000	66.000000	-49.000000	-105.000000
0.370000	94.750000	81.110000	530.000000	0.000000	115.000000	65.000000	-37.000000	-84.000000
0.380000	94.470000	80.410000	517.000000	0.000000	115.000000	65.000000	-28.000000	-70.000000
0.390000	94.360000	79.980000	505.000000	0.000000	112.000000	64.000000	-11.000000	-43.000000
0.400000	94.300000	79.740000	507.000000	0.000000	112.000000	64.000000	-6.000000	-24.000000
0.410000	94.300000	79.620000	505.000000	0.000000	109.000000	64.000000	0.000000	-12.000000
0.420000	94.300000	79.690000	512.000000	0.000000	109.000000	64.000000	0.000000	7.000000
0.430000	94.500000	80.090000	502.000000	0.000000	106.000000	63.000000	20.000000	40.000000
0.440000	94.760000	80.700000	466.000000	0.000000	106.000000	63.000000	26.000000	61.000000
0.450000	95.240000	81.680000	410.000000	0.000000	106.000000	63.000000	48.000000	98.000000
0.460000	95.760000	82.790000	379.000000	0.000000	106.000000	63.000000	52.000000	111.000000
0.470000	96.350000	84.000000	366.000000	0.000000	107.000000	64.000000	59.000000	121.000000
0.480000	96.610000	84.190000	407.000000	0.000000	109.000000	64.000000	26.000000	19.000000
0.490000	96.660000	83.880000	510.000000	0.000000	109.000000	64.000000	5.000000	-31.000000
0.500000	96.560000	83.250000	589.000000	0.000000	109.000000	64.000000	-10.000000	-63.000000
0.510000	96.360000	82.100000	662.000000	0.000000	112.000000	64.000000	-20.000000	-115.000000
0.520000	96.080000	81.010000	728.000000	0.000000	112.000000	64.000000	-28.000000	-109.000000
0.530000	95.830000	79.960000	808.000000	0.000000	110.000000	65.000000	-25.000000	-105.000000
0.540000	95.650000	79.030000	821.000000	0.000000	110.000000	65.000000	-18.000000	-93.000000
0.550000	95.520000	78.380000	846.000000	0.000000	110.000000	66.000000	-13.000000	-65.000000
0.560000	95.400000	77.930000	854.000000	0.000000	108.000000	66.000000	-12.000000	-45.000000
0.570000	95.400000	77.650000	854.000000	0.000000	108.000000	66.000000	0.000000	-28.000000
0.580000	95.400000	77.560000	851.000000	0.000000	106.000000	66.000000	0.000000	-9.000000
0.590000	95.400000	77.560000	851.000000	0.000000	105.000000	67.000000	0.000000	0.000000
0.600000	95.400000	77.560000	860.000000	0.000000	105.000000	67.000000	0.000000	0.000000
0.610000	95.400000	77.630000	861.000000	0.000000	105.000000	67.000000	0.000000	7.000000
0.620000	95.400000	77.630000	853.000000	0.000000	105.000000	67.000000	0.000000	0.000000
0.630000	95.400000	77.720000	869.000000	0.000000	105.000000	67.000000	0.000000	9.000000
0.640000	95.400000	77.770000	869.000000	0.000000	105.000000	67.000000	0.000000	5.000000
0.650000	95.400000	77.770000	858.000000	0.000000	105.000000	67.000000	0.000000	0.000000
0.660000	95.400000	77.770000	863.000000	0.000000	105.000000	67.000000	0.000000	0.000000
0.670000	95.400000	77.770000	869.000000	0.000000	105.000000	67.000000	0.000000	0.000000
0.680000	95.400000	77.770000	882.000000	0.000000	105.000000	68.000000	0.000000	0.000000
0.690000	95.400000	77.770000	900.000000	0.000000	105.000000	68.000000	0.000000	0.000000
0.700000	95.400000	77.770000	908.000000	0.000000	105.000000	68.000000	0.000000	0.000000
0.710000	95.400000	77.770000	893.000000	0.000000	105.000000	68.000000	0.000000	0.000000
0.720000	95.400000	77.770000	908.000000	0.000000	105.000000	68.000000	0.000000	0.000000
0.730000	95.400000	77.830000	906.000000	0.000000	105.000000	68.000000	0.000000	6.000000
0.740000	95.400000	77.830000	905.000000	0.000000	105.000000	68.000000	0.000000	0.000000
0.750000	95.400000	77.880000	906.000000	0.000000	105.000000	68.000000	0.000000	5.000000
0.760000	95.400000	77.880000	906.000000	0.000000	105.000000	68.000000	0.000000	0.000000
0.770000	95.400000	77.880000	905.000000	0.000000	105.000000	68.000000	0.000000	0.000000
0.780000	95.400000	77.880000	905.000000	0.000000	105.000000	68.000000	0.000000	0.000000
0.790000	95.400000	77.880000	899.000000	0.000000	105.000000	68.000000	0.000000	0.000000
0.800000	95.400000	77.880000	879.000000	0.000000	108.000000	68.000000	0.000000	0.000000
0.810000	95.400000	77.880000	861.000000	0.000000	108.000000	68.000000	0.000000	0.000000
0.820000	95.400000	77.880000	861.000000	0.000000	108.000000	68.000000	0.000000	0.000000
0.830000	95.400000	77.880000	854.000000	0.000000	108.000000	68.000000	0.000000	0.000000
0.840000	95.400000	77.880000	852.000000	0.000000	108.000000	68.000000	0.000000	0.000000
0.850000	95.400000	77.880000	854.000000	0.000000	108.000000	68.000000	0.000000	0.000000
0.860000	95.400000	77.880000	855.000000	0.000000	108.000000	68.000000	0.000000	0.000000
0.870000	95.400000	77.880000	855.000000	0.000000	108.000000	68.000000	0.000000	0.000000
0.880000	95.400000	77.880000	851.000000	0.000000	108.000000	68.000000	0.000000	0.000000
0.890000	95.400000	77.880000	845.000000	0.000000	108.000000	68.000000	0.000000	0.000000
0.900000	95.400000	77.880000	828.000000	0.000000	108.000000	68.000000	0.000000	0.000000
0.910000	95.400000	77.880000	819.000000	0.000000	108.000000	68.000000	0.000000	0.000000
0.920000	95.400000	77.880000	830.000000	0.000000	108.000000	68.000000	0.000000	0.000000
0.930000	95.400000	77.880000	827.000000	0.000000	108.000000	68.000000	0.000000	0.000000
0.940000	95.400000	77.930000	808.000000	0.000000	108.000000	68.000000	0.000000	5.000000
0.950000	95.400000	77.930000	749.000000	0.000000	108.000000	68.000000	0.000000	0.000000
0.960000	95.400000	77.930000	656.000000	0.000000	108.000000	68.000000	0.000000	0.000000
0.970000	95.460000	77.980000	501.000000	0.000000	108.000000	68.000000	6.000000	5.000000
0.980000	95.520000	78.050000	306.000000	0.000000	108.000000	68.000000	6.000000	7.000000
0.990000	95.620000	78.050000	47.000000	0.000000	108.000000	68.000000	10.000000	0.000000
1.000000	95.620000	78.050000	0.000000	1.000000	108.000000	68.000000	0.000000	0.000000
1.010000	95.620000	77.970000	0.000000	0.000000	108.000000	68.000000	0.000000	-8.000000
1.020000	95.620000	77.970000	0.000000	0.000000	108.000000	68.000000	0.000000	0.000000
1.030000	95.670000	78.060000	0.000000	0.000000	108.000000	68.000000	5.000000	9.000000
1.040000	95.740000	78.290000	0.000000	0.000000	108.000000	68.000000	7.000000	23.000000
1.050000	95.850000	78.560000	0.000000	0.000000	110.000000	68.000000	11.000000	27.000000
1.060000	96.000000	78.870000	0.000000	0.000000	110.000000	68.000000	15.000000	31.000000
1.070000	96.210000	79.080000	0.000000	0.000000	110.000000	68.000000	21.000000	21.000000
1.080000	96.490000	79.280000	0.000000	0.000000	110.000000	68.000000	28.000000	20.000000
1.090000	96.880000	79.450000	0.000000	0.000000	110.000000	68.000000	39.000000	17.000000
1.100000	97.340000	79.640000	0.000000	0.000000	108.000000	68.000000	46.000000	19.000000
1.110000	97.780000	79.850000	0.000000	0.000000	107.000000	67.000000	44.000000	21.000000
1.120000	98.280000	80.100000	0.000000	0.000000	105.000000	68.000000	50.000000	25.000000
1.130000	98.800000	80.410000	0.000000	0.000000	105.000000	68.000000	52.000000	31.000000
1.140000	99.310000	80.770000	0.000000	0.000000	103.000000	69.000000	51.000000	36.000000
1.150000	99.870000	81.030000	0.000000	0.000000	103.000000	69.000000	56.000000	26.000000
1.160000	100.260000	81.240000	0.000000	0.000000	102.000000	68.000000	39.000000	21.000000
1.170000	100.530000	81.310000	0.000000	0.000000	102.000000	68.000000	27.000000	7.000000
1.180000	100.530000	81.310000	0.000000	0.000000	102.000000	67.000000	0.000000	0.000000
1.190000	100.470000	81.250000	0.000000	0.000000	104.000000	66.000000	-6.000000	-6.000000
1.200000	100.350000	81.250000	0.000000	0.000000	103.000000	65.000000	-12.000000	0.000000
1.210000	100.290000	81.250000	0.000000	0.000000	103.000000	64.000000	-6.000000	0.000000
1.220000	100.240000	81.250000	0.000000	0.000000	105.000000	64.000000	-5.000000	0.000000
1.230000	100.150000	81.250000	0.000000	0.000000	104.000000	63.000000	-9.000000	0.000000
1.240000	100.030000	81.250000	0.000000	0.000000	104.000000	63.000000	-12.000000	0.000000
1.250000	99.890000	81.160000	0.000000	0.000000	104.000000	63.000000	-14.000000	-9.000000
1.260000	99.780000	81.160000	0.000000	0.000000	104.000000	63.000000	-11.000000	0.000000
1.270000	99.700000	81.160000	0.000000	0.000000	105.000000	64.000000	-8.000000	0.000000
1.280000	99.700000	81.160000	0.000000	0.000000	105.000000	64.000000	0.000000	0.000000
1.290000	99.640000	81.160000	0.000000	0.000000	105.000000	64.000000	-6.000000	0.000000
1.300000	99.590000	81.160000	0.000000	0.000000	105.000000	64.000000	-5.000000	0.000000
1.310000	99.520000	81.160000	0.000000	0.000000	105.000000	64.000000	-7.000000	0.000000
1.320000	99.520000	81.160000	0.000000	0.000000	105.000000	64.000000	0.000000	0.000000
1.330000	99.440000	81.160000	0.000000	0.000000	107.000000	64.000000	-8.000000	0.000000
1.340000	99.440000	81.160000	0.000000	0.000000	107.000000	64.000000	0.000000	0.000000
1.350000	99.360000	81.240000	0.000000	0.000000	107.000000	64.000000	-8.000000	8.000000
1.360000	99.310000	81.310000	0.000000	0.000000	107.000000	64.000000	-5.000000	7.000000
1.370000	99.310000	81.380000	0.000000	0.000000	108.000000	65.000000	0.000000	7.000000
1.380000	99.390000	81.510000	0.000000	0.000000	108.000000	65.000000	8.000000	13.000000
1.390000	99.480000	81.670000	0.000000	0.000000	108.000000	65.000000	9.000000	16.000000
1.400000	99.590000	81.870000	0.000000	0.000000	108.000000	65.000000	11.000000	20.000000
1.410000	99.730000	82.160000	0.000000	0.000000	108.000000	65.000000	14.000000	29.000000
1.420000	99.860000	82.520000	0.000000	0.000000	108.000000	65.000000	13.000000	36.000000
1.430000	100.040000	82.990000	0.000000	0.000000	108.000000	66.000000	18.000000	47.000000
1.440000	100.280000	83.690000	0.000000	0.000000	110.000000	66.000000	24.000000	70.000000
1.450000	100.650000	84.540000	0.000000	0.000000	110.000000	66.000000	37.000000	85.000000
1.460000	101.090000	85.360000	0.000000	0.000000	113.000000	65.000000	44.000000	82.000000
1.470000	101.380000	85.880000	0.000000	0.000000	113.000000	65.000000	29.000000	52.000000
1.480000	101.380000	85.880000	20.000000	1.000000	113.000000	65.000000	0.000000	0.000000
1.490000	101.410000	86.190000	88.000000	0.000000	115.000000	65.000000	3.000000	31.000000
1.500000	101.200000	85.820000	131.000000	0.000000	115.000000	65.000000	-21.000000	-37.000000
1.510000	100.800000	85.290000	146.000000	0.000000	115.000000	65.000000	-40.000000	-53.000000
1.520000	100.280000	84.260000	168.000000	0.000000	115.000000	65.000000	-52.000000	-103.000000
1.530000	99.550000	83.220000	250.000000	0.000000	115.000000	65.000000	-73.000000	-104.000000
1.540000	98.880000	82.300000	282.000000	0.000000	115.000000	65.000000	-67.000000	-92.000000
1.550000	98.320000	81.470000	315.000000	0.000000	115.000000	65.000000	-56.000000	-83.000000
1.560000	97.940000	80.610000	392.000000	0.000000	115.000000	65.000000	-38.000000	-86.000000
1.570000	97.670000	79.750000	475.000000	0.000000	113.000000	65.000000	-27.000000	-86.000000
1.580000	97.590000	78.880000	509.000000	0.000000	113.000000	65.000000	-8.000000	-87.000000
1.590000	97.590000	78.310000	520.000000	0.000000	111.000000	67.000000	0.000000	-57.000000
1.600000	97.730000	77.950000	520.000000	0.000000	111.000000	67.000000	14.000000	-36.000000
1.610000	98.030000	77.950000	532.000000	0.000000	109.000000	67.000000	30.000000	0.000000
1.620000	98.380000	78.280000	543.000000	0.000000	108.000000	68.000000	35.000000	33.000000
1.630000	98.840000	78.870000	553.000000	0.000000	108.000000	68.000000	46.000000	59.000000
1.640000	99.380000	79.630000	565.000000	0.000000	108.000000	68.000000	54.000000	76.000000
1.650000	99.770000	80.260000	568.000000	0.000000	109.000000	69.000000	39.000000	63.000000
1.660000	100.040000	80.800000	570.000000	0.000000	109.000000	69.000000	27.000000	54.000000
1.670000	100.220000	81.320000	553.000000	0.000000	109.000000	69.000000	18.000000	52.000000
1.680000	100.310000	81.580000	510.000000	0.000000	109.000000	69.000000	9.000000	26.000000
1.690000	100.310000	81.680000	435.000000	0.000000	109.000000	69.000000	0.000000	10.000000
1.700000	100.200000	81.680000	330.000000	0.000000	109.000000	69.000000	-11.000000	0.000000
1.710000	100.080000	81.450000	66.000000	0.000000	111.000000	69.000000	-12.000000	-23.000000
1.720000	100.080000	81.450000	0.000000	1.000000	111.000000	69.000000	0.000000	0.000000
1.730000	99.780000	81.000000	0.000000	0.000000	111.000000	69.000000	-30.000000	-45.000000
1.740000	99.780000	80.910000	0.000000	0.000000	111.000000	69.000000	0.000000	-9.000000
1.750000	99.780000	80.910000	0.000000	0.000000	110.000000	68.000000	0.000000	0.000000
1.760000	99.780000	80.910000	0.000000	0.000000	110.000000	68.000000	0.000000	0.000000
1.770000	99.880000	80.910000	0.000000	0.000000	110.000000	68.000000	10.000000	0.000000
1.780000	100.060000	81.040000	0.000000	0.000000	110.000000	68.000000	18.000000	13.000000
1.790000	100.310000	81.040000	0.000000	0.000000	110.000000	68.000000	25.000000	0.000000
1.800000	100.630000	81.100000	0.000000	0.000000	109.000000	67.000000	32.000000	6.000000
1.810000	101.000000	81.180000	0.000000	0.000000	109.000000	67.000000	37.000000	8.000000
1.820000	101.380000	81.300000	0.000000	0.000000	109.000000	67.000000	38.000000	12.000000
1.830000	101.670000	81.420000	0.000000	0.000000	109.000000	67.000000	29.000000	12.000000
1.840000	101.890000	81.520000	0.000000	0.000000	109.000000	67.000000	22.000000	10.000000
1.850000	102.040000	81.580000	0.000000	0.000000	109.000000	67.000000	15.000000	6.000000
1.860000	102.130000	81.630000	0.000000	0.000000	108.000000	66.000000	9.000000	5.000000
1.870000	102.190000	81.630000	0.000000	0.000000	108.000000	66.000000	6.000000	0.000000
1.880000	102.190000	81.630000	0.000000	0.000000	108.000000	66.000000	0.000000	0.000000
1.890000	102.190000	81.630000	0.000000	0.000000	108.000000	66.000000	0.000000	0.000000
1.900000	102.190000	81.540000	0.000000	0.000000	108.000000	66.000000	0.000000	-9.000000
1.910000	102.190000	81.430000	0.000000	0.000000	108.000000	66.000000	0.000000	-11.000000
1.920000	102.190000	81.380000	0.000000	0.000000	108.000000	66.000000	0.000000	-5.000000
1.930000	102.120000	81.380000	0.000000	0.000000	108.000000	66.000000	-7.000000	0.000000
1.940000	102.120000	81.380000	0.000000	0.000000	108.000000	66.000000	0.000000	0.000000
1.950000	102.040000	81.380000	0.000000	0.000000	109.000000	67.000000	-8.000000	0.000000
1.960000	102.040000	81.380000	0.000000	0.000000	109.000000	67.000000	0.000000	0.000000
1.970000	102.040000	81.380000	0.000000	0.000000	109.000000	67.000000	0.000000	0.000000
1.980000	102.040000	81.100000	0.000000	0.000000	109.000000	67.000000	0.000000	-28.000000
1.990000	102.090000	81.030000	0.000000	0.000000	109.000000	67.000000	5.000000	-7.000000
2.000000	102.090000	80.980000	0.000000	0.000000	109.000000	67.000000	0.000000	-5.000000
2.010000	102.090000	80.980000	0.000000	0.000000	109.000000	67.000000	0.000000	0.000000
2.020000	102.090000	81.050000	0.000000	0.000000	109.000000	67.000000	0.000000	7.000000
2.030000	102.090000	81.190000	0.000000	0.000000	109.000000	67.000000	0.000000	14.000000
2.040000	102.190000	81.410000	0.000000	0.000000	109.000000	67.000000	10.000000	22.000000
2.050000	102.270000	81.720000	0.000000	0.000000	109.000000	67.000000	8.000000	31.000000
2.060000	102.400000	82.080000	0.000000	0.000000	109.000000	67.000000	13.000000	36.000000
2.070000	102.590000	82.430000	0.000000	0.000000	109.000000	67.000000	19.000000	35.000000
2.080000	102.810000	82.790000	0.000000	0.000000	109.000000	67.000000	22.000000	36.000000
2.090000	103.030000	83.160000	0.000000	0.000000	109.000000	67.000000	22.000000	37.000000
2.100000	103.260000	83.520000	0.000000	0.000000	109.000000	67.000000	23.000000	36.000000
2.110000	103.420000	83.860000	0.000000	0.000000	111.000000	67.000000	16.000000	34.000000
2.120000	103.520000	84.200000	0.000000	0.000000	111.000000	67.000000	10.000000	34.000000
2.130000	103.600000	84.470000	0.000000	0.000000	114.000000	66.000000	8.000000	27.000000
2.140000	103.660000	84.710000	0.000000	0.000000	114.000000	66.000000	6.000000	24.000000
2.150000	103.660000	84.920000	0.000000	0.000000	113.000000	65.000000	0.000000	21.000000
2.160000	103.740000	85.120000	0.000000	0.000000	115.000000	65.000000	8.000000	20.000000
2.170000	103.740000	85.290000	0.000000	0.000000	115.000000	65.000000	0.000000	17.000000
2.180000	103.660000	85.440000	0.000000	0.000000	114.000000	64.000000	-8.000000	15.000000
2.190000	103.610000	85.560000	0.000000	0.000000	114.000000	64.000000	-5.000000	12.000000
2.200000	103.610000	85.560000	83.000000	1.000000	114.000000	64.000000	0.000000	0.000000
2.210000	103.150000	85.340000	153.000000	0.000000	114.000000	64.000000	-46.000000	-22.000000
2.220000	102.800000	84.880000	212.000000	0.000000	114.000000	64.000000	-35.000000	-46.000000
