t	x	y	pressure	penup	azimuth	inclination	v_x	v_y
0.000000	57.360000	70.790000	120.000000	1.000000	148.000000	50.000000	0.000000	0.000000
0.010000	57.340000	72.480000	205.000000	0.000000	149.000000	49.000000	-2.000000	169.000000
0.020000	56.880000	72.280000	282.000000	0.000000	150.000000	48.000000	-46.000000	-20.000000
0.030000	56.240000	71.240000	392.000000	0.000000	151.000000	47.000000	-64.000000	-104.000000
0.040000	55.260000	69.630000	486.000000	0.000000	153.000000	46.000000	-98.000000	-161.000000
0.050000	54.290000	67.070000	556.000000	0.000000	154.000000	45.000000	-97.000000	-256.000000
0.060000	52.770000	64.100000	595.000000	0.000000	154.000000	45.000000	-152.000000	-297.000000
0.070000	50.870000	60.870000	641.000000	0.000000	153.000000	45.000000	-190.000000	-323.000000
0.080000	49.740000	57.920000	664.000000	0.000000	152.000000	45.000000	-113.000000	-295.000000
0.090000	49.450000	56.560000	691.000000	0.000000	152.000000	46.000000	-29.000000	-136.000000
0.100000	49.730000	56.270000	702.000000	0.000000	150.000000	48.000000	28.000000	-29.000000
0.110000	50.390000	56.640000	697.000000	0.000000	149.000000	49.000000	66.000000	37.000000
0.120000	51.620000	58.210000	691.000000	0.000000	148.000000	50.000000	123.000000	157.000000
0.130000	53.230000	60.590000	688.000000	0.000000	147.000000	51.000000	161.000000	238.000000
0.140000	54.930000	63.500000	659.000000	0.000000	146.000000	52.000000	170.000000	291.000000
0.150000	56.620000	66.290000	622.000000	0.000000	145.000000	53.000000	169.000000	279.000000
0.160000	58.300000	69.010000	622.000000	0.000000	147.000000	52.000000	168.000000	272.000000
0.170000	58.910000	70.110000	638.000000	0.000000	147.000000	52.000000	61.000000	110.000000
0.180000	58.830000	69.860000	649.000000	0.000000	149.000000	52.000000	-8.000000	-25.000000
0.190000	58.130000	68.720000	671.000000	0.000000	150.000000	51.000000	-70.000000	-114.000000
0.200000	56.850000	67.060000	673.000000	0.000000	152.000000	51.000000	-128.000000	-166.000000
0.210000	55.170000	65.000000	694.000000	0.000000	152.000000	51.000000	-168.000000	-206.000000
0.220000	53.690000	62.680000	696.000000	0.000000	153.000000	50.000000	-148.000000	-232.000000
0.230000	52.820000	61.010000	703.000000	0.000000	153.000000	50.000000	-87.000000	-167.000000
0.240000	52.350000	60.380000	703.000000	0.000000	153.000000	50.000000	-47.000000	-63.000000
0.250000	52.700000	60.450000	700.000000	0.000000	153.000000	50.000000	35.000000	7.000000
0.260000	53.740000	60.930000	675.000000	0.000000	151.000000	50.000000	104.000000	48.000000
0.270000	55.250000	61.990000	655.000000	0.000000	150.000000	50.000000	151.000000	106.000000
0.280000	57.150000	63.430000	641.000000	0.000000	150.000000	50.000000	190.000000	144.000000
0.290000	58.530000	64.610000	636.000000	0.000000	150.000000	50.000000	138.000000	118.000000
0.300000	59.550000	64.960000	628.000000	0.000000	151.000000	50.000000	102.000000	35.000000
0.310000	59.640000	64.760000	631.000000	0.000000	152.000000	51.000000	9.000000	-20.000000
0.320000	59.410000	64.260000	633.000000	0.000000	153.000000	51.000000	-23.000000	-50.000000
0.330000	58.960000	63.580000	565.000000	0.000000	155.000000	51.000000	-45.000000	-68.000000
0.340000	58.480000	62.790000	343.000000	0.000000	156.000000	51.000000	-48.000000	-79.000000
0.350000	58.480000	62.790000	0.000000	1.000000	157.000000	52.000000	0.000000	0.000000
0.360000	58.920000	62.940000	0.000000	0.000000	158.000000	52.000000	44.000000	15.000000
0.370000	59.740000	63.560000	0.000000	0.000000	158.000000	52.000000	82.000000	62.000000
0.380000	60.610000	64.430000	0.000000	0.000000	158.000000	52.000000	87.000000	87.000000
0.390000	61.520000	64.870000	0.000000	0.000000	159.000000	51.000000	91.000000	44.000000
0.400000	62.430000	65.020000	0.000000	0.000000	159.000000	51.000000	91.000000	15.000000
0.410000	63.180000	65.670000	0.000000	0.000000	159.000000	51.000000	75.000000	65.000000
0.420000	63.830000	65.930000	0.000000	0.000000	159.000000	50.000000	65.000000	26.000000
0.430000	64.540000	65.930000	0.000000	0.000000	159.000000	49.000000	71.000000	0.000000
0.440000	65.280000	66.030000	0.000000	0.000000	161.000000	48.000000	74.000000	10.000000
0.450000	65.790000	65.940000	0.000000	0.000000	162.000000	48.000000	51.000000	-9.000000
0.460000	66.150000	65.730000	0.000000	0.000000	162.000000	47.000000	36.000000	-21.000000
0.470000	66.150000	65.380000	0.000000	0.000000	163.000000	47.000000	0.000000	-35.000000
0.480000	65.990000	65.020000	0.000000	0.000000	165.000000	47.000000	-16.000000	-36.000000
0.490000	65.640000	64.630000	0.000000	0.000000	166.000000	46.000000	-35.000000	-39.000000
0.500000	65.210000	64.210000	0.000000	0.000000	166.000000	47.000000	-43.000000	-42.000000
0.510000	64.780000	63.600000	0.000000	0.000000	166.000000	47.000000	-43.000000	-61.000000
0.520000	64.340000	62.870000	0.000000	0.000000	165.000000	48.000000	-44.000000	-73.000000
0.530000	63.910000	63.150000	0.000000	0.000000	164.000000	48.000000	-43.000000	28.000000
0.540000	63.480000	62.980000	0.000000	0.000000	162.000000	49.000000	-43.000000	-17.000000
0.550000	63.040000	62.510000	0.000000	0.000000	159.000000	49.000000	-44.000000	-47.000000
0.560000	62.860000	62.320000	0.000000	0.000000	157.000000	50.000000	-18.000000	-19.000000
0.570000	62.700000	62.250000	0.000000	0.000000	154.000000	50.000000	-16.000000	-7.000000
0.580000	62.550000	62.250000	0.000000	0.000000	152.000000	51.000000	-15.000000	0.000000
0.590000	62.620000	62.340000	0.000000	0.000000	150.000000	51.000000	7.000000	9.000000
0.600000	62.690000	62.530000	0.000000	0.000000	150.000000	51.000000	7.000000	19.000000
0.610000	62.760000	62.790000	0.000000	0.000000	150.000000	51.000000	7.000000	26.000000
0.620000	62.860000	62.540000	0.000000	0.000000	149.000000	51.000000	10.000000	-25.000000
0.630000	62.980000	62.890000	0.000000	0.000000	150.000000	51.000000	12.000000	35.000000
0.640000	62.980000	63.640000	0.000000	0.000000	151.000000	50.000000	0.000000	75.000000
0.650000	62.780000	63.640000	0.000000	0.000000	151.000000	50.000000	-20.000000	0.000000
0.660000	62.630000	63.310000	0.000000	0.000000	153.000000	50.000000	-15.000000	-33.000000
0.670000	62.520000	62.840000	0.000000	0.000000	153.000000	50.000000	-11.000000	-47.000000
0.680000	62.520000	63.440000	0.000000	0.000000	154.000000	49.000000	0.000000	60.000000
0.690000	62.460000	63.530000	0.000000	0.000000	154.000000	49.000000	-6.000000	9.000000
0.700000	62.460000	63.290000	0.000000	0.000000	155.000000	49.000000	0.000000	-24.000000
0.710000	62.520000	63.350000	0.000000	0.000000	155.000000	49.000000	6.000000	6.000000
0.720000	62.640000	63.450000	0.000000	0.000000	155.000000	49.000000	12.000000	10.000000
0.730000	62.810000	63.590000	0.000000	0.000000	155.000000	49.000000	17.000000	14.000000
0.740000	62.970000	63.720000	0.000000	0.000000	155.000000	49.000000	16.000000	13.000000
0.750000	63.060000	63.840000	0.000000	0.000000	156.000000	50.000000	9.000000	12.000000
0.760000	63.110000	63.940000	0.000000	0.000000	156.000000	50.000000	5.000000	10.000000
0.770000	63.180000	64.000000	0.000000	0.000000	156.000000	50.000000	7.000000	6.000000
0.780000	63.260000	64.160000	0.000000	0.000000	156.000000	50.000000	8.000000	16.000000
0.790000	63.380000	64.390000	0.000000	0.000000	156.000000	50.000000	12.000000	23.000000
0.800000	63.520000	64.670000	0.000000	0.000000	156.000000	50.000000	14.000000	28.000000
0.810000	63.700000	65.020000	0.000000	0.000000	156.000000	50.000000	18.000000	35.000000
0.820000	63.940000	65.430000	0.000000	0.000000	156.000000	50.000000	24.000000	41.000000
0.830000	64.250000	65.820000	0.000000	0.000000	155.000000	50.000000	31.000000	39.000000
0.840000	64.590000	66.190000	0.000000	0.000000	155.000000	50.000000	34.000000	37.000000
0.850000	64.900000	66.510000	0.000000	0.000000	157.000000	51.000000	31.000000	32.000000
0.860000	65.200000	66.850000	0.000000	0.000000	157.000000	51.000000	30.000000	34.000000
0.870000	65.600000	67.290000	0.000000	0.000000	156.000000	51.000000	40.000000	44.000000
0.880000	66.010000	67.780000	0.000000	0.000000	157.000000	52.000000	41.000000	49.000000
0.890000	66.470000	68.320000	0.000000	0.000000	157.000000	52.000000	46.000000	54.000000
0.900000	66.970000	68.910000	0.000000	0.000000	157.000000	52.000000	50.000000	59.000000
0.910000	66.970000	68.910000	71.000000	1.000000	158.000000	52.000000	0.000000	0.000000
0.920000	67.500000	69.760000	195.000000	0.000000	158.000000	52.000000	53.000000	85.000000
0.930000	67.210000	69.760000	276.000000	0.000000	158.000000	52.000000	-29.000000	0.000000
0.940000	66.640000	69.700000	368.000000	0.000000	159.000000	51.000000	-57.000000	-6.000000
0.950000	65.870000	69.250000	418.000000	0.000000	159.000000	51.000000	-77.000000	-45.000000
0.960000	64.770000	68.230000	493.000000	0.000000	160.000000	51.000000	-110.000000	-102.000000
0.970000	63.480000	66.820000	543.000000	0.000000	161.000000	50.000000	-129.000000	-141.000000
0.980000	62.060000	65.530000	589.000000	0.000000	161.000000	50.000000	-142.000000	-129.000000
0.990000	60.970000	63.940000	617.000000	0.000000	161.000000	50.000000	-109.000000	-159.000000
1.000000	60.390000	62.150000	641.000000	0.000000	161.000000	50.000000	-58.000000	-179.000000
1.010000	60.160000	61.400000	650.000000	0.000000	161.000000	50.000000	-23.000000	-75.000000
1.020000	60.510000	61.270000	658.000000	0.000000	161.000000	50.000000	35.000000	-13.000000
1.030000	61.340000	61.560000	661.000000	0.000000	161.000000	50.000000	83.000000	29.000000
1.040000	62.500000	62.390000	661.000000	0.000000	161.000000	50.000000	116.000000	83.000000
1.050000	63.400000	63.340000	653.000000	0.000000	161.000000	50.000000	90.000000	95.000000
1.060000	63.900000	64.370000	652.000000	0.000000	161.000000	50.000000	50.000000	103.000000
1.070000	64.130000	65.040000	673.000000	0.000000	161.000000	50.000000	23.000000	67.000000
1.080000	63.980000	65.140000	664.000000	0.000000	161.000000	50.000000	-15.000000	10.000000
1.090000	63.590000	64.850000	667.000000	0.000000	161.000000	50.000000	-39.000000	-29.000000
1.100000	63.050000	64.250000	667.000000	0.000000	161.000000	50.000000	-54.000000	-60.000000
1.110000	62.570000	63.900000	673.000000	0.000000	161.000000	50.000000	-48.000000	-35.000000
1.120000	62.740000	63.710000	619.000000	0.000000	161.000000	50.000000	17.000000	-19.000000
1.130000	63.330000	63.780000	309.000000	0.000000	161.000000	50.000000	59.000000	7.000000
1.140000	63.330000	63.780000	0.000000	1.000000	161.000000	50.000000	0.000000	0.000000
1.150000	65.690000	64.970000	0.000000	0.000000	161.000000	50.000000	236.000000	119.000000
1.160000	66.550000	65.560000	0.000000	0.000000	162.000000	51.000000	86.000000	59.000000
1.170000	67.150000	65.910000	0.000000	0.000000	162.000000	51.000000	60.000000	35.000000
1.180000	67.500000	66.110000	0.000000	0.000000	162.000000	51.000000	35.000000	20.000000
1.190000	67.700000	66.240000	0.000000	0.000000	164.000000	51.000000	20.000000	13.000000
1.200000	67.810000	66.310000	0.000000	0.000000	165.000000	51.000000	11.000000	7.000000
1.210000	68.220000	66.460000	0.000000	0.000000	167.000000	50.000000	41.000000	15.000000
1.220000	69.110000	66.690000	0.000000	0.000000	167.000000	49.000000	89.000000	23.000000
1.230000	70.320000	66.920000	0.000000	0.000000	166.000000	48.000000	121.000000	23.000000
1.240000	71.550000	67.530000	0.000000	0.000000	166.000000	47.000000	123.000000	61.000000
1.250000	72.500000	68.390000	0.000000	0.000000	166.000000	46.000000	95.000000	86.000000
1.260000	73.250000	68.800000	0.000000	0.000000	165.000000	46.000000	75.000000	41.000000
1.270000	73.820000	69.050000	0.000000	0.000000	166.000000	44.000000	57.000000	25.000000
1.280000	74.100000	69.190000	0.000000	0.000000	167.000000	42.000000	28.000000	14.000000
1.290000	74.180000	68.880000	0.000000	0.000000	168.000000	40.000000	8.000000	-31.000000
1.300000	74.180000	68.410000	0.000000	0.000000	169.000000	37.000000	0.000000	-47.000000
1.310000	73.820000	67.830000	0.000000	0.000000	169.000000	37.000000	-36.000000	-58.000000
1.320000	73.290000	66.980000	0.000000	0.000000	167.000000	36.000000	-53.000000	-85.000000
1.330000	72.490000	66.110000	0.000000	0.000000	165.000000	36.000000	-80.000000	-87.000000
1.340000	71.700000	65.190000	0.000000	0.000000	161.000000	36.000000	-79.000000	-92.000000
1.350000	70.920000	64.480000	0.000000	0.000000	159.000000	35.000000	-78.000000	-71.000000
1.360000	70.330000	63.900000	0.000000	0.000000	159.000000	34.000000	-59.000000	-58.000000
1.370000	70.090000	63.500000	0.000000	0.000000	159.000000	34.000000	-24.000000	-40.000000
1.380000	70.090000	63.430000	0.000000	0.000000	158.000000	34.000000	0.000000	-7.000000
1.390000	70.440000	63.590000	0.000000	0.000000	158.000000	34.000000	35.000000	16.000000
1.400000	70.560000	63.930000	0.000000	0.000000	157.000000	35.000000	12.000000	34.000000
1.410000	70.560000	64.010000	0.000000	0.000000	157.000000	35.000000	0.000000	8.000000
1.420000	69.690000	63.930000	0.000000	0.000000	156.000000	35.000000	-87.000000	-8.000000
1.430000	68.890000	63.520000	0.000000	0.000000	153.000000	37.000000	-80.000000	-41.000000
1.440000	68.460000	63.210000	0.000000	0.000000	152.000000	38.000000	-43.000000	-31.000000
1.450000	68.250000	62.980000	0.000000	0.000000	152.000000	39.000000	-21.000000	-23.000000
1.460000	68.250000	62.910000	0.000000	0.000000	152.000000	41.000000	0.000000	-7.000000
1.470000	68.250000	62.910000	0.000000	0.000000	152.000000	42.000000	0.000000	0.000000
1.480000	68.320000	62.980000	0.000000	0.000000	152.000000	44.000000	7.000000	7.000000
1.490000	68.320000	63.090000	0.000000	0.000000	153.000000	46.000000	0.000000	11.000000
1.500000	68.320000	63.190000	0.000000	0.000000	153.000000	47.000000	0.000000	10.000000
1.510000	68.320000	63.270000	0.000000	0.000000	154.000000	47.000000	0.000000	8.000000
1.520000	68.320000	63.350000	0.000000	0.000000	154.000000	47.000000	0.000000	8.000000
1.530000	68.320000	63.430000	0.000000	0.000000	155.000000	47.000000	0.000000	8.000000
1.540000	68.320000	63.530000	0.000000	0.000000	155.000000	47.000000	0.000000	10.000000
1.550000	68.440000	63.640000	0.000000	0.000000	155.000000	47.000000	12.000000	11.000000
1.560000	68.570000	63.760000	0.000000	0.000000	155.000000	47.000000	13.000000	12.000000
1.570000	68.680000	63.940000	0.000000	0.000000	155.000000	47.000000	11.000000	18.000000
1.580000	68.770000	64.150000	0.000000	0.000000	156.000000	46.000000	9.000000	21.000000
1.590000	68.770000	64.380000	0.000000	0.000000	156.000000	46.000000	0.000000	23.000000
1.600000	68.870000	64.610000	0.000000	0.000000	156.000000	46.000000	10.000000	23.000000
1.610000	68.950000	64.800000	0.000000	0.000000	156.000000	46.000000	8.000000	19.000000
1.620000	69.010000	64.950000	0.000000	0.000000	156.000000	46.000000	6.000000	15.000000
1.630000	69.100000	65.030000	0.000000	0.000000	156.000000	46.000000	9.000000	8.000000
1.640000	69.230000	65.030000	0.000000	0.000000	156.000000	46.000000	13.000000	0.000000
1.650000	69.410000	65.110000	0.000000	0.000000	156.000000	46.000000	18.000000	8.000000
1.660000	69.500000	65.110000	0.000000	0.000000	157.000000	47.000000	9.000000	0.000000
1.670000	69.500000	65.190000	0.000000	0.000000	157.000000	47.000000	0.000000	8.000000
1.680000	69.500000	65.190000	0.000000	0.000000	157.000000	47.000000	0.000000	0.000000
1.690000	69.500000	65.240000	0.000000	0.000000	157.000000	47.000000	0.000000	5.000000
1.700000	69.500000	65.240000	0.000000	0.000000	158.000000	47.000000	0.000000	0.000000
1.710000	69.500000	65.350000	0.000000	0.000000	158.000000	47.000000	0.000000	11.000000
1.720000	69.500000	65.350000	0.000000	0.000000	158.000000	47.000000	0.000000	0.000000
1.730000	69.500000	65.350000	0.000000	0.000000	160.000000	47.000000	0.000000	0.000000
1.740000	69.500000	65.350000	0.000000	0.000000	160.000000	47.000000	0.000000	0.000000
1.750000	69.500000	65.350000	0.000000	0.000000	160.000000	47.000000	0.000000	0.000000
1.760000	69.500000	65.350000	0.000000	0.000000	160.000000	47.000000	0.000000	0.000000
1.770000	69.500000	65.440000	0.000000	0.000000	160.000000	47.000000	0.000000	9.000000
1.780000	69.500000	65.530000	0.000000	0.000000	160.000000	47.000000	0.000000	9.000000
1.790000	69.500000	65.620000	0.000000	0.000000	161.000000	47.000000	0.000000	9.000000
1.800000	69.500000	65.740000	0.000000	0.000000	161.000000	47.000000	0.000000	12.000000
1.810000	69.500000	65.870000	0.000000	0.000000	161.000000	47.000000	0.000000	13.000000
1.820000	69.500000	66.000000	0.000000	0.000000	161.000000	47.000000	0.000000	13.000000
1.830000	69.500000	66.120000	0.000000	0.000000	160.000000	48.000000	0.000000	12.000000
1.840000	69.500000	66.200000	0.000000	0.000000	160.000000	48.000000	0.000000	8.000000
1.850000	69.500000	66.200000	0.000000	0.000000	160.000000	48.000000	0.000000	0.000000
1.860000	69.500000	66.200000	0.000000	0.000000	160.000000	48.000000	0.000000	0.000000
1.870000	69.500000	66.200000	0.000000	0.000000	160.000000	48.000000	0.000000	0.000000
1.880000	69.500000	66.200000	0.000000	0.000000	160.000000	48.000000	0.000000	0.000000
1.890000	69.450000	66.200000	0.000000	0.000000	160.000000	48.000000	-5.000000	0.000000
1.900000	69.450000	66.200000	0.000000	0.000000	160.000000	48.000000	0.000000	0.000000
1.910000	69.450000	66.120000	0.000000	0.000000	160.000000	48.000000	0.000000	-8.000000
1.920000	69.450000	66.120000	0.000000	0.000000	160.000000	48.000000	0.000000	0.000000
1.930000	69.450000	66.120000	0.000000	0.000000	160.000000	48.000000	0.000000	0.000000
1.940000	69.450000	66.120000	0.000000	0.000000	160.000000	48.000000	0.000000	0.000000
1.950000	69.450000	66.120000	0.000000	0.000000	160.000000	48.000000	0.000000	0.000000
1.960000	69.500000	66.120000	0.000000	0.000000	160.000000	48.000000	5.000000	0.000000
1.970000	69.500000	66.120000	0.000000	0.000000	160.000000	48.000000	0.000000	0.000000
1.980000	69.500000	66.120000	0.000000	0.000000	160.000000	48.000000	0.000000	0.000000
1.990000	69.580000	66.170000	0.000000	0.000000	160.000000	48.000000	8.000000	5.000000
2.000000	69.650000	66.170000	0.000000	0.000000	160.000000	48.000000	7.000000	0.000000
2.010000	69.650000	66.270000	0.000000	0.000000	160.000000	48.000000	0.000000	10.000000
2.020000	69.750000	66.360000	0.000000	0.000000	159.000000	48.000000	10.000000	9.000000
2.030000	69.830000	66.480000	0.000000	0.000000	159.000000	48.000000	8.000000	12.000000
2.040000	69.920000	66.600000	0.000000	0.000000	160.000000	47.000000	9.000000	12.000000
2.050000	69.990000	66.710000	0.000000	0.000000	160.000000	47.000000	7.000000	11.000000
2.060000	69.990000	66.790000	0.000000	0.000000	159.000000	48.000000	0.000000	8.000000
2.070000	69.990000	66.790000	0.000000	0.000000	159.000000	48.000000	0.000000	0.000000
2.080000	69.990000	66.790000	0.000000	0.000000	159.000000	48.000000	0.000000	0.000000
2.090000	69.880000	66.790000	0.000000	0.000000	159.000000	48.000000	-11.000000	0.000000
2.100000	69.760000	66.670000	0.000000	0.000000	159.000000	48.000000	-12.000000	-12.000000
2.110000	69.610000	66.560000	0.000000	0.000000	159.000000	48.000000	-15.000000	-11.000000
2.120000	69.420000	66.420000	0.000000	0.000000	159.000000	48.000000	-19.000000	-14.000000
2.130000	69.200000	66.250000	0.000000	0.000000	159.000000	48.000000	-22.000000	-17.000000
2.140000	68.970000	66.050000	0.000000	0.000000	159.000000	48.000000	-23.000000	-20.000000
2.150000	68.730000	65.820000	0.000000	0.000000	159.000000	48.000000	-24.000000	-23.000000
2.160000	68.490000	65.600000	0.000000	0.000000	158.000000	49.000000	-24.000000	-22.000000
2.170000	68.290000	65.380000	0.000000	0.000000	158.000000	49.000000	-20.000000	-22.000000
2.180000	68.140000	65.280000	0.000000	0.000000	158.000000	49.000000	-15.000000	-10.000000
2.190000	68.070000	65.280000	0.000000	0.000000	158.000000	49.000000	-7.000000	0.000000
2.200000	68.200000	65.360000	0.000000	0.000000	158.000000	49.000000	13.000000	8.000000
2.210000	68.450000	65.590000	0.000000	0.000000	159.000000	49.000000	25.000000	23.000000
2.220000	68.740000	65.900000	0.000000	0.000000	159.000000	49.000000	29.000000	31.000000
2.230000	69.040000	66.240000	0.000000	0.000000	159.000000	49.000000	30.000000	34.000000
