t	x	y	pressure	penup	azimuth	inclination	v_x	v_y
0.000000	92.630000	65.410000	48.000000	1.000000	121.000000	63.000000	0.000000	0.000000
0.010000	93.170000	66.940000	149.000000	0.000000	121.000000	63.000000	54.000000	153.000000
0.020000	93.340000	67.550000	171.000000	0.000000	122.000000	63.000000	17.000000	61.000000
0.030000	93.470000	68.150000	226.000000	0.000000	122.000000	63.000000	13.000000	60.000000
0.040000	93.470000	68.550000	304.000000	0.000000	122.000000	63.000000	0.000000	40.000000
0.050000	93.470000	68.820000	341.000000	0.000000	122.000000	63.000000	0.000000	27.000000
0.060000	93.340000	68.900000	349.000000	0.000000	123.000000	62.000000	-13.000000	8.000000
0.070000	93.030000	68.790000	371.000000	0.000000	123.000000	62.000000	-31.000000	-11.000000
0.080000	92.610000	68.550000	367.000000	0.000000	123.000000	62.000000	-42.000000	-24.000000
0.090000	91.930000	67.680000	369.000000	0.000000	123.000000	61.000000	-68.000000	-87.000000
0.100000	91.120000	66.330000	396.000000	0.000000	122.000000	61.000000	-81.000000	-135.000000
0.110000	90.220000	64.660000	431.000000	0.000000	122.000000	61.000000	-90.000000	-167.000000
0.120000	89.420000	62.900000	461.000000	0.000000	122.000000	61.000000	-80.000000	-176.000000
0.130000	88.820000	61.470000	481.000000	0.000000	120.000000	62.000000	-60.000000	-143.000000
0.140000	88.360000	60.260000	488.000000	0.000000	118.000000	62.000000	-46.000000	-121.000000
0.150000	88.310000	59.400000	483.000000	0.000000	116.000000	63.000000	-5.000000	-86.000000
0.160000	88.500000	59.020000	467.000000	0.000000	115.000000	63.000000	19.000000	-38.000000
0.170000	88.840000	58.970000	460.000000	0.000000	113.000000	63.000000	34.000000	-5.000000
0.180000	89.330000	59.470000	446.000000	0.000000	113.000000	63.000000	49.000000	50.000000
0.190000	89.960000	60.450000	448.000000	0.000000	113.000000	63.000000	63.000000	98.000000
0.200000	90.680000	61.760000	431.000000	0.000000	113.000000	63.000000	72.000000	131.000000
0.210000	91.370000	63.350000	438.000000	0.000000	113.000000	63.000000	69.000000	159.000000
0.220000	92.050000	65.030000	436.000000	0.000000	113.000000	63.000000	68.000000	168.000000
0.230000	92.750000	66.780000	430.000000	0.000000	114.000000	64.000000	70.000000	175.000000
0.240000	93.510000	68.020000	422.000000	0.000000	114.000000	64.000000	76.000000	124.000000
0.250000	94.020000	68.700000	420.000000	0.000000	116.000000	64.000000	51.000000	68.000000
0.260000	94.360000	69.020000	414.000000	0.000000	117.000000	63.000000	34.000000	32.000000
0.270000	94.360000	69.020000	458.000000	0.000000	118.000000	62.000000	0.000000	0.000000
0.280000	94.560000	68.570000	489.000000	0.000000	120.000000	62.000000	20.000000	-45.000000
0.290000	94.360000	67.790000	570.000000	0.000000	120.000000	62.000000	-20.000000	-78.000000
0.300000	94.060000	66.750000	617.000000	0.000000	122.000000	61.000000	-30.000000	-104.000000
0.310000	93.690000	65.620000	670.000000	0.000000	120.000000	62.000000	-37.000000	-113.000000
0.320000	93.260000	64.420000	707.000000	0.000000	120.000000	62.000000	-43.000000	-120.000000
0.330000	92.830000	62.940000	724.000000	0.000000	121.000000	63.000000	-43.000000	-148.000000
0.340000	92.440000	61.670000	725.000000	0.000000	119.000000	63.000000	-39.000000	-127.000000
0.350000	92.110000	60.550000	730.000000	0.000000	117.000000	63.000000	-33.000000	-112.000000
0.360000	91.890000	59.580000	733.000000	0.000000	116.000000	64.000000	-22.000000	-97.000000
0.370000	91.890000	59.160000	725.000000	0.000000	114.000000	64.000000	0.000000	-42.000000
0.380000	91.970000	59.110000	700.000000	0.000000	114.000000	64.000000	8.000000	-5.000000
0.390000	92.060000	59.170000	691.000000	0.000000	111.000000	64.000000	9.000000	6.000000
0.400000	92.230000	59.680000	673.000000	0.000000	111.000000	64.000000	17.000000	51.000000
0.410000	92.560000	60.500000	664.000000	0.000000	111.000000	64.000000	33.000000	82.000000
0.420000	92.920000	61.560000	641.000000	0.000000	110.000000	63.000000	36.000000	106.000000
0.430000	93.310000	62.840000	639.000000	0.000000	111.000000	64.000000	39.000000	128.000000
0.440000	93.730000	64.270000	613.000000	0.000000	111.000000	64.000000	42.000000	143.000000
0.450000	94.220000	65.760000	570.000000	0.000000	113.000000	63.000000	49.000000	149.000000
0.460000	94.700000	66.900000	548.000000	0.000000	114.000000	64.000000	48.000000	114.000000
0.470000	95.030000	67.820000	527.000000	0.000000	116.000000	64.000000	33.000000	92.000000
0.480000	95.270000	68.080000	527.000000	0.000000	116.000000	64.000000	24.000000	26.000000
0.490000	95.360000	67.890000	561.000000	0.000000	117.000000	63.000000	9.000000	-19.000000
0.500000	95.280000	67.410000	595.000000	0.000000	119.000000	64.000000	-8.000000	-48.000000
0.510000	95.090000	66.520000	645.000000	0.000000	120.000000	64.000000	-19.000000	-89.000000
0.520000	94.810000	65.670000	641.000000	0.000000	120.000000	64.000000	-28.000000	-85.000000
0.530000	94.570000	64.850000	622.000000	0.000000	120.000000	64.000000	-24.000000	-82.000000
0.540000	94.410000	64.260000	541.000000	0.000000	119.000000	64.000000	-16.000000	-59.000000
0.550000	94.300000	63.800000	345.000000	0.000000	119.000000	64.000000	-11.000000	-46.000000
0.560000	94.300000	63.800000	0.000000	1.000000	119.000000	64.000000	0.000000	0.000000
0.570000	94.120000	63.330000	0.000000	0.000000	119.000000	64.000000	-18.000000	-47.000000
0.580000	94.120000	63.330000	0.000000	0.000000	117.000000	63.000000	0.000000	0.000000
0.590000	94.120000	63.500000	0.000000	0.000000	117.000000	63.000000	0.000000	17.000000
0.600000	94.120000	63.620000	0.000000	0.000000	117.000000	63.000000	0.000000	12.000000
0.610000	94.120000	63.710000	0.000000	0.000000	116.000000	63.000000	0.000000	9.000000
0.620000	94.180000	63.760000	0.000000	0.000000	116.000000	63.000000	6.000000	5.000000
0.630000	94.260000	63.760000	0.000000	0.000000	116.000000	63.000000	8.000000	0.000000
0.640000	94.360000	63.830000	0.000000	0.000000	116.000000	63.000000	10.000000	7.000000
0.650000	94.490000	63.920000	0.000000	0.000000	116.000000	63.000000	13.000000	9.000000
0.660000	94.650000	64.040000	0.000000	0.000000	116.000000	63.000000	16.000000	12.000000
0.670000	94.820000	64.110000	0.000000	0.000000	118.000000	62.000000	17.000000	7.000000
0.680000	94.890000	64.160000	0.000000	0.000000	118.000000	62.000000	7.000000	5.000000
0.690000	94.890000	64.160000	0.000000	0.000000	117.000000	61.000000	0.000000	0.000000
0.700000	94.890000	64.160000	0.000000	0.000000	119.000000	61.000000	0.000000	0.000000
0.710000	94.890000	64.160000	0.000000	0.000000	119.000000	61.000000	0.000000	0.000000
0.720000	94.570000	64.100000	0.000000	0.000000	120.000000	62.000000	-32.000000	-6.000000
0.730000	94.460000	64.050000	0.000000	0.000000	120.000000	62.000000	-11.000000	-5.000000
0.740000	94.460000	64.050000	0.000000	0.000000	120.000000	62.000000	0.000000	0.000000
0.750000	94.460000	64.170000	0.000000	0.000000	120.000000	62.000000	0.000000	12.000000
0.760000	94.560000	64.170000	0.000000	0.000000	120.000000	62.000000	10.000000	0.000000
0.770000	94.610000	64.260000	0.000000	0.000000	120.000000	62.000000	5.000000	9.000000
0.780000	94.660000	64.320000	0.000000	0.000000	120.000000	62.000000	5.000000	6.000000
0.790000	94.660000	64.320000	0.000000	0.000000	120.000000	62.000000	0.000000	0.000000
0.800000	94.660000	64.270000	0.000000	0.000000	120.000000	62.000000	0.000000	-5.000000
0.810000	94.660000	64.220000	0.000000	0.000000	120.000000	62.000000	0.000000	-5.000000
0.820000	94.660000	64.220000	0.000000	0.000000	120.000000	62.000000	0.000000	0.000000
0.830000	94.660000	64.170000	0.000000	0.000000	120.000000	62.000000	0.000000	-5.000000
0.840000	94.750000	64.170000	0.000000	0.000000	120.000000	62.000000	9.000000	0.000000
0.850000	94.960000	64.260000	0.000000	0.000000	120.000000	62.000000	21.000000	9.000000
0.860000	95.260000	64.260000	0.000000	0.000000	121.000000	63.000000	30.000000	0.000000
0.870000	95.640000	64.260000	0.000000	0.000000	121.000000	63.000000	38.000000	0.000000
0.880000	96.080000	64.260000	0.000000	0.000000	123.000000	62.000000	44.000000	0.000000
0.890000	96.510000	64.310000	0.000000	0.000000	124.000000	63.000000	43.000000	5.000000
0.900000	96.910000	64.380000	0.000000	0.000000	124.000000	63.000000	40.000000	7.000000
0.910000	97.370000	64.490000	0.000000	0.000000	124.000000	63.000000	46.000000	11.000000
0.920000	97.790000	64.490000	0.000000	0.000000	125.000000	64.000000	42.000000	0.000000
0.930000	98.140000	64.550000	0.000000	0.000000	127.000000	64.000000	35.000000	6.000000
0.940000	98.440000	64.550000	0.000000	0.000000	130.000000	65.000000	30.000000	0.000000
0.950000	98.620000	64.550000	0.000000	0.000000	132.000000	65.000000	18.000000	0.000000
0.960000	98.620000	64.550000	0.000000	0.000000	132.000000	65.000000	0.000000	0.000000
0.970000	98.540000	64.550000	0.000000	0.000000	133.000000	66.000000	-8.000000	0.000000
0.980000	98.540000	64.550000	0.000000	0.000000	133.000000	66.000000	0.000000	0.000000
0.990000	98.540000	64.650000	0.000000	0.000000	135.000000	67.000000	0.000000	10.000000
1.000000	98.540000	64.780000	0.000000	0.000000	135.000000	67.000000	0.000000	13.000000
1.010000	98.680000	64.890000	0.000000	0.000000	135.000000	67.000000	14.000000	11.000000
1.020000	98.780000	64.970000	0.000000	0.000000	135.000000	67.000000	10.000000	8.000000
1.030000	98.780000	64.970000	0.000000	0.000000	135.000000	67.000000	0.000000	0.000000
1.040000	98.780000	64.970000	0.000000	0.000000	133.000000	66.000000	0.000000	0.000000
1.050000	98.700000	64.970000	0.000000	0.000000	133.000000	66.000000	-8.000000	0.000000
1.060000	98.590000	64.890000	0.000000	0.000000	131.000000	67.000000	-11.000000	-8.000000
1.070000	98.460000	64.890000	0.000000	0.000000	131.000000	67.000000	-13.000000	0.000000
1.080000	98.380000	64.890000	0.000000	0.000000	131.000000	67.000000	-8.000000	0.000000
1.090000	98.320000	64.940000	0.000000	0.000000	131.000000	67.000000	-6.000000	5.000000
1.100000	98.320000	64.940000	0.000000	0.000000	131.000000	67.000000	0.000000	0.000000
1.110000	98.320000	64.940000	0.000000	0.000000	131.000000	67.000000	0.000000	0.000000
1.120000	98.320000	64.940000	0.000000	0.000000	130.000000	66.000000	0.000000	0.000000
1.130000	98.270000	64.820000	0.000000	0.000000	130.000000	66.000000	-5.000000	-12.000000
1.140000	98.200000	64.700000	0.000000	0.000000	130.000000	66.000000	-7.000000	-12.000000
1.150000	98.200000	64.620000	0.000000	0.000000	130.000000	66.000000	0.000000	-8.000000
1.160000	98.200000	64.620000	0.000000	0.000000	130.000000	66.000000	0.000000	0.000000
1.170000	98.200000	64.500000	0.000000	0.000000	130.000000	66.000000	0.000000	-12.000000
1.180000	98.200000	64.420000	0.000000	0.000000	128.000000	65.000000	0.000000	-8.000000
1.190000	98.200000	64.420000	0.000000	0.000000	128.000000	65.000000	0.000000	0.000000
1.200000	98.200000	64.420000	0.000000	0.000000	128.000000	65.000000	0.000000	0.000000
1.210000	98.200000	64.420000	0.000000	0.000000	128.000000	65.000000	0.000000	0.000000
1.220000	98.200000	64.490000	0.000000	0.000000	128.000000	65.000000	0.000000	7.000000
1.230000	98.310000	64.490000	0.000000	0.000000	130.000000	66.000000	11.000000	0.000000
1.240000	98.400000	64.590000	0.000000	0.000000	130.000000	66.000000	9.000000	10.000000
1.250000	98.530000	64.680000	0.000000	0.000000	130.000000	66.000000	13.000000	9.000000
1.260000	98.650000	64.680000	0.000000	0.000000	130.000000	66.000000	12.000000	0.000000
1.270000	98.780000	64.760000	0.000000	0.000000	130.000000	66.000000	13.000000	8.000000
1.280000	98.910000	64.760000	0.000000	0.000000	130.000000	66.000000	13.000000	0.000000
1.290000	99.020000	64.810000	0.000000	0.000000	131.000000	67.000000	11.000000	5.000000
1.300000	99.110000	64.810000	0.000000	0.000000	131.000000	67.000000	9.000000	0.000000
1.310000	99.170000	64.920000	0.000000	0.000000	131.000000	67.000000	6.000000	11.000000
1.320000	99.230000	65.010000	0.000000	0.000000	131.000000	67.000000	6.000000	9.000000
1.330000	99.430000	65.170000	0.000000	0.000000	131.000000	67.000000	20.000000	16.000000
1.340000	99.720000	65.380000	0.000000	0.000000	131.000000	67.000000	29.000000	21.000000
1.350000	99.920000	65.620000	0.000000	0.000000	130.000000	66.000000	20.000000	24.000000
1.360000	100.050000	65.760000	0.000000	0.000000	130.000000	66.000000	13.000000	14.000000
1.370000	100.130000	65.840000	0.000000	0.000000	128.000000	65.000000	8.000000	8.000000
1.380000	100.130000	65.840000	0.000000	0.000000	127.000000	64.000000	0.000000	0.000000
1.390000	100.130000	65.840000	0.000000	0.000000	125.000000	64.000000	0.000000	0.000000
1.400000	100.130000	65.840000	0.000000	0.000000	124.000000	63.000000	0.000000	0.000000
1.410000	99.760000	65.690000	0.000000	0.000000	123.000000	62.000000	-37.000000	-15.000000
1.420000	99.640000	65.610000	0.000000	0.000000	123.000000	62.000000	-12.000000	-8.000000
1.430000	99.540000	65.520000	0.000000	0.000000	122.000000	61.000000	-10.000000	-9.000000
1.440000	99.460000	65.390000	0.000000	0.000000	122.000000	61.000000	-8.000000	-13.000000
1.450000	99.390000	65.280000	0.000000	0.000000	122.000000	61.000000	-7.000000	-11.000000
1.460000	99.290000	65.170000	0.000000	0.000000	123.000000	62.000000	-10.000000	-11.000000
1.470000	99.180000	65.060000	0.000000	0.000000	123.000000	62.000000	-11.000000	-11.000000
1.480000	99.090000	64.950000	0.000000	0.000000	124.000000	63.000000	-9.000000	-11.000000
1.490000	99.000000	64.890000	0.000000	0.000000	124.000000	63.000000	-9.000000	-6.000000
1.500000	98.930000	64.890000	0.000000	0.000000	125.000000	64.000000	-7.000000	0.000000
1.510000	98.880000	64.830000	0.000000	0.000000	127.000000	64.000000	-5.000000	-6.000000
1.520000	98.880000	64.830000	0.000000	0.000000	127.000000	64.000000	0.000000	0.000000
1.530000	98.830000	64.750000	0.000000	0.000000	128.000000	65.000000	-5.000000	-8.000000
1.540000	98.830000	64.750000	0.000000	0.000000	128.000000	66.000000	0.000000	0.000000
1.550000	98.780000	64.680000	0.000000	0.000000	128.000000	66.000000	-5.000000	-7.000000
1.560000	98.780000	64.630000	0.000000	0.000000	128.000000	66.000000	0.000000	-5.000000
1.570000	98.780000	64.580000	0.000000	0.000000	128.000000	66.000000	0.000000	-5.000000
1.580000	98.720000	64.580000	0.000000	0.000000	128.000000	66.000000	-6.000000	0.000000
1.590000	98.770000	64.580000	0.000000	0.000000	128.000000	66.000000	5.000000	0.000000
1.600000	98.830000	64.580000	0.000000	0.000000	128.000000	66.000000	6.000000	0.000000
1.610000	98.890000	64.580000	0.000000	0.000000	128.000000	66.000000	6.000000	0.000000
1.620000	98.960000	64.660000	0.000000	0.000000	128.000000	66.000000	7.000000	8.000000
1.630000	99.040000	64.780000	0.000000	0.000000	128.000000	66.000000	8.000000	12.000000
1.640000	99.130000	64.910000	0.000000	0.000000	128.000000	66.000000	9.000000	13.000000
1.650000	99.220000	65.080000	0.000000	0.000000	128.000000	66.000000	9.000000	17.000000
1.660000	99.300000	65.270000	0.000000	0.000000	128.000000	66.000000	8.000000	19.000000
1.670000	99.380000	65.460000	0.000000	0.000000	128.000000	66.000000	8.000000	19.000000
1.680000	99.380000	65.640000	0.000000	0.000000	128.000000	66.000000	0.000000	18.000000
1.690000	99.520000	65.880000	0.000000	0.000000	128.000000	66.000000	14.000000	24.000000
1.700000	99.720000	66.170000	0.000000	0.000000	128.000000	65.000000	20.000000	29.000000
1.710000	99.900000	66.500000	0.000000	0.000000	127.000000	64.000000	18.000000	33.000000
1.720000	100.060000	66.850000	0.000000	0.000000	127.000000	64.000000	16.000000	35.000000
1.730000	100.230000	67.220000	0.000000	0.000000	125.000000	64.000000	17.000000	37.000000
1.740000	100.430000	67.700000	0.000000	0.000000	124.000000	63.000000	20.000000	48.000000
1.750000	100.650000	68.280000	0.000000	0.000000	124.000000	63.000000	22.000000	58.000000
1.760000	100.650000	68.280000	32.000000	1.000000	124.000000	63.000000	0.000000	0.000000
1.770000	100.870000	69.280000	146.000000	0.000000	124.000000	63.000000	22.000000	100.000000
1.780000	100.870000	69.390000	183.000000	0.000000	125.000000	64.000000	0.000000	11.000000
1.790000	100.740000	69.330000	232.000000	0.000000	127.000000	63.000000	-13.000000	-6.000000
1.800000	100.530000	69.140000	267.000000	0.000000	129.000000	64.000000	-21.000000	-19.000000
1.810000	100.240000	68.490000	305.000000	0.000000	129.000000	64.000000	-29.000000	-65.000000
1.820000	99.690000	67.540000	358.000000	0.000000	129.000000	64.000000	-55.000000	-95.000000
1.830000	98.970000	66.230000	402.000000	0.000000	129.000000	64.000000	-72.000000	-131.000000
1.840000	98.130000	64.880000	465.000000	0.000000	127.000000	64.000000	-84.000000	-135.000000
1.850000	97.350000	63.460000	520.000000	0.000000	127.000000	64.000000	-78.000000	-142.000000
1.860000	96.780000	62.240000	563.000000	0.000000	124.000000	64.000000	-57.000000	-122.000000
1.870000	96.340000	61.160000	572.000000	0.000000	122.000000	65.000000	-44.000000	-108.000000
1.880000	96.100000	60.340000	581.000000	0.000000	120.000000	64.000000	-24.000000	-82.000000
1.890000	96.100000	59.830000	588.000000	0.000000	119.000000	64.000000	0.000000	-51.000000
1.900000	96.180000	59.540000	588.000000	0.000000	116.000000	64.000000	8.000000	-29.000000
1.910000	96.320000	59.540000	592.000000	0.000000	116.000000	64.000000	14.000000	0.000000
1.920000	96.670000	59.990000	591.000000	0.000000	113.000000	63.000000	35.000000	45.000000
1.930000	97.160000	60.710000	584.000000	0.000000	113.000000	63.000000	49.000000	72.000000
1.940000	97.750000	61.760000	592.000000	0.000000	113.000000	63.000000	59.000000	105.000000
1.950000	98.280000	62.780000	589.000000	0.000000	114.000000	64.000000	53.000000	102.000000
1.960000	98.630000	63.530000	591.000000	0.000000	114.000000	64.000000	35.000000	75.000000
1.970000	98.870000	64.120000	560.000000	0.000000	114.000000	64.000000	24.000000	59.000000
1.980000	98.970000	64.490000	519.000000	0.000000	115.000000	65.000000	10.000000	37.000000
1.990000	99.030000	64.680000	412.000000	0.000000	116.000000	66.000000	6.000000	19.000000
2.000000	99.030000	64.750000	219.000000	0.000000	119.000000	66.000000	0.000000	7.000000
2.010000	99.030000	64.750000	0.000000	1.000000	119.000000	66.000000	0.000000	0.000000
2.020000	99.030000	64.690000	0.000000	0.000000	120.000000	67.000000	0.000000	-6.000000
2.030000	99.030000	64.690000	0.000000	0.000000	122.000000	67.000000	0.000000	0.000000
2.040000	99.030000	64.690000	0.000000	0.000000	122.000000	67.000000	0.000000	0.000000
2.050000	99.030000	64.690000	0.000000	0.000000	124.000000	67.000000	0.000000	0.000000
2.060000	99.030000	64.690000	0.000000	0.000000	124.000000	67.000000	0.000000	0.000000
2.070000	99.590000	64.760000	0.000000	0.000000	124.000000	66.000000	56.000000	7.000000
2.080000	99.990000	64.810000	0.000000	0.000000	124.000000	66.000000	40.000000	5.000000
2.090000	100.370000	64.810000	0.000000	0.000000	123.000000	65.000000	38.000000	0.000000
2.100000	100.730000	64.810000	0.000000	0.000000	123.000000	65.000000	36.000000	0.000000
2.110000	101.070000	64.860000	0.000000	0.000000	124.000000	64.000000	34.000000	5.000000
2.120000	101.440000	64.920000	0.000000	0.000000	122.000000	63.000000	37.000000	6.000000
2.130000	101.850000	65.020000	0.000000	0.000000	122.000000	63.000000	41.000000	10.000000
2.140000	102.340000	65.190000	0.000000	0.000000	123.000000	62.000000	49.000000	17.000000
2.150000	102.920000	65.400000	0.000000	0.000000	122.000000	61.000000	58.000000	21.000000
2.160000	103.520000	65.650000	0.000000	0.000000	122.000000	61.000000	60.000000	25.000000
2.170000	103.990000	65.650000	0.000000	0.000000	120.000000	60.000000	47.000000	0.000000
2.180000	104.380000	65.650000	0.000000	0.000000	122.000000	60.000000	39.000000	0.000000
2.190000	104.510000	65.570000	0.000000	0.000000	122.000000	60.000000	13.000000	-8.000000
2.200000	104.510000	65.480000	0.000000	0.000000	122.000000	60.000000	0.000000	-9.000000
2.210000	104.360000	65.380000	0.000000	0.000000	122.000000	60.000000	-15.000000	-10.000000
2.220000	104.300000	65.380000	0.000000	0.000000	122.000000	60.000000	-6.000000	0.000000
2.230000	104.240000	65.330000	0.000000	0.000000	122.000000	60.000000	-6.000000	-5.000000
2.240000	104.130000	65.330000	0.000000	0.000000	119.000000	60.000000	-11.000000	0.000000
