t	x	y	pressure	penup	azimuth	inclination	v_x	v_y
0.000000	86.500000	27.030000	81.000000	1.000000	143.000000	50.000000	0.000000	0.000000
0.010000	86.230000	26.670000	142.000000	0.000000	143.000000	49.000000	-27.000000	-36.000000
0.020000	86.120000	26.550000	168.000000	0.000000	143.000000	49.000000	-11.000000	-12.000000
0.030000	86.120000	26.550000	210.000000	0.000000	143.000000	49.000000	0.000000	0.000000
0.040000	86.210000	26.550000	241.000000	0.000000	143.000000	49.000000	9.000000	0.000000
0.050000	86.630000	26.650000	280.000000	0.000000	143.000000	49.000000	42.000000	10.000000
0.060000	87.280000	27.100000	274.000000	0.000000	143.000000	49.000000	65.000000	45.000000
0.070000	88.460000	27.960000	277.000000	0.000000	143.000000	49.000000	118.000000	86.000000
0.080000	89.910000	29.100000	277.000000	0.000000	144.000000	49.000000	145.000000	114.000000
0.090000	91.530000	30.360000	282.000000	0.000000	145.000000	48.000000	162.000000	126.000000
0.100000	93.290000	31.600000	287.000000	0.000000	147.000000	48.000000	176.000000	124.000000
0.110000	94.930000	32.790000	305.000000	0.000000	147.000000	48.000000	164.000000	119.000000
0.120000	96.490000	33.910000	334.000000	0.000000	149.000000	48.000000	156.000000	112.000000
0.130000	97.520000	34.530000	348.000000	0.000000	149.000000	48.000000	103.000000	62.000000
0.140000	98.000000	34.830000	349.000000	0.000000	149.000000	48.000000	48.000000	30.000000
0.150000	98.100000	34.830000	364.000000	0.000000	150.000000	48.000000	10.000000	0.000000
0.160000	97.900000	34.500000	369.000000	0.000000	150.000000	48.000000	-20.000000	-33.000000
0.170000	97.310000	33.980000	344.000000	0.000000	149.000000	49.000000	-59.000000	-52.000000
0.180000	96.450000	33.060000	337.000000	0.000000	149.000000	49.000000	-86.000000	-92.000000
0.190000	95.300000	32.090000	334.000000	0.000000	149.000000	49.000000	-115.000000	-97.000000
0.200000	93.950000	31.050000	335.000000	0.000000	151.000000	48.000000	-135.000000	-104.000000
0.210000	92.460000	30.010000	333.000000	0.000000	151.000000	48.000000	-149.000000	-104.000000
0.220000	91.170000	29.100000	359.000000	0.000000	152.000000	48.000000	-129.000000	-91.000000
0.230000	90.230000	28.280000	367.000000	0.000000	152.000000	48.000000	-94.000000	-82.000000
0.240000	89.530000	27.810000	376.000000	0.000000	153.000000	47.000000	-70.000000	-47.000000
0.250000	89.200000	27.580000	369.000000	0.000000	153.000000	46.000000	-33.000000	-23.000000
0.260000	89.150000	27.510000	366.000000	0.000000	153.000000	46.000000	-5.000000	-7.000000
0.270000	89.280000	27.510000	364.000000	0.000000	152.000000	45.000000	13.000000	0.000000
0.280000	89.470000	27.510000	364.000000	0.000000	153.000000	45.000000	19.000000	0.000000
0.290000	89.660000	27.630000	364.000000	0.000000	152.000000	44.000000	19.000000	12.000000
0.300000	89.830000	27.750000	364.000000	0.000000	152.000000	44.000000	17.000000	12.000000
0.310000	89.910000	27.850000	368.000000	0.000000	152.000000	44.000000	8.000000	10.000000
0.320000	89.910000	27.900000	369.000000	0.000000	151.000000	43.000000	0.000000	5.000000
0.330000	89.910000	27.900000	371.000000	0.000000	151.000000	43.000000	0.000000	0.000000
0.340000	89.910000	27.900000	363.000000	0.000000	152.000000	44.000000	0.000000	0.000000
0.350000	89.910000	27.900000	351.000000	0.000000	152.000000	44.000000	0.000000	0.000000
0.360000	89.910000	27.840000	343.000000	0.000000	152.000000	44.000000	0.000000	-6.000000
0.370000	89.840000	27.840000	343.000000	0.000000	152.000000	44.000000	-7.000000	0.000000
0.380000	89.840000	27.790000	343.000000	0.000000	152.000000	44.000000	0.000000	-5.000000
0.390000	89.840000	27.790000	337.000000	0.000000	152.000000	44.000000	0.000000	0.000000
0.400000	89.840000	27.790000	315.000000	0.000000	152.000000	44.000000	0.000000	0.000000
0.410000	89.840000	27.790000	312.000000	0.000000	152.000000	44.000000	0.000000	0.000000
0.420000	89.840000	27.720000	312.000000	0.000000	152.000000	44.000000	0.000000	-7.000000
0.430000	89.840000	27.670000	307.000000	0.000000	152.000000	44.000000	0.000000	-5.000000
0.440000	89.930000	27.670000	309.000000	0.000000	152.000000	44.000000	9.000000	0.000000
0.450000	90.040000	27.670000	315.000000	0.000000	152.000000	44.000000	11.000000	0.000000
0.460000	90.440000	27.880000	314.000000	0.000000	152.000000	44.000000	40.000000	21.000000
0.470000	91.030000	28.310000	310.000000	0.000000	153.000000	45.000000	59.000000	43.000000
0.480000	91.950000	28.890000	305.000000	0.000000	153.000000	45.000000	92.000000	58.000000
0.490000	93.240000	29.690000	316.000000	0.000000	153.000000	45.000000	129.000000	80.000000
0.500000	94.770000	30.580000	314.000000	0.000000	152.000000	45.000000	153.000000	89.000000
0.510000	96.220000	31.520000	324.000000	0.000000	153.000000	46.000000	145.000000	94.000000
0.520000	97.670000	32.410000	344.000000	0.000000	153.000000	46.000000	145.000000	89.000000
0.530000	98.850000	33.290000	339.000000	0.000000	152.000000	46.000000	118.000000	88.000000
0.540000	99.860000	33.870000	361.000000	0.000000	153.000000	47.000000	101.000000	58.000000
0.550000	100.270000	34.250000	361.000000	0.000000	152.000000	48.000000	41.000000	38.000000
0.560000	100.330000	34.250000	377.000000	0.000000	152.000000	48.000000	6.000000	0.000000
0.570000	100.160000	34.010000	382.000000	0.000000	150.000000	48.000000	-17.000000	-24.000000
0.580000	99.500000	33.610000	391.000000	0.000000	151.000000	48.000000	-66.000000	-40.000000
0.590000	98.510000	32.790000	392.000000	0.000000	151.000000	48.000000	-99.000000	-82.000000
0.600000	97.310000	31.930000	415.000000	0.000000	151.000000	48.000000	-120.000000	-86.000000
0.610000	96.120000	31.000000	423.000000	0.000000	151.000000	48.000000	-119.000000	-93.000000
0.620000	94.960000	30.200000	415.000000	0.000000	152.000000	48.000000	-116.000000	-80.000000
0.630000	94.090000	29.470000	418.000000	0.000000	152.000000	48.000000	-87.000000	-73.000000
0.640000	93.400000	28.930000	418.000000	0.000000	153.000000	47.000000	-69.000000	-54.000000
0.650000	93.100000	28.650000	402.000000	0.000000	154.000000	46.000000	-30.000000	-28.000000
0.660000	93.100000	28.540000	379.000000	0.000000	154.000000	46.000000	0.000000	-11.000000
0.670000	93.190000	28.590000	374.000000	0.000000	155.000000	45.000000	9.000000	5.000000
0.680000	93.450000	28.710000	364.000000	0.000000	155.000000	45.000000	26.000000	12.000000
0.690000	93.720000	28.870000	309.000000	0.000000	155.000000	45.000000	27.000000	16.000000
0.700000	94.000000	29.060000	191.000000	0.000000	156.000000	44.000000	28.000000	19.000000
0.710000	94.000000	29.060000	0.000000	1.000000	156.000000	44.000000	0.000000	0.000000
0.720000	94.500000	29.410000	0.000000	0.000000	156.000000	44.000000	50.000000	35.000000
0.730000	94.750000	29.560000	0.000000	0.000000	154.000000	44.000000	25.000000	15.000000
0.740000	94.950000	29.780000	0.000000	0.000000	154.000000	44.000000	20.000000	22.000000
0.750000	95.120000	30.030000	0.000000	0.000000	154.000000	44.000000	17.000000	25.000000
0.760000	95.450000	30.260000	0.000000	0.000000	154.000000	44.000000	33.000000	23.000000
0.770000	95.940000	30.520000	0.000000	0.000000	154.000000	44.000000	49.000000	26.000000
0.780000	96.530000	30.810000	0.000000	0.000000	153.000000	44.000000	59.000000	29.000000
0.790000	97.240000	31.150000	0.000000	0.000000	153.000000	45.000000	71.000000	34.000000
0.800000	98.110000	31.530000	0.000000	0.000000	154.000000	45.000000	87.000000	38.000000
0.810000	99.080000	31.930000	0.000000	0.000000	154.000000	45.000000	97.000000	40.000000
0.820000	100.200000	32.390000	0.000000	0.000000	154.000000	45.000000	112.000000	46.000000
0.830000	101.280000	32.840000	0.000000	0.000000	154.000000	45.000000	108.000000	45.000000
0.840000	102.320000	33.310000	0.000000	0.000000	154.000000	45.000000	104.000000	47.000000
0.850000	103.450000	33.790000	0.000000	0.000000	154.000000	45.000000	113.000000	48.000000
0.860000	104.560000	34.150000	0.000000	0.000000	154.000000	44.000000	111.000000	36.000000
0.870000	105.380000	34.490000	0.000000	0.000000	154.000000	44.000000	82.000000	34.000000
0.880000	106.000000	34.760000	0.000000	0.000000	154.000000	44.000000	62.000000	27.000000
0.890000	106.370000	34.940000	0.000000	0.000000	154.000000	45.000000	37.000000	18.000000
0.900000	106.530000	35.030000	0.000000	0.000000	154.000000	45.000000	16.000000	9.000000
0.910000	106.530000	35.030000	0.000000	0.000000	154.000000	45.000000	0.000000	0.000000
0.920000	106.410000	34.930000	0.000000	0.000000	153.000000	46.000000	-12.000000	-10.000000
0.930000	106.410000	34.930000	0.000000	0.000000	153.000000	46.000000	0.000000	0.000000
0.940000	106.410000	34.930000	244.000000	1.000000	153.000000	47.000000	0.000000	0.000000
0.950000	105.080000	33.800000	277.000000	0.000000	152.000000	48.000000	-133.000000	-113.000000
0.960000	104.130000	33.490000	297.000000	0.000000	152.000000	48.000000	-95.000000	-31.000000
0.970000	103.200000	32.950000	304.000000	0.000000	153.000000	48.000000	-93.000000	-54.000000
0.980000	102.330000	32.250000	304.000000	0.000000	155.000000	48.000000	-87.000000	-70.000000
0.990000	101.470000	31.520000	273.000000	0.000000	155.000000	48.000000	-86.000000	-73.000000
1.000000	100.600000	30.770000	273.000000	0.000000	156.000000	48.000000	-87.000000	-75.000000
1.010000	99.680000	30.010000	287.000000	0.000000	156.000000	48.000000	-92.000000	-76.000000
1.020000	98.730000	29.280000	294.000000	0.000000	157.000000	49.000000	-95.000000	-73.000000
1.030000	98.020000	28.660000	306.000000	0.000000	158.000000	48.000000	-71.000000	-62.000000
1.040000	97.570000	28.110000	309.000000	0.000000	158.000000	48.000000	-45.000000	-55.000000
1.050000	97.280000	27.770000	291.000000	0.000000	157.000000	49.000000	-29.000000	-34.000000
1.060000	97.280000	27.680000	287.000000	0.000000	157.000000	49.000000	0.000000	-9.000000
1.070000	97.520000	27.770000	292.000000	0.000000	157.000000	49.000000	24.000000	9.000000
1.080000	97.910000	28.090000	307.000000	0.000000	155.000000	49.000000	39.000000	32.000000
1.090000	98.530000	28.550000	309.000000	0.000000	155.000000	49.000000	62.000000	46.000000
1.100000	99.120000	29.110000	320.000000	0.000000	155.000000	49.000000	59.000000	56.000000
1.110000	99.700000	29.510000	343.000000	0.000000	155.000000	49.000000	58.000000	40.000000
1.120000	100.080000	29.880000	369.000000	0.000000	156.000000	48.000000	38.000000	37.000000
1.130000	100.230000	30.020000	394.000000	0.000000	155.000000	48.000000	15.000000	14.000000
1.140000	100.230000	30.020000	422.000000	0.000000	155.000000	47.000000	0.000000	0.000000
1.150000	100.230000	30.020000	415.000000	0.000000	154.000000	47.000000	0.000000	0.000000
1.160000	100.130000	29.960000	417.000000	0.000000	155.000000	46.000000	-10.000000	-6.000000
1.170000	100.010000	29.860000	397.000000	0.000000	154.000000	46.000000	-12.000000	-10.000000
1.180000	99.900000	29.720000	367.000000	0.000000	155.000000	45.000000	-11.000000	-14.000000
1.190000	99.780000	29.570000	309.000000	0.000000	155.000000	45.000000	-12.000000	-15.000000
1.200000	99.690000	29.470000	242.000000	0.000000	154.000000	45.000000	-9.000000	-10.000000
1.210000	99.690000	29.470000	146.000000	0.000000	154.000000	45.000000	0.000000	0.000000
1.220000	99.690000	29.470000	34.000000	0.000000	154.000000	45.000000	0.000000	0.000000
1.230000	99.690000	29.470000	0.000000	1.000000	155.000000	45.000000	0.000000	0.000000
1.240000	99.690000	29.470000	0.000000	0.000000	155.000000	45.000000	0.000000	0.000000
1.250000	99.690000	29.470000	0.000000	0.000000	154.000000	46.000000	0.000000	0.000000
1.260000	100.190000	29.900000	0.000000	0.000000	155.000000	46.000000	50.000000	43.000000
1.270000	100.560000	30.240000	0.000000	0.000000	156.000000	46.000000	37.000000	34.000000
1.280000	101.150000	30.700000	0.000000	0.000000	157.000000	48.000000	59.000000	46.000000
1.290000	101.870000	31.240000	0.000000	0.000000	157.000000	48.000000	72.000000	54.000000
1.300000	102.800000	31.830000	0.000000	0.000000	158.000000	48.000000	93.000000	59.000000
1.310000	103.900000	32.450000	0.000000	0.000000	158.000000	48.000000	110.000000	62.000000
1.320000	105.110000	33.070000	0.000000	0.000000	158.000000	48.000000	121.000000	62.000000
1.330000	106.260000	33.680000	0.000000	0.000000	158.000000	48.000000	115.000000	61.000000
1.340000	107.280000	34.180000	0.000000	0.000000	157.000000	48.000000	102.000000	50.000000
1.350000	108.210000	34.520000	0.000000	0.000000	157.000000	48.000000	93.000000	34.000000
1.360000	108.890000	34.750000	0.000000	0.000000	157.000000	48.000000	68.000000	23.000000
1.370000	109.260000	34.750000	0.000000	0.000000	155.000000	48.000000	37.000000	0.000000
1.380000	109.260000	34.750000	105.000000	1.000000	155.000000	48.000000	0.000000	0.000000
1.390000	109.230000	34.340000	210.000000	0.000000	156.000000	48.000000	-3.000000	-41.000000
1.400000	108.600000	34.060000	282.000000	0.000000	155.000000	49.000000	-63.000000	-28.000000
1.410000	107.680000	33.640000	289.000000	0.000000	155.000000	49.000000	-92.000000	-42.000000
1.420000	106.660000	32.970000	306.000000	0.000000	155.000000	49.000000	-102.000000	-67.000000
1.430000	105.570000	32.180000	309.000000	0.000000	156.000000	50.000000	-109.000000	-79.000000
1.440000	104.420000	31.340000	307.000000	0.000000	156.000000	50.000000	-115.000000	-84.000000
1.450000	103.310000	30.590000	309.000000	0.000000	156.000000	50.000000	-111.000000	-75.000000
1.460000	102.410000	29.890000	309.000000	0.000000	157.000000	50.000000	-90.000000	-70.000000
1.470000	101.660000	29.220000	310.000000	0.000000	159.000000	50.000000	-75.000000	-67.000000
1.480000	101.120000	28.690000	309.000000	0.000000	159.000000	49.000000	-54.000000	-53.000000
1.490000	100.860000	28.260000	317.000000	0.000000	159.000000	49.000000	-26.000000	-43.000000
1.500000	100.790000	28.110000	314.000000	0.000000	159.000000	49.000000	-7.000000	-15.000000
1.510000	101.050000	28.210000	314.000000	0.000000	161.000000	49.000000	26.000000	10.000000
1.520000	101.590000	28.480000	314.000000	0.000000	160.000000	50.000000	54.000000	27.000000
1.530000	102.310000	28.990000	317.000000	0.000000	160.000000	50.000000	72.000000	51.000000
1.540000	103.040000	29.480000	305.000000	0.000000	160.000000	50.000000	73.000000	49.000000
1.550000	103.590000	29.940000	309.000000	0.000000	160.000000	50.000000	55.000000	46.000000
1.560000	104.020000	30.210000	334.000000	0.000000	160.000000	50.000000	43.000000	27.000000
1.570000	104.130000	30.370000	363.000000	0.000000	160.000000	50.000000	11.000000	16.000000
1.580000	104.080000	30.370000	376.000000	0.000000	160.000000	50.000000	-5.000000	0.000000
1.590000	103.930000	30.320000	386.000000	0.000000	160.000000	50.000000	-15.000000	-5.000000
1.600000	103.830000	30.250000	369.000000	0.000000	160.000000	50.000000	-10.000000	-7.000000
1.610000	103.570000	30.030000	363.000000	0.000000	159.000000	49.000000	-26.000000	-22.000000
1.620000	103.200000	29.720000	337.000000	0.000000	159.000000	49.000000	-37.000000	-31.000000
1.630000	102.960000	29.460000	319.000000	0.000000	159.000000	49.000000	-24.000000	-26.000000
1.640000	102.760000	29.260000	311.000000	0.000000	161.000000	49.000000	-20.000000	-20.000000
1.650000	102.760000	29.110000	284.000000	0.000000	161.000000	49.000000	0.000000	-15.000000
1.660000	102.850000	29.110000	280.000000	0.000000	160.000000	50.000000	9.000000	0.000000
1.670000	103.090000	29.200000	274.000000	0.000000	160.000000	50.000000	24.000000	9.000000
1.680000	103.610000	29.420000	260.000000	0.000000	160.000000	50.000000	52.000000	22.000000
1.690000	104.320000	29.820000	249.000000	0.000000	160.000000	50.000000	71.000000	40.000000
1.700000	105.300000	30.350000	242.000000	0.000000	160.000000	50.000000	98.000000	53.000000
1.710000	106.330000	30.970000	250.000000	0.000000	160.000000	50.000000	103.000000	62.000000
1.720000	107.440000	31.570000	279.000000	0.000000	160.000000	50.000000	111.000000	60.000000
1.730000	108.520000	32.120000	276.000000	0.000000	159.000000	50.000000	108.000000	55.000000
1.740000	109.340000	32.570000	281.000000	0.000000	159.000000	50.000000	82.000000	45.000000
1.750000	110.010000	32.760000	299.000000	0.000000	158.000000	51.000000	67.000000	19.000000
1.760000	110.300000	32.760000	334.000000	0.000000	157.000000	51.000000	29.000000	0.000000
1.770000	110.170000	32.580000	387.000000	0.000000	157.000000	51.000000	-13.000000	-18.000000
1.780000	109.770000	32.040000	417.000000	0.000000	157.000000	51.000000	-40.000000	-54.000000
1.790000	108.830000	31.280000	445.000000	0.000000	157.000000	51.000000	-94.000000	-76.000000
1.800000	107.500000	30.260000	469.000000	0.000000	157.000000	51.000000	-133.000000	-102.000000
1.810000	105.910000	29.030000	473.000000	0.000000	158.000000	51.000000	-159.000000	-123.000000
1.820000	104.190000	27.660000	469.000000	0.000000	158.000000	51.000000	-172.000000	-137.000000
1.830000	102.480000	26.350000	473.000000	0.000000	158.000000	51.000000	-171.000000	-131.000000
1.840000	101.070000	25.360000	468.000000	0.000000	159.000000	51.000000	-141.000000	-99.000000
1.850000	99.860000	24.580000	469.000000	0.000000	158.000000	52.000000	-121.000000	-78.000000
1.860000	99.210000	24.280000	465.000000	0.000000	158.000000	52.000000	-65.000000	-30.000000
1.870000	99.150000	24.450000	465.000000	0.000000	158.000000	52.000000	-6.000000	17.000000
1.880000	99.490000	24.930000	467.000000	0.000000	158.000000	53.000000	34.000000	48.000000
1.890000	100.370000	25.890000	478.000000	0.000000	159.000000	53.000000	88.000000	96.000000
1.900000	101.470000	27.280000	494.000000	0.000000	159.000000	53.000000	110.000000	139.000000
1.910000	102.710000	28.970000	527.000000	0.000000	159.000000	53.000000	124.000000	169.000000
1.920000	103.820000	30.500000	589.000000	0.000000	160.000000	52.000000	111.000000	153.000000
1.930000	104.380000	31.740000	641.000000	0.000000	158.000000	52.000000	56.000000	124.000000
1.940000	104.560000	32.800000	664.000000	0.000000	159.000000	51.000000	18.000000	106.000000
1.950000	103.940000	33.580000	676.000000	0.000000	159.000000	51.000000	-62.000000	78.000000
1.960000	102.540000	33.790000	685.000000	0.000000	160.000000	50.000000	-140.000000	21.000000
1.970000	100.630000	33.620000	691.000000	0.000000	159.000000	50.000000	-191.000000	-17.000000
1.980000	98.110000	32.900000	687.000000	0.000000	159.000000	49.000000	-252.000000	-72.000000
1.990000	95.560000	32.000000	691.000000	0.000000	159.000000	49.000000	-255.000000	-90.000000
2.000000	92.980000	30.990000	684.000000	0.000000	159.000000	48.000000	-258.000000	-101.000000
2.010000	90.910000	29.940000	678.000000	0.000000	160.000000	47.000000	-207.000000	-105.000000
2.020000	89.450000	28.970000	678.000000	0.000000	160.000000	47.000000	-146.000000	-97.000000
2.030000	88.400000	28.400000	650.000000	0.000000	160.000000	46.000000	-105.000000	-57.000000
2.040000	88.400000	28.080000	645.000000	0.000000	161.000000	45.000000	0.000000	-32.000000
2.050000	89.230000	28.080000	641.000000	0.000000	161.000000	44.000000	83.000000	0.000000
2.060000	90.580000	28.540000	634.000000	0.000000	161.000000	44.000000	135.000000	46.000000
2.070000	92.890000	29.220000	624.000000	0.000000	162.000000	45.000000	231.000000	68.000000
2.080000	95.760000	30.130000	610.000000	0.000000	162.000000	45.000000	287.000000	91.000000
2.090000	98.990000	31.030000	611.000000	0.000000	162.000000	45.000000	323.000000	90.000000
2.100000	101.940000	31.920000	622.000000	0.000000	163.000000	45.000000	295.000000	89.000000
2.110000	104.430000	32.550000	641.000000	0.000000	163.000000	46.000000	249.000000	63.000000
2.120000	106.610000	32.830000	638.000000	0.000000	163.000000	47.000000	218.000000	28.000000
2.130000	107.730000	32.880000	656.000000	0.000000	163.000000	47.000000	112.000000	5.000000
2.140000	108.030000	32.520000	693.000000	0.000000	164.000000	48.000000	30.000000	-36.000000
2.150000	107.770000	31.850000	724.000000	0.000000	164.000000	48.000000	-26.000000	-67.000000
2.160000	106.700000	30.970000	722.000000	0.000000	165.000000	48.000000	-107.000000	-88.000000
2.170000	104.940000	29.780000	733.000000	0.000000	165.000000	49.000000	-176.000000	-119.000000
2.180000	102.710000	28.550000	733.000000	0.000000	165.000000	49.000000	-223.000000	-123.000000
