t	x	y	pressure	penup	azimuth	inclination	v_x	v_y
0.000000	50.650000	9.770000	24.000000	1.000000	136.000000	50.000000	0.000000	0.000000
0.010000	50.130000	9.220000	65.000000	0.000000	137.000000	51.000000	-52.000000	-55.000000
0.020000	49.880000	8.940000	124.000000	0.000000	137.000000	51.000000	-25.000000	-28.000000
0.030000	49.680000	8.770000	146.000000	0.000000	138.000000	51.000000	-20.000000	-17.000000
0.040000	49.590000	8.650000	179.000000	0.000000	138.000000	51.000000	-9.000000	-12.000000
0.050000	49.590000	8.650000	202.000000	0.000000	140.000000	52.000000	0.000000	0.000000
0.060000	49.840000	8.740000	237.000000	0.000000	140.000000	52.000000	25.000000	9.000000
0.070000	50.190000	8.880000	257.000000	0.000000	140.000000	52.000000	35.000000	14.000000
0.080000	51.020000	9.470000	269.000000	0.000000	140.000000	52.000000	83.000000	59.000000
0.090000	52.270000	10.460000	279.000000	0.000000	139.000000	52.000000	125.000000	99.000000
0.100000	53.800000	11.710000	285.000000	0.000000	137.000000	52.000000	153.000000	125.000000
0.110000	55.360000	13.610000	294.000000	0.000000	137.000000	52.000000	156.000000	190.000000
0.120000	56.920000	15.250000	316.000000	0.000000	136.000000	51.000000	156.000000	164.000000
0.130000	58.470000	16.720000	325.000000	0.000000	136.000000	51.000000	155.000000	147.000000
0.140000	59.370000	17.800000	329.000000	0.000000	135.000000	51.000000	90.000000	108.000000
0.150000	59.750000	18.230000	369.000000	0.000000	134.000000	50.000000	38.000000	43.000000
0.160000	59.750000	18.230000	397.000000	0.000000	133.000000	50.000000	0.000000	0.000000
0.170000	59.630000	18.080000	412.000000	0.000000	134.000000	49.000000	-12.000000	-15.000000
0.180000	59.040000	17.380000	413.000000	0.000000	135.000000	49.000000	-59.000000	-70.000000
0.190000	58.160000	16.330000	407.000000	0.000000	134.000000	48.000000	-88.000000	-105.000000
0.200000	56.920000	15.030000	397.000000	0.000000	134.000000	48.000000	-124.000000	-130.000000
0.210000	55.640000	13.530000	399.000000	0.000000	134.000000	48.000000	-128.000000	-150.000000
0.220000	54.330000	11.890000	402.000000	0.000000	134.000000	49.000000	-131.000000	-164.000000
0.230000	53.110000	10.520000	413.000000	0.000000	134.000000	49.000000	-122.000000	-137.000000
0.240000	52.140000	9.630000	423.000000	0.000000	133.000000	50.000000	-97.000000	-89.000000
0.250000	51.340000	9.050000	414.000000	0.000000	134.000000	50.000000	-80.000000	-58.000000
0.260000	51.000000	8.720000	417.000000	0.000000	135.000000	51.000000	-34.000000	-33.000000
0.270000	50.920000	8.580000	396.000000	0.000000	136.000000	51.000000	-8.000000	-14.000000
0.280000	51.000000	8.580000	391.000000	0.000000	136.000000	51.000000	8.000000	0.000000
0.290000	51.230000	8.650000	392.000000	0.000000	136.000000	51.000000	23.000000	7.000000
0.300000	51.620000	8.890000	396.000000	0.000000	138.000000	51.000000	39.000000	24.000000
0.310000	52.120000	9.230000	399.000000	0.000000	138.000000	51.000000	50.000000	34.000000
0.320000	52.520000	9.550000	407.000000	0.000000	138.000000	51.000000	40.000000	32.000000
0.330000	52.680000	9.820000	440.000000	0.000000	138.000000	51.000000	16.000000	27.000000
0.340000	52.680000	9.890000	472.000000	0.000000	137.000000	51.000000	0.000000	7.000000
0.350000	52.680000	9.890000	472.000000	0.000000	137.000000	51.000000	0.000000	0.000000
0.360000	52.550000	9.830000	466.000000	0.000000	137.000000	51.000000	-13.000000	-6.000000
0.370000	52.380000	9.760000	441.000000	0.000000	136.000000	50.000000	-17.000000	-7.000000
0.380000	52.150000	9.610000	423.000000	0.000000	136.000000	50.000000	-23.000000	-15.000000
0.390000	51.950000	9.420000	389.000000	0.000000	136.000000	50.000000	-20.000000	-19.000000
0.400000	51.780000	9.220000	396.000000	0.000000	136.000000	50.000000	-17.000000	-20.000000
0.410000	51.620000	9.100000	386.000000	0.000000	137.000000	51.000000	-16.000000	-12.000000
0.420000	51.620000	9.040000	361.000000	0.000000	137.000000	51.000000	0.000000	-6.000000
0.430000	51.620000	9.040000	351.000000	0.000000	137.000000	51.000000	0.000000	0.000000
0.440000	51.780000	9.040000	343.000000	0.000000	137.000000	51.000000	16.000000	0.000000
0.450000	52.000000	9.040000	333.000000	0.000000	137.000000	51.000000	22.000000	0.000000
0.460000	52.390000	9.250000	334.000000	0.000000	137.000000	51.000000	39.000000	21.000000
0.470000	52.890000	9.560000	325.000000	0.000000	137.000000	51.000000	50.000000	31.000000
0.480000	53.600000	9.970000	319.000000	0.000000	137.000000	51.000000	71.000000	41.000000
0.490000	54.560000	10.600000	317.000000	0.000000	136.000000	51.000000	96.000000	63.000000
0.500000	55.680000	11.640000	315.000000	0.000000	136.000000	51.000000	112.000000	104.000000
0.510000	57.140000	12.950000	315.000000	0.000000	135.000000	51.000000	146.000000	131.000000
0.520000	58.600000	14.330000	315.000000	0.000000	134.000000	51.000000	146.000000	138.000000
0.530000	60.030000	15.530000	315.000000	0.000000	134.000000	51.000000	143.000000	120.000000
0.540000	61.230000	16.600000	314.000000	0.000000	133.000000	51.000000	120.000000	107.000000
0.550000	62.320000	17.460000	317.000000	0.000000	133.000000	51.000000	109.000000	86.000000
0.560000	62.990000	17.870000	320.000000	0.000000	134.000000	50.000000	67.000000	41.000000
0.570000	63.140000	17.990000	349.000000	0.000000	134.000000	50.000000	15.000000	12.000000
0.580000	62.930000	17.840000	372.000000	0.000000	135.000000	50.000000	-21.000000	-15.000000
0.590000	62.110000	17.130000	394.000000	0.000000	136.000000	49.000000	-82.000000	-71.000000
0.600000	60.960000	16.050000	420.000000	0.000000	136.000000	49.000000	-115.000000	-108.000000
0.610000	59.590000	14.640000	433.000000	0.000000	136.000000	49.000000	-137.000000	-141.000000
0.620000	58.240000	13.180000	438.000000	0.000000	136.000000	49.000000	-135.000000	-146.000000
0.630000	56.980000	11.660000	443.000000	0.000000	137.000000	50.000000	-126.000000	-152.000000
0.640000	55.770000	10.570000	438.000000	0.000000	136.000000	50.000000	-121.000000	-109.000000
0.650000	54.950000	9.770000	438.000000	0.000000	136.000000	50.000000	-82.000000	-80.000000
0.660000	54.450000	9.200000	435.000000	0.000000	135.000000	51.000000	-50.000000	-57.000000
0.670000	54.160000	8.910000	418.000000	0.000000	135.000000	51.000000	-29.000000	-29.000000
0.680000	54.160000	8.810000	396.000000	0.000000	135.000000	51.000000	0.000000	-10.000000
0.690000	54.160000	8.810000	388.000000	0.000000	135.000000	51.000000	0.000000	0.000000
0.700000	54.350000	8.950000	389.000000	0.000000	135.000000	51.000000	19.000000	14.000000
0.710000	54.590000	9.160000	391.000000	0.000000	136.000000	50.000000	24.000000	21.000000
0.720000	54.890000	9.430000	364.000000	0.000000	136.000000	50.000000	30.000000	27.000000
0.730000	55.060000	9.680000	349.000000	0.000000	137.000000	51.000000	17.000000	25.000000
0.740000	55.150000	9.870000	322.000000	0.000000	137.000000	51.000000	9.000000	19.000000
0.750000	55.150000	9.970000	264.000000	0.000000	137.000000	51.000000	0.000000	10.000000
0.760000	55.150000	9.970000	99.000000	0.000000	137.000000	51.000000	0.000000	0.000000
0.770000	55.150000	9.970000	0.000000	1.000000	136.000000	50.000000	0.000000	0.000000
0.780000	55.070000	9.970000	0.000000	0.000000	136.000000	50.000000	-8.000000	0.000000
0.790000	55.070000	10.040000	0.000000	0.000000	136.000000	50.000000	0.000000	7.000000
0.800000	55.070000	10.120000	0.000000	0.000000	136.000000	50.000000	0.000000	8.000000
0.810000	55.310000	10.280000	0.000000	0.000000	136.000000	50.000000	24.000000	16.000000
0.820000	55.670000	10.640000	0.000000	0.000000	137.000000	51.000000	36.000000	36.000000
0.830000	56.380000	11.130000	0.000000	0.000000	137.000000	51.000000	71.000000	49.000000
0.840000	57.360000	12.060000	0.000000	0.000000	137.000000	51.000000	98.000000	93.000000
0.850000	58.530000	13.080000	0.000000	0.000000	137.000000	51.000000	117.000000	102.000000
0.860000	59.740000	14.170000	0.000000	0.000000	138.000000	50.000000	121.000000	109.000000
0.870000	61.090000	15.210000	0.000000	0.000000	138.000000	49.000000	135.000000	104.000000
0.880000	62.530000	16.250000	0.000000	0.000000	139.000000	48.000000	144.000000	104.000000
0.890000	63.840000	17.080000	0.000000	0.000000	140.000000	48.000000	131.000000	83.000000
0.900000	64.940000	17.770000	0.000000	0.000000	139.000000	47.000000	110.000000	69.000000
0.910000	65.910000	18.220000	0.000000	0.000000	140.000000	47.000000	97.000000	45.000000
0.920000	66.720000	18.470000	0.000000	0.000000	142.000000	47.000000	81.000000	25.000000
0.930000	67.240000	18.590000	0.000000	0.000000	142.000000	47.000000	52.000000	12.000000
0.940000	67.570000	18.590000	0.000000	0.000000	143.000000	48.000000	33.000000	0.000000
0.950000	67.630000	18.420000	0.000000	0.000000	143.000000	49.000000	6.000000	-17.000000
0.960000	67.480000	18.150000	0.000000	0.000000	142.000000	49.000000	-15.000000	-27.000000
0.970000	67.480000	18.150000	193.000000	1.000000	142.000000	49.000000	0.000000	0.000000
0.980000	66.650000	17.530000	225.000000	0.000000	142.000000	49.000000	-83.000000	-62.000000
0.990000	66.170000	17.150000	253.000000	0.000000	142.000000	49.000000	-48.000000	-38.000000
1.000000	65.410000	16.580000	257.000000	0.000000	142.000000	49.000000	-76.000000	-57.000000
1.010000	64.440000	15.860000	260.000000	0.000000	141.000000	49.000000	-97.000000	-72.000000
1.020000	63.620000	15.090000	279.000000	0.000000	141.000000	49.000000	-82.000000	-77.000000
1.030000	62.710000	14.100000	307.000000	0.000000	141.000000	49.000000	-91.000000	-99.000000
1.040000	61.750000	12.980000	335.000000	0.000000	140.000000	50.000000	-96.000000	-112.000000
1.050000	60.860000	11.700000	333.000000	0.000000	138.000000	50.000000	-89.000000	-128.000000
1.060000	60.140000	10.700000	334.000000	0.000000	140.000000	51.000000	-72.000000	-100.000000
1.070000	59.520000	9.880000	334.000000	0.000000	138.000000	51.000000	-62.000000	-82.000000
1.080000	59.100000	9.280000	333.000000	0.000000	140.000000	52.000000	-42.000000	-60.000000
1.090000	58.950000	8.940000	329.000000	0.000000	140.000000	52.000000	-15.000000	-34.000000
1.100000	58.950000	8.780000	327.000000	0.000000	141.000000	52.000000	0.000000	-16.000000
1.110000	59.220000	8.780000	334.000000	0.000000	141.000000	52.000000	27.000000	0.000000
1.120000	59.640000	9.060000	337.000000	0.000000	142.000000	53.000000	42.000000	28.000000
1.130000	60.190000	9.530000	334.000000	0.000000	142.000000	53.000000	55.000000	47.000000
1.140000	60.800000	10.120000	346.000000	0.000000	142.000000	53.000000	61.000000	59.000000
1.150000	61.340000	10.680000	353.000000	0.000000	141.000000	53.000000	54.000000	56.000000
1.160000	61.650000	11.050000	353.000000	0.000000	141.000000	53.000000	31.000000	37.000000
1.170000	61.840000	11.290000	369.000000	0.000000	140.000000	53.000000	19.000000	24.000000
1.180000	61.840000	11.380000	389.000000	0.000000	139.000000	54.000000	0.000000	9.000000
1.190000	61.630000	11.310000	387.000000	0.000000	139.000000	54.000000	-21.000000	-7.000000
1.200000	61.350000	11.140000	387.000000	0.000000	137.000000	53.000000	-28.000000	-17.000000
1.210000	60.990000	10.880000	376.000000	0.000000	137.000000	53.000000	-36.000000	-26.000000
1.220000	60.660000	10.620000	371.000000	0.000000	137.000000	53.000000	-33.000000	-26.000000
1.230000	60.380000	10.360000	325.000000	0.000000	139.000000	54.000000	-28.000000	-26.000000
1.240000	60.270000	10.220000	247.000000	0.000000	139.000000	54.000000	-11.000000	-14.000000
1.250000	60.270000	10.150000	151.000000	0.000000	139.000000	54.000000	0.000000	-7.000000
1.260000	60.390000	10.150000	29.000000	0.000000	139.000000	54.000000	12.000000	0.000000
1.270000	60.390000	10.150000	0.000000	1.000000	141.000000	53.000000	0.000000	0.000000
1.280000	60.960000	10.470000	0.000000	0.000000	141.000000	53.000000	57.000000	32.000000
1.290000	61.250000	10.760000	0.000000	0.000000	141.000000	53.000000	29.000000	29.000000
1.300000	61.530000	11.110000	0.000000	0.000000	141.000000	53.000000	28.000000	35.000000
1.310000	61.810000	11.510000	0.000000	0.000000	140.000000	53.000000	28.000000	40.000000
1.320000	62.180000	12.100000	0.000000	0.000000	140.000000	53.000000	37.000000	59.000000
1.330000	62.600000	12.670000	0.000000	0.000000	139.000000	52.000000	42.000000	57.000000
1.340000	63.130000	13.230000	0.000000	0.000000	140.000000	52.000000	53.000000	56.000000
1.350000	63.730000	13.790000	0.000000	0.000000	138.000000	51.000000	60.000000	56.000000
1.360000	64.430000	14.400000	0.000000	0.000000	140.000000	51.000000	70.000000	61.000000
1.370000	65.210000	15.040000	0.000000	0.000000	141.000000	50.000000	78.000000	64.000000
1.380000	66.120000	15.720000	0.000000	0.000000	141.000000	49.000000	91.000000	68.000000
1.390000	67.120000	16.390000	0.000000	0.000000	143.000000	49.000000	100.000000	67.000000
1.400000	67.930000	16.960000	0.000000	0.000000	144.000000	48.000000	81.000000	57.000000
1.410000	68.600000	17.470000	0.000000	0.000000	145.000000	47.000000	67.000000	51.000000
1.420000	69.190000	17.880000	0.000000	0.000000	146.000000	48.000000	59.000000	41.000000
1.430000	69.630000	18.090000	0.000000	0.000000	146.000000	48.000000	44.000000	21.000000
1.440000	69.980000	18.170000	0.000000	0.000000	147.000000	48.000000	35.000000	8.000000
1.450000	69.980000	18.170000	172.000000	1.000000	146.000000	49.000000	0.000000	0.000000
1.460000	69.980000	18.170000	180.000000	0.000000	147.000000	49.000000	0.000000	0.000000
1.470000	69.960000	17.890000	193.000000	0.000000	146.000000	50.000000	-2.000000	-28.000000
1.480000	69.620000	17.590000	212.000000	0.000000	146.000000	50.000000	-34.000000	-30.000000
1.490000	69.190000	17.130000	225.000000	0.000000	146.000000	50.000000	-43.000000	-46.000000
1.500000	68.710000	16.560000	233.000000	0.000000	146.000000	50.000000	-48.000000	-57.000000
1.510000	67.970000	15.740000	255.000000	0.000000	146.000000	50.000000	-74.000000	-82.000000
1.520000	66.980000	14.690000	304.000000	0.000000	145.000000	51.000000	-99.000000	-105.000000
1.530000	65.830000	13.500000	367.000000	0.000000	144.000000	50.000000	-115.000000	-119.000000
1.540000	64.690000	12.160000	430.000000	0.000000	143.000000	51.000000	-114.000000	-134.000000
1.550000	63.550000	10.820000	465.000000	0.000000	143.000000	51.000000	-114.000000	-134.000000
1.560000	62.520000	9.860000	467.000000	0.000000	141.000000	51.000000	-103.000000	-96.000000
1.570000	61.560000	9.150000	474.000000	0.000000	141.000000	51.000000	-96.000000	-71.000000
1.580000	61.250000	8.680000	441.000000	0.000000	141.000000	52.000000	-31.000000	-47.000000
1.590000	61.330000	8.480000	420.000000	0.000000	141.000000	52.000000	8.000000	-20.000000
1.600000	61.670000	8.480000	399.000000	0.000000	141.000000	52.000000	34.000000	0.000000
1.610000	62.320000	8.660000	399.000000	0.000000	142.000000	53.000000	65.000000	18.000000
1.620000	63.180000	9.150000	402.000000	0.000000	142.000000	53.000000	86.000000	49.000000
1.630000	64.170000	9.840000	415.000000	0.000000	143.000000	52.000000	99.000000	69.000000
1.640000	65.100000	10.640000	420.000000	0.000000	142.000000	53.000000	93.000000	80.000000
1.650000	65.830000	11.460000	427.000000	0.000000	141.000000	52.000000	73.000000	82.000000
1.660000	66.420000	12.300000	431.000000	0.000000	141.000000	52.000000	59.000000	84.000000
1.670000	66.740000	12.770000	435.000000	0.000000	140.000000	53.000000	32.000000	47.000000
1.680000	66.820000	12.940000	441.000000	0.000000	140.000000	53.000000	8.000000	17.000000
1.690000	66.740000	12.940000	441.000000	0.000000	137.000000	53.000000	-8.000000	0.000000
1.700000	66.580000	12.790000	431.000000	0.000000	137.000000	53.000000	-16.000000	-15.000000
1.710000	66.260000	12.490000	422.000000	0.000000	137.000000	53.000000	-32.000000	-30.000000
1.720000	65.820000	12.070000	425.000000	0.000000	137.000000	53.000000	-44.000000	-42.000000
1.730000	65.420000	11.580000	425.000000	0.000000	137.000000	53.000000	-40.000000	-49.000000
1.740000	65.070000	11.210000	420.000000	0.000000	137.000000	53.000000	-35.000000	-37.000000
1.750000	64.790000	10.910000	418.000000	0.000000	137.000000	53.000000	-28.000000	-30.000000
1.760000	64.670000	10.710000	369.000000	0.000000	137.000000	53.000000	-12.000000	-20.000000
1.770000	64.670000	10.640000	339.000000	0.000000	137.000000	53.000000	0.000000	-7.000000
1.780000	64.820000	10.640000	289.000000	0.000000	139.000000	52.000000	15.000000	0.000000
1.790000	65.220000	10.860000	252.000000	0.000000	139.000000	52.000000	40.000000	22.000000
1.800000	65.770000	11.360000	218.000000	0.000000	139.000000	52.000000	55.000000	50.000000
1.810000	66.530000	12.070000	207.000000	0.000000	140.000000	53.000000	76.000000	71.000000
1.820000	67.430000	12.930000	212.000000	0.000000	140.000000	53.000000	90.000000	86.000000
1.830000	68.420000	13.770000	225.000000	0.000000	140.000000	53.000000	99.000000	84.000000
1.840000	69.290000	14.570000	239.000000	0.000000	141.000000	53.000000	87.000000	80.000000
1.850000	70.040000	15.350000	246.000000	0.000000	141.000000	53.000000	75.000000	78.000000
1.860000	70.710000	15.810000	254.000000	0.000000	142.000000	54.000000	67.000000	46.000000
1.870000	71.040000	16.060000	264.000000	0.000000	142.000000	54.000000	33.000000	25.000000
1.880000	71.130000	16.060000	309.000000	0.000000	145.000000	54.000000	9.000000	0.000000
1.890000	71.060000	15.710000	356.000000	0.000000	146.000000	54.000000	-7.000000	-35.000000
1.900000	70.630000	15.220000	369.000000	0.000000	146.000000	54.000000	-43.000000	-49.000000
1.910000	69.770000	14.340000	405.000000	0.000000	148.000000	54.000000	-86.000000	-88.000000
1.920000	68.620000	12.970000	417.000000	0.000000	148.000000	54.000000	-115.000000	-137.000000
1.930000	66.990000	11.270000	446.000000	0.000000	148.000000	54.000000	-163.000000	-170.000000
1.940000	65.360000	9.910000	465.000000	0.000000	147.000000	53.000000	-163.000000	-136.000000
1.950000	63.740000	8.590000	477.000000	0.000000	147.000000	53.000000	-162.000000	-132.000000
1.960000	62.160000	7.310000	488.000000	0.000000	146.000000	54.000000	-158.000000	-128.000000
1.970000	60.620000	6.230000	493.000000	0.000000	145.000000	54.000000	-154.000000	-108.000000
1.980000	59.640000	5.540000	489.000000	0.000000	146.000000	54.000000	-98.000000	-69.000000
1.990000	59.110000	5.110000	499.000000	0.000000	146.000000	54.000000	-53.000000	-43.000000
2.000000	58.870000	5.390000	504.000000	0.000000	146.000000	54.000000	-24.000000	28.000000
2.010000	59.090000	6.200000	507.000000	0.000000	147.000000	55.000000	22.000000	81.000000
2.020000	59.760000	7.360000	519.000000	0.000000	147.000000	55.000000	67.000000	116.000000
2.030000	60.730000	8.830000	522.000000	0.000000	147.000000	55.000000	97.000000	147.000000
2.040000	61.960000	10.490000	518.000000	0.000000	147.000000	55.000000	123.000000	166.000000
2.050000	62.950000	12.270000	522.000000	0.000000	147.000000	55.000000	99.000000	178.000000
2.060000	63.770000	13.980000	527.000000	0.000000	146.000000	54.000000	82.000000	171.000000
2.070000	63.960000	14.990000	539.000000	0.000000	145.000000	54.000000	19.000000	101.000000
2.080000	63.450000	15.530000	560.000000	0.000000	143.000000	53.000000	-51.000000	54.000000
2.090000	62.460000	15.650000	580.000000	0.000000	142.000000	53.000000	-99.000000	12.000000
2.100000	60.700000	15.230000	595.000000	0.000000	141.000000	52.000000	-176.000000	-42.000000
2.110000	58.610000	14.440000	611.000000	0.000000	141.000000	52.000000	-209.000000	-79.000000
2.120000	56.290000	13.170000	636.000000	0.000000	141.000000	52.000000	-232.000000	-127.000000
2.130000	54.270000	11.810000	641.000000	0.000000	141.000000	52.000000	-202.000000	-136.000000
2.140000	52.550000	10.400000	647.000000	0.000000	141.000000	52.000000	-172.000000	-141.000000
2.150000	51.030000	9.540000	642.000000	0.000000	141.000000	52.000000	-152.000000	-86.000000
2.160000	50.270000	9.040000	628.000000	0.000000	143.000000	52.000000	-76.000000	-50.000000
2.170000	50.160000	8.770000	605.000000	0.000000	145.000000	53.000000	-11.000000	-27.000000
2.180000	50.480000	8.770000	597.000000	0.000000	145.000000	53.000000	32.000000	0.000000
2.190000	51.730000	9.040000	567.000000	0.000000	146.000000	52.000000	125.000000	27.000000
2.200000	53.740000	9.560000	550.000000	0.000000	146.000000	52.000000	201.000000	52.000000
