t	x	y	pressure	penup	azimuth	inclination	v_x	v_y
0.000000	44.140000	59.260000	81.000000	1.000000	118.000000	51.000000	0.000000	0.000000
0.010000	43.820000	59.310000	78.000000	0.000000	119.000000	50.000000	-32.000000	5.000000
0.020000	44.070000	59.620000	22.000000	0.000000	118.000000	49.000000	25.000000	31.000000
0.030000	44.660000	60.110000	1.000000	1.000000	118.000000	49.000000	0.000000	0.000000
0.040000	45.480000	60.730000	22.000000	1.000000	119.000000	49.000000	0.000000	0.000000
0.050000	46.510000	61.590000	51.000000	0.000000	119.000000	49.000000	103.000000	86.000000
0.060000	47.700000	62.630000	58.000000	0.000000	121.000000	49.000000	119.000000	104.000000
0.070000	48.990000	63.800000	132.000000	0.000000	123.000000	49.000000	129.000000	117.000000
0.080000	50.280000	65.150000	191.000000	0.000000	124.000000	50.000000	129.000000	135.000000
0.090000	51.630000	66.530000	242.000000	0.000000	126.000000	50.000000	135.000000	138.000000
0.100000	53.100000	67.930000	267.000000	0.000000	127.000000	51.000000	147.000000	140.000000
0.110000	54.270000	69.110000	280.000000	0.000000	128.000000	50.000000	117.000000	118.000000
0.120000	55.240000	69.880000	279.000000	0.000000	129.000000	51.000000	97.000000	77.000000
0.130000	55.790000	70.390000	277.000000	0.000000	130.000000	51.000000	55.000000	51.000000
0.140000	55.890000	70.290000	280.000000	0.000000	132.000000	50.000000	10.000000	-10.000000
0.150000	55.680000	69.630000	241.000000	0.000000	133.000000	50.000000	-21.000000	-66.000000
0.160000	55.050000	68.610000	185.000000	0.000000	133.000000	50.000000	-63.000000	-102.000000
0.170000	54.050000	67.300000	161.000000	0.000000	133.000000	50.000000	-100.000000	-131.000000
0.180000	52.800000	65.770000	180.000000	0.000000	133.000000	50.000000	-125.000000	-153.000000
0.190000	51.390000	64.090000	186.000000	0.000000	134.000000	50.000000	-141.000000	-168.000000
0.200000	50.280000	62.700000	254.000000	0.000000	133.000000	51.000000	-111.000000	-139.000000
0.210000	49.380000	61.790000	304.000000	0.000000	133.000000	51.000000	-90.000000	-91.000000
0.220000	48.890000	61.190000	349.000000	0.000000	133.000000	52.000000	-49.000000	-60.000000
0.230000	48.890000	61.100000	377.000000	0.000000	133.000000	52.000000	0.000000	-9.000000
0.240000	49.200000	61.610000	404.000000	0.000000	131.000000	52.000000	31.000000	51.000000
0.250000	50.320000	62.510000	418.000000	0.000000	131.000000	52.000000	112.000000	90.000000
0.260000	52.300000	64.470000	415.000000	0.000000	131.000000	52.000000	198.000000	196.000000
0.270000	54.850000	66.620000	404.000000	0.000000	133.000000	52.000000	255.000000	215.000000
0.280000	57.620000	68.890000	388.000000	0.000000	133.000000	52.000000	277.000000	227.000000
0.290000	59.970000	70.660000	366.000000	0.000000	133.000000	52.000000	235.000000	177.000000
0.300000	62.030000	71.570000	322.000000	0.000000	133.000000	52.000000	206.000000	91.000000
0.310000	63.460000	71.920000	274.000000	0.000000	134.000000	51.000000	143.000000	35.000000
0.320000	64.110000	71.520000	269.000000	0.000000	134.000000	51.000000	65.000000	-40.000000
0.330000	64.240000	70.390000	281.000000	0.000000	136.000000	51.000000	13.000000	-113.000000
0.340000	63.780000	68.780000	339.000000	0.000000	136.000000	51.000000	-46.000000	-161.000000
0.350000	62.980000	66.950000	423.000000	0.000000	136.000000	51.000000	-80.000000	-183.000000
0.360000	61.950000	64.860000	458.000000	0.000000	137.000000	52.000000	-103.000000	-209.000000
0.370000	61.010000	62.610000	491.000000	0.000000	136.000000	52.000000	-94.000000	-225.000000
0.380000	60.420000	60.890000	502.000000	0.000000	136.000000	52.000000	-59.000000	-172.000000
0.390000	60.060000	59.590000	502.000000	0.000000	135.000000	53.000000	-36.000000	-130.000000
0.400000	60.160000	58.580000	499.000000	0.000000	135.000000	54.000000	10.000000	-101.000000
0.410000	60.660000	58.430000	499.000000	0.000000	134.000000	55.000000	50.000000	-15.000000
0.420000	61.420000	59.210000	501.000000	0.000000	134.000000	55.000000	76.000000	78.000000
0.430000	62.840000	60.610000	504.000000	0.000000	134.000000	55.000000	142.000000	140.000000
0.440000	64.580000	62.580000	509.000000	0.000000	134.000000	55.000000	174.000000	197.000000
0.450000	66.530000	64.410000	491.000000	0.000000	134.000000	55.000000	195.000000	183.000000
0.460000	68.380000	66.160000	456.000000	0.000000	134.000000	55.000000	185.000000	175.000000
0.470000	69.780000	67.230000	322.000000	0.000000	135.000000	55.000000	140.000000	107.000000
0.480000	70.890000	67.800000	176.000000	0.000000	135.000000	55.000000	111.000000	57.000000
0.490000	71.570000	68.050000	70.000000	0.000000	136.000000	56.000000	68.000000	25.000000
0.500000	71.780000	67.860000	58.000000	0.000000	138.000000	57.000000	21.000000	-19.000000
0.510000	71.670000	67.320000	100.000000	0.000000	139.000000	57.000000	-11.000000	-54.000000
0.520000	71.300000	66.550000	119.000000	0.000000	139.000000	57.000000	-37.000000	-77.000000
0.530000	70.870000	65.740000	119.000000	0.000000	140.000000	58.000000	-43.000000	-81.000000
0.540000	70.400000	64.990000	89.000000	0.000000	142.000000	58.000000	-47.000000	-75.000000
0.550000	70.080000	64.370000	65.000000	0.000000	142.000000	58.000000	-32.000000	-62.000000
0.560000	69.790000	63.830000	63.000000	0.000000	142.000000	58.000000	-29.000000	-54.000000
0.570000	69.790000	63.830000	0.000000	1.000000	142.000000	58.000000	0.000000	0.000000
0.580000	69.920000	63.460000	0.000000	0.000000	142.000000	58.000000	13.000000	-37.000000
0.590000	70.300000	63.460000	0.000000	0.000000	142.000000	58.000000	38.000000	0.000000
0.600000	70.710000	63.800000	0.000000	0.000000	142.000000	58.000000	41.000000	34.000000
0.610000	71.280000	64.480000	0.000000	0.000000	140.000000	58.000000	57.000000	68.000000
0.620000	71.950000	65.370000	0.000000	0.000000	142.000000	57.000000	67.000000	89.000000
0.630000	73.310000	66.230000	0.000000	0.000000	140.000000	56.000000	136.000000	86.000000
0.640000	74.290000	67.060000	0.000000	0.000000	140.000000	55.000000	98.000000	83.000000
0.650000	75.020000	67.810000	0.000000	0.000000	140.000000	55.000000	73.000000	75.000000
0.660000	76.080000	68.490000	0.000000	0.000000	139.000000	55.000000	106.000000	68.000000
0.670000	76.840000	69.140000	0.000000	0.000000	141.000000	55.000000	76.000000	65.000000
0.680000	77.410000	69.220000	0.000000	0.000000	141.000000	55.000000	57.000000	8.000000
0.690000	77.460000	68.970000	0.000000	0.000000	141.000000	55.000000	5.000000	-25.000000
0.700000	77.300000	68.500000	0.000000	0.000000	143.000000	55.000000	-16.000000	-47.000000
0.710000	77.000000	68.000000	0.000000	0.000000	143.000000	56.000000	-30.000000	-50.000000
0.720000	76.730000	67.530000	0.000000	0.000000	143.000000	56.000000	-27.000000	-47.000000
0.730000	76.730000	67.530000	12.000000	0.000000	143.000000	57.000000	0.000000	0.000000
0.740000	76.140000	66.650000	175.000000	1.000000	142.000000	58.000000	0.000000	0.000000
0.750000	75.720000	66.270000	210.000000	0.000000	142.000000	58.000000	-42.000000	-38.000000
0.760000	75.240000	65.920000	212.000000	0.000000	139.000000	58.000000	-48.000000	-35.000000
0.770000	74.790000	65.490000	249.000000	0.000000	139.000000	58.000000	-45.000000	-43.000000
0.780000	74.400000	65.160000	309.000000	0.000000	139.000000	58.000000	-39.000000	-33.000000
0.790000	74.060000	64.910000	314.000000	0.000000	138.000000	58.000000	-34.000000	-25.000000
0.800000	73.920000	64.860000	368.000000	0.000000	138.000000	58.000000	-14.000000	-5.000000
0.810000	73.920000	64.950000	358.000000	0.000000	138.000000	58.000000	0.000000	9.000000
0.820000	73.920000	65.140000	344.000000	0.000000	138.000000	58.000000	0.000000	19.000000
0.830000	74.010000	65.680000	299.000000	0.000000	136.000000	57.000000	9.000000	54.000000
0.840000	74.200000	66.430000	281.000000	0.000000	136.000000	57.000000	19.000000	75.000000
0.850000	74.460000	67.320000	276.000000	0.000000	136.000000	57.000000	26.000000	89.000000
0.860000	74.770000	68.300000	280.000000	0.000000	136.000000	57.000000	31.000000	98.000000
0.870000	75.120000	69.390000	246.000000	0.000000	136.000000	57.000000	35.000000	109.000000
0.880000	75.480000	70.560000	239.000000	0.000000	136.000000	57.000000	36.000000	117.000000
0.890000	75.900000	71.560000	160.000000	0.000000	138.000000	57.000000	42.000000	100.000000
0.900000	75.900000	71.560000	0.000000	1.000000	139.000000	56.000000	0.000000	0.000000
0.910000	76.540000	72.800000	0.000000	0.000000	139.000000	55.000000	64.000000	124.000000
0.920000	76.620000	72.930000	0.000000	0.000000	140.000000	54.000000	8.000000	13.000000
0.930000	76.540000	73.000000	0.000000	0.000000	141.000000	53.000000	-8.000000	7.000000
0.940000	76.360000	72.850000	0.000000	0.000000	142.000000	53.000000	-18.000000	-15.000000
0.950000	76.100000	72.580000	0.000000	0.000000	142.000000	53.000000	-26.000000	-27.000000
0.960000	75.760000	72.170000	0.000000	0.000000	141.000000	52.000000	-34.000000	-41.000000
0.970000	75.330000	71.560000	0.000000	0.000000	142.000000	52.000000	-43.000000	-61.000000
0.980000	74.840000	70.810000	0.000000	0.000000	141.000000	52.000000	-49.000000	-75.000000
0.990000	74.320000	69.740000	0.000000	0.000000	141.000000	52.000000	-52.000000	-107.000000
1.000000	73.840000	68.790000	0.000000	0.000000	141.000000	52.000000	-48.000000	-95.000000
1.010000	73.380000	67.910000	0.000000	0.000000	140.000000	53.000000	-46.000000	-88.000000
1.020000	73.100000	67.180000	0.000000	0.000000	139.000000	54.000000	-28.000000	-73.000000
1.030000	73.040000	66.700000	0.000000	0.000000	137.000000	54.000000	-6.000000	-48.000000
1.040000	73.130000	66.380000	0.000000	0.000000	136.000000	55.000000	9.000000	-32.000000
1.050000	73.450000	66.480000	0.000000	0.000000	136.000000	56.000000	32.000000	10.000000
1.060000	73.820000	66.900000	0.000000	0.000000	135.000000	57.000000	37.000000	42.000000
1.070000	74.350000	67.540000	0.000000	0.000000	135.000000	57.000000	53.000000	64.000000
1.080000	74.980000	68.410000	0.000000	0.000000	135.000000	57.000000	63.000000	87.000000
1.090000	75.700000	69.360000	0.000000	0.000000	135.000000	57.000000	72.000000	95.000000
1.100000	76.440000	70.360000	0.000000	0.000000	135.000000	57.000000	74.000000	100.000000
1.110000	76.440000	70.360000	20.000000	1.000000	136.000000	56.000000	0.000000	0.000000
1.120000	76.440000	70.360000	0.000000	1.000000	138.000000	55.000000	0.000000	0.000000
1.130000	78.000000	71.920000	0.000000	0.000000	139.000000	55.000000	156.000000	156.000000
1.140000	78.050000	71.840000	0.000000	0.000000	141.000000	55.000000	5.000000	-8.000000
1.150000	78.050000	71.840000	12.000000	0.000000	142.000000	54.000000	0.000000	0.000000
1.160000	77.480000	71.170000	63.000000	1.000000	142.000000	54.000000	0.000000	0.000000
1.170000	76.990000	70.550000	96.000000	0.000000	142.000000	54.000000	-49.000000	-62.000000
1.180000	76.510000	69.890000	149.000000	0.000000	143.000000	53.000000	-48.000000	-66.000000
1.190000	76.030000	69.150000	173.000000	0.000000	142.000000	54.000000	-48.000000	-74.000000
1.200000	75.590000	68.380000	180.000000	0.000000	142.000000	54.000000	-44.000000	-77.000000
1.210000	75.220000	67.580000	220.000000	0.000000	141.000000	55.000000	-37.000000	-80.000000
1.220000	74.900000	66.720000	256.000000	0.000000	141.000000	55.000000	-32.000000	-86.000000
1.230000	74.610000	65.790000	260.000000	0.000000	140.000000	55.000000	-29.000000	-93.000000
1.240000	74.350000	64.750000	280.000000	0.000000	139.000000	56.000000	-26.000000	-104.000000
1.250000	74.130000	63.640000	280.000000	0.000000	138.000000	57.000000	-22.000000	-111.000000
1.260000	73.960000	62.780000	279.000000	0.000000	138.000000	57.000000	-17.000000	-86.000000
1.270000	73.850000	62.100000	285.000000	0.000000	138.000000	57.000000	-11.000000	-68.000000
1.280000	73.770000	61.530000	281.000000	0.000000	138.000000	57.000000	-8.000000	-57.000000
1.290000	73.720000	61.100000	297.000000	0.000000	138.000000	57.000000	-5.000000	-43.000000
1.300000	73.660000	60.900000	327.000000	0.000000	138.000000	57.000000	-6.000000	-20.000000
1.310000	73.540000	60.900000	376.000000	0.000000	138.000000	57.000000	-12.000000	0.000000
1.320000	73.360000	60.970000	388.000000	0.000000	138.000000	57.000000	-18.000000	7.000000
1.330000	72.940000	61.300000	414.000000	0.000000	138.000000	57.000000	-42.000000	33.000000
1.340000	72.350000	61.780000	458.000000	0.000000	138.000000	57.000000	-59.000000	48.000000
1.350000	71.640000	62.270000	477.000000	0.000000	138.000000	57.000000	-71.000000	49.000000
1.360000	70.740000	62.830000	499.000000	0.000000	139.000000	57.000000	-90.000000	56.000000
1.370000	69.550000	63.440000	504.000000	0.000000	139.000000	57.000000	-119.000000	61.000000
1.380000	68.170000	64.140000	515.000000	0.000000	139.000000	57.000000	-138.000000	70.000000
1.390000	66.430000	64.870000	544.000000	0.000000	138.000000	58.000000	-174.000000	73.000000
1.400000	64.650000	65.610000	577.000000	0.000000	136.000000	57.000000	-178.000000	74.000000
1.410000	62.830000	66.340000	600.000000	0.000000	136.000000	57.000000	-182.000000	73.000000
1.420000	60.890000	67.100000	605.000000	0.000000	135.000000	58.000000	-194.000000	76.000000
1.430000	59.070000	67.910000	595.000000	0.000000	134.000000	57.000000	-182.000000	81.000000
1.440000	57.340000	68.760000	603.000000	0.000000	134.000000	57.000000	-173.000000	85.000000
1.450000	55.620000	69.680000	581.000000	0.000000	132.000000	57.000000	-172.000000	92.000000
1.460000	54.180000	70.480000	594.000000	0.000000	132.000000	57.000000	-144.000000	80.000000
1.470000	52.930000	71.190000	586.000000	0.000000	132.000000	55.000000	-125.000000	71.000000
1.480000	51.690000	71.740000	588.000000	0.000000	132.000000	55.000000	-124.000000	55.000000
1.490000	50.660000	72.240000	592.000000	0.000000	134.000000	55.000000	-103.000000	50.000000
1.500000	49.780000	72.420000	592.000000	0.000000	135.000000	54.000000	-88.000000	18.000000
1.510000	49.030000	72.420000	595.000000	0.000000	135.000000	54.000000	-75.000000	0.000000
1.520000	48.320000	72.050000	594.000000	0.000000	135.000000	54.000000	-71.000000	-37.000000
1.530000	47.690000	71.430000	605.000000	0.000000	136.000000	54.000000	-63.000000	-62.000000
1.540000	47.270000	70.640000	619.000000	0.000000	135.000000	54.000000	-42.000000	-79.000000
1.550000	46.980000	69.670000	624.000000	0.000000	135.000000	54.000000	-29.000000	-97.000000
1.560000	47.090000	68.570000	631.000000	0.000000	135.000000	54.000000	11.000000	-110.000000
1.570000	47.490000	67.380000	639.000000	0.000000	134.000000	55.000000	40.000000	-119.000000
1.580000	48.080000	66.140000	639.000000	0.000000	132.000000	55.000000	59.000000	-124.000000
1.590000	48.880000	64.890000	642.000000	0.000000	132.000000	55.000000	80.000000	-125.000000
1.600000	49.870000	63.610000	641.000000	0.000000	131.000000	56.000000	99.000000	-128.000000
1.610000	50.980000	62.490000	641.000000	0.000000	130.000000	55.000000	111.000000	-112.000000
1.620000	52.420000	61.490000	645.000000	0.000000	129.000000	56.000000	144.000000	-100.000000
1.630000	53.880000	60.570000	636.000000	0.000000	129.000000	56.000000	146.000000	-92.000000
1.640000	55.430000	59.840000	636.000000	0.000000	129.000000	56.000000	155.000000	-73.000000
1.650000	57.130000	59.240000	644.000000	0.000000	130.000000	56.000000	170.000000	-60.000000
1.660000	58.920000	58.890000	650.000000	0.000000	130.000000	56.000000	179.000000	-35.000000
1.670000	60.590000	58.890000	650.000000	0.000000	130.000000	56.000000	167.000000	0.000000
1.680000	62.270000	59.210000	655.000000	0.000000	130.000000	56.000000	168.000000	32.000000
1.690000	63.950000	59.830000	655.000000	0.000000	130.000000	56.000000	168.000000	62.000000
1.700000	65.420000	60.590000	655.000000	0.000000	131.000000	56.000000	147.000000	76.000000
1.710000	66.760000	61.450000	653.000000	0.000000	132.000000	57.000000	134.000000	86.000000
1.720000	67.950000	62.320000	653.000000	0.000000	132.000000	57.000000	119.000000	87.000000
1.730000	68.840000	63.320000	645.000000	0.000000	132.000000	57.000000	89.000000	100.000000
1.740000	69.530000	64.420000	631.000000	0.000000	135.000000	57.000000	69.000000	110.000000
1.750000	69.910000	65.510000	616.000000	0.000000	136.000000	57.000000	38.000000	109.000000
1.760000	69.990000	66.550000	602.000000	0.000000	138.000000	58.000000	8.000000	104.000000
1.770000	69.860000	67.590000	595.000000	0.000000	139.000000	58.000000	-13.000000	104.000000
1.780000	69.550000	68.640000	594.000000	0.000000	141.000000	59.000000	-31.000000	105.000000
1.790000	69.150000	69.700000	613.000000	0.000000	141.000000	59.000000	-40.000000	106.000000
1.800000	68.680000	70.700000	641.000000	0.000000	142.000000	58.000000	-47.000000	100.000000
1.810000	68.200000	71.580000	653.000000	0.000000	142.000000	58.000000	-48.000000	88.000000
1.820000	67.760000	72.350000	673.000000	0.000000	143.000000	57.000000	-44.000000	77.000000
1.830000	67.620000	73.010000	663.000000	0.000000	143.000000	57.000000	-14.000000	66.000000
1.840000	67.620000	73.610000	658.000000	0.000000	143.000000	56.000000	0.000000	60.000000
1.850000	67.990000	74.170000	647.000000	0.000000	144.000000	56.000000	37.000000	56.000000
1.860000	68.480000	74.520000	627.000000	0.000000	143.000000	55.000000	49.000000	35.000000
1.870000	69.080000	74.520000	595.000000	0.000000	144.000000	56.000000	60.000000	0.000000
1.880000	69.690000	74.370000	589.000000	0.000000	144.000000	56.000000	61.000000	-15.000000
1.890000	70.280000	73.920000	588.000000	0.000000	144.000000	56.000000	59.000000	-45.000000
1.900000	70.870000	73.190000	588.000000	0.000000	145.000000	56.000000	59.000000	-73.000000
1.910000	71.470000	72.270000	591.000000	0.000000	145.000000	56.000000	60.000000	-92.000000
1.920000	72.000000	71.060000	588.000000	0.000000	145.000000	56.000000	53.000000	-121.000000
1.930000	72.430000	69.560000	597.000000	0.000000	144.000000	57.000000	43.000000	-150.000000
1.940000	72.800000	67.880000	620.000000	0.000000	144.000000	57.000000	37.000000	-168.000000
1.950000	73.040000	66.160000	627.000000	0.000000	143.000000	57.000000	24.000000	-172.000000
1.960000	73.160000	64.400000	639.000000	0.000000	142.000000	58.000000	12.000000	-176.000000
1.970000	73.160000	62.670000	641.000000	0.000000	140.000000	58.000000	0.000000	-173.000000
1.980000	73.340000	60.970000	641.000000	0.000000	139.000000	58.000000	18.000000	-170.000000
1.990000	73.490000	59.410000	643.000000	0.000000	139.000000	58.000000	15.000000	-156.000000
2.000000	73.950000	58.290000	639.000000	0.000000	136.000000	58.000000	46.000000	-112.000000
2.010000	74.610000	57.460000	634.000000	0.000000	135.000000	59.000000	66.000000	-83.000000
2.020000	75.530000	57.270000	636.000000	0.000000	135.000000	59.000000	92.000000	-19.000000
2.030000	76.780000	57.590000	633.000000	0.000000	135.000000	59.000000	125.000000	32.000000
2.040000	78.260000	58.240000	611.000000	0.000000	135.000000	60.000000	148.000000	65.000000
2.050000	80.020000	59.290000	483.000000	0.000000	135.000000	60.000000	176.000000	105.000000
