t	x	y	pressure	penup	azimuth	inclination	v_x	v_y
0.000000	93.720000	32.220000	67.000000	1.000000	127.000000	57.000000	0.000000	0.000000
0.010000	93.830000	33.570000	132.000000	0.000000	127.000000	57.000000	11.000000	135.000000
0.020000	93.830000	34.160000	187.000000	0.000000	128.000000	58.000000	0.000000	59.000000
0.030000	93.710000	34.420000	249.000000	0.000000	128.000000	58.000000	-12.000000	26.000000
0.040000	93.570000	34.500000	279.000000	0.000000	129.000000	59.000000	-14.000000	8.000000
0.050000	93.180000	34.500000	277.000000	0.000000	129.000000	59.000000	-39.000000	0.000000
0.060000	92.620000	33.900000	307.000000	0.000000	131.000000	60.000000	-56.000000	-60.000000
0.070000	91.870000	32.670000	335.000000	0.000000	129.000000	60.000000	-75.000000	-123.000000
0.080000	91.040000	31.000000	371.000000	0.000000	129.000000	60.000000	-83.000000	-167.000000
0.090000	90.150000	29.100000	468.000000	0.000000	129.000000	60.000000	-89.000000	-190.000000
0.100000	89.330000	27.140000	522.000000	0.000000	126.000000	60.000000	-82.000000	-196.000000
0.110000	88.800000	25.130000	565.000000	0.000000	125.000000	60.000000	-53.000000	-201.000000
0.120000	88.450000	23.930000	566.000000	0.000000	123.000000	61.000000	-35.000000	-120.000000
0.130000	88.450000	23.150000	569.000000	0.000000	119.000000	61.000000	0.000000	-78.000000
0.140000	88.700000	22.640000	536.000000	0.000000	117.000000	61.000000	25.000000	-51.000000
0.150000	89.050000	22.510000	529.000000	0.000000	114.000000	62.000000	35.000000	-13.000000
0.160000	89.670000	22.930000	512.000000	0.000000	111.000000	61.000000	62.000000	42.000000
0.170000	90.300000	23.710000	517.000000	0.000000	108.000000	63.000000	63.000000	78.000000
0.180000	90.960000	24.990000	514.000000	0.000000	106.000000	63.000000	66.000000	128.000000
0.190000	91.650000	26.670000	504.000000	0.000000	106.000000	63.000000	69.000000	168.000000
0.200000	92.350000	28.620000	501.000000	0.000000	108.000000	63.000000	70.000000	195.000000
0.210000	93.120000	30.700000	494.000000	0.000000	110.000000	63.000000	77.000000	208.000000
0.220000	93.930000	32.240000	489.000000	0.000000	115.000000	63.000000	81.000000	154.000000
0.230000	94.540000	33.430000	495.000000	0.000000	116.000000	63.000000	61.000000	119.000000
0.240000	94.900000	33.950000	495.000000	0.000000	118.000000	62.000000	36.000000	52.000000
0.250000	95.090000	33.950000	491.000000	0.000000	122.000000	61.000000	19.000000	0.000000
0.260000	95.090000	33.540000	530.000000	0.000000	123.000000	61.000000	0.000000	-41.000000
0.270000	94.930000	32.560000	595.000000	0.000000	125.000000	60.000000	-16.000000	-98.000000
0.280000	94.570000	31.310000	647.000000	0.000000	126.000000	60.000000	-36.000000	-125.000000
0.290000	94.140000	29.880000	691.000000	0.000000	125.000000	59.000000	-43.000000	-143.000000
0.300000	93.730000	28.840000	697.000000	0.000000	125.000000	59.000000	-41.000000	-104.000000
0.310000	93.340000	28.020000	696.000000	0.000000	125.000000	59.000000	-39.000000	-82.000000
0.320000	93.220000	27.350000	676.000000	0.000000	124.000000	60.000000	-12.000000	-67.000000
0.330000	93.100000	26.830000	662.000000	0.000000	122.000000	60.000000	-12.000000	-52.000000
0.340000	93.100000	26.530000	661.000000	0.000000	119.000000	60.000000	0.000000	-30.000000
0.350000	93.240000	26.380000	647.000000	0.000000	119.000000	61.000000	14.000000	-15.000000
0.360000	93.330000	26.310000	641.000000	0.000000	117.000000	61.000000	9.000000	-7.000000
0.370000	93.430000	26.310000	645.000000	0.000000	114.000000	62.000000	10.000000	0.000000
0.380000	93.540000	26.470000	641.000000	0.000000	112.000000	62.000000	11.000000	16.000000
0.390000	93.680000	26.820000	616.000000	0.000000	112.000000	62.000000	14.000000	35.000000
0.400000	93.900000	27.430000	521.000000	0.000000	112.000000	62.000000	22.000000	61.000000
0.410000	94.170000	28.220000	334.000000	0.000000	112.000000	62.000000	27.000000	79.000000
0.420000	94.170000	28.220000	0.000000	1.000000	114.000000	62.000000	0.000000	0.000000
0.430000	94.490000	29.020000	0.000000	0.000000	114.000000	62.000000	32.000000	80.000000
0.440000	94.490000	29.130000	0.000000	0.000000	115.000000	62.000000	0.000000	11.000000
0.450000	94.280000	28.850000	0.000000	0.000000	117.000000	61.000000	-21.000000	-28.000000
0.460000	94.090000	28.480000	0.000000	0.000000	118.000000	60.000000	-19.000000	-37.000000
0.470000	93.890000	28.040000	0.000000	0.000000	118.000000	60.000000	-20.000000	-44.000000
0.480000	93.740000	27.730000	0.000000	0.000000	119.000000	60.000000	-15.000000	-31.000000
0.490000	93.740000	27.610000	0.000000	0.000000	118.000000	59.000000	0.000000	-12.000000
0.500000	93.740000	27.610000	0.000000	0.000000	117.000000	59.000000	0.000000	0.000000
0.510000	93.870000	27.840000	0.000000	0.000000	117.000000	59.000000	13.000000	23.000000
0.520000	94.120000	28.150000	0.000000	0.000000	117.000000	59.000000	25.000000	31.000000
0.530000	94.470000	28.520000	0.000000	0.000000	116.000000	58.000000	35.000000	37.000000
0.540000	94.730000	28.900000	0.000000	0.000000	116.000000	58.000000	26.000000	38.000000
0.550000	94.870000	29.070000	0.000000	0.000000	116.000000	58.000000	14.000000	17.000000
0.560000	94.920000	29.070000	0.000000	0.000000	115.000000	58.000000	5.000000	0.000000
0.570000	94.920000	29.070000	0.000000	0.000000	115.000000	58.000000	0.000000	0.000000
0.580000	94.870000	29.070000	0.000000	0.000000	115.000000	58.000000	-5.000000	0.000000
0.590000	94.870000	29.150000	0.000000	0.000000	114.000000	57.000000	0.000000	8.000000
0.600000	94.940000	29.270000	0.000000	0.000000	116.000000	56.000000	7.000000	12.000000
0.610000	95.080000	29.440000	0.000000	0.000000	116.000000	57.000000	14.000000	17.000000
0.620000	95.310000	29.600000	0.000000	0.000000	116.000000	57.000000	23.000000	16.000000
0.630000	95.560000	29.760000	0.000000	0.000000	118.000000	57.000000	25.000000	16.000000
0.640000	95.760000	29.760000	0.000000	0.000000	118.000000	57.000000	20.000000	0.000000
0.650000	95.920000	29.760000	0.000000	0.000000	119.000000	58.000000	16.000000	0.000000
0.660000	95.990000	29.760000	0.000000	0.000000	120.000000	57.000000	7.000000	0.000000
0.670000	96.090000	29.820000	0.000000	0.000000	120.000000	57.000000	10.000000	6.000000
0.680000	96.240000	29.920000	0.000000	0.000000	120.000000	57.000000	15.000000	10.000000
0.690000	96.480000	30.070000	0.000000	0.000000	121.000000	58.000000	24.000000	15.000000
0.700000	96.790000	30.240000	0.000000	0.000000	121.000000	58.000000	31.000000	17.000000
0.710000	97.070000	30.350000	0.000000	0.000000	121.000000	58.000000	28.000000	11.000000
0.720000	97.330000	30.350000	0.000000	0.000000	124.000000	58.000000	26.000000	0.000000
0.730000	97.420000	30.280000	0.000000	0.000000	124.000000	58.000000	9.000000	-7.000000
0.740000	97.420000	30.110000	0.000000	0.000000	125.000000	59.000000	0.000000	-17.000000
0.750000	97.360000	29.960000	0.000000	0.000000	125.000000	59.000000	-6.000000	-15.000000
0.760000	97.290000	29.880000	0.000000	0.000000	126.000000	60.000000	-7.000000	-8.000000
0.770000	97.290000	29.880000	0.000000	0.000000	126.000000	60.000000	0.000000	0.000000
0.780000	97.290000	29.950000	0.000000	0.000000	126.000000	60.000000	0.000000	7.000000
0.790000	97.290000	29.950000	0.000000	0.000000	125.000000	60.000000	0.000000	0.000000
0.800000	97.290000	29.950000	0.000000	0.000000	125.000000	60.000000	0.000000	0.000000
0.810000	97.290000	29.950000	0.000000	0.000000	125.000000	60.000000	0.000000	0.000000
0.820000	97.290000	29.950000	0.000000	0.000000	125.000000	60.000000	0.000000	0.000000
0.830000	97.290000	29.950000	0.000000	0.000000	125.000000	60.000000	0.000000	0.000000
0.840000	97.290000	29.950000	0.000000	0.000000	125.000000	60.000000	0.000000	0.000000
0.850000	97.290000	29.950000	0.000000	0.000000	125.000000	60.000000	0.000000	0.000000
0.860000	97.290000	29.950000	0.000000	0.000000	125.000000	60.000000	0.000000	0.000000
0.870000	97.290000	29.950000	0.000000	0.000000	125.000000	60.000000	0.000000	0.000000
0.880000	97.290000	29.950000	0.000000	0.000000	125.000000	60.000000	0.000000	0.000000
0.890000	97.290000	29.950000	0.000000	0.000000	125.000000	60.000000	0.000000	0.000000
0.900000	97.090000	29.600000	0.000000	0.000000	125.000000	60.000000	-20.000000	-35.000000
0.910000	96.930000	29.320000	0.000000	0.000000	125.000000	60.000000	-16.000000	-28.000000
0.920000	96.780000	29.020000	0.000000	0.000000	122.000000	60.000000	-15.000000	-30.000000
0.930000	96.640000	28.740000	0.000000	0.000000	122.000000	60.000000	-14.000000	-28.000000
0.940000	96.490000	28.530000	0.000000	0.000000	122.000000	60.000000	-15.000000	-21.000000
0.950000	96.360000	28.360000	0.000000	0.000000	120.000000	60.000000	-13.000000	-17.000000
0.960000	96.250000	28.210000	0.000000	0.000000	119.000000	60.000000	-11.000000	-15.000000
0.970000	96.170000	28.070000	0.000000	0.000000	119.000000	60.000000	-8.000000	-14.000000
0.980000	96.110000	27.950000	0.000000	0.000000	118.000000	60.000000	-6.000000	-12.000000
0.990000	96.110000	27.840000	0.000000	0.000000	117.000000	59.000000	0.000000	-11.000000
1.000000	96.050000	27.730000	0.000000	0.000000	117.000000	59.000000	-6.000000	-11.000000
1.010000	96.050000	27.620000	0.000000	0.000000	117.000000	59.000000	0.000000	-11.000000
1.020000	95.980000	27.460000	0.000000	0.000000	115.000000	60.000000	-7.000000	-16.000000
1.030000	95.910000	27.320000	0.000000	0.000000	115.000000	60.000000	-7.000000	-14.000000
1.040000	95.910000	27.200000	0.000000	0.000000	115.000000	60.000000	0.000000	-12.000000
1.050000	95.820000	27.150000	0.000000	0.000000	115.000000	60.000000	-9.000000	-5.000000
1.060000	95.760000	27.150000	0.000000	0.000000	113.000000	60.000000	-6.000000	0.000000
1.070000	95.760000	27.230000	0.000000	0.000000	113.000000	60.000000	0.000000	8.000000
1.080000	95.760000	27.350000	0.000000	0.000000	113.000000	60.000000	0.000000	12.000000
1.090000	95.810000	27.510000	0.000000	0.000000	113.000000	60.000000	5.000000	16.000000
1.100000	95.880000	27.670000	0.000000	0.000000	113.000000	60.000000	7.000000	16.000000
1.110000	95.990000	27.850000	0.000000	0.000000	113.000000	60.000000	11.000000	18.000000
1.120000	96.100000	28.070000	0.000000	0.000000	113.000000	59.000000	11.000000	22.000000
1.130000	96.230000	28.330000	0.000000	0.000000	114.000000	59.000000	13.000000	26.000000
1.140000	96.370000	28.580000	0.000000	0.000000	115.000000	60.000000	14.000000	25.000000
1.150000	96.520000	28.900000	0.000000	0.000000	117.000000	59.000000	15.000000	32.000000
1.160000	96.700000	29.270000	0.000000	0.000000	117.000000	59.000000	18.000000	37.000000
1.170000	96.980000	29.750000	0.000000	0.000000	118.000000	59.000000	28.000000	48.000000
1.180000	97.320000	30.270000	0.000000	0.000000	118.000000	59.000000	34.000000	52.000000
1.190000	97.630000	30.830000	0.000000	0.000000	121.000000	59.000000	31.000000	56.000000
1.200000	97.860000	31.190000	0.000000	0.000000	121.000000	59.000000	23.000000	36.000000
1.210000	98.040000	31.510000	0.000000	0.000000	123.000000	59.000000	18.000000	32.000000
1.220000	98.170000	31.760000	0.000000	0.000000	124.000000	60.000000	13.000000	25.000000
1.230000	98.310000	32.010000	0.000000	0.000000	125.000000	59.000000	14.000000	25.000000
1.240000	98.450000	32.410000	0.000000	0.000000	126.000000	60.000000	14.000000	40.000000
1.250000	98.740000	32.920000	0.000000	0.000000	126.000000	60.000000	29.000000	51.000000
1.260000	99.030000	33.500000	0.000000	0.000000	129.000000	60.000000	29.000000	58.000000
1.270000	99.260000	34.060000	0.000000	0.000000	129.000000	60.000000	23.000000	56.000000
1.280000	99.460000	34.590000	0.000000	0.000000	129.000000	60.000000	20.000000	53.000000
1.290000	99.570000	34.770000	0.000000	0.000000	129.000000	60.000000	11.000000	18.000000
1.300000	99.570000	34.770000	58.000000	1.000000	131.000000	61.000000	0.000000	0.000000
1.310000	99.020000	34.160000	142.000000	0.000000	131.000000	61.000000	-55.000000	-61.000000
1.320000	98.430000	32.960000	220.000000	0.000000	129.000000	61.000000	-59.000000	-120.000000
1.330000	97.740000	31.360000	341.000000	0.000000	128.000000	61.000000	-69.000000	-160.000000
1.340000	96.980000	29.800000	473.000000	0.000000	128.000000	61.000000	-76.000000	-156.000000
1.350000	96.350000	28.410000	529.000000	0.000000	125.000000	60.000000	-63.000000	-139.000000
1.360000	95.950000	27.130000	557.000000	0.000000	125.000000	60.000000	-40.000000	-128.000000
1.370000	95.710000	26.270000	562.000000	0.000000	122.000000	60.000000	-24.000000	-86.000000
1.380000	95.840000	25.830000	537.000000	0.000000	119.000000	61.000000	13.000000	-44.000000
1.390000	96.160000	25.680000	501.000000	0.000000	117.000000	61.000000	32.000000	-15.000000
1.400000	96.610000	25.840000	473.000000	0.000000	115.000000	62.000000	45.000000	16.000000
1.410000	97.160000	26.420000	474.000000	0.000000	114.000000	62.000000	55.000000	58.000000
1.420000	97.630000	27.270000	472.000000	0.000000	112.000000	62.000000	47.000000	85.000000
1.430000	98.040000	28.040000	483.000000	0.000000	113.000000	63.000000	41.000000	77.000000
1.440000	98.270000	28.640000	496.000000	0.000000	113.000000	63.000000	23.000000	60.000000
1.450000	98.380000	29.120000	488.000000	0.000000	113.000000	63.000000	11.000000	48.000000
1.460000	98.380000	29.410000	494.000000	0.000000	115.000000	63.000000	0.000000	29.000000
1.470000	98.310000	29.500000	466.000000	0.000000	116.000000	63.000000	-7.000000	9.000000
1.480000	98.180000	29.500000	216.000000	0.000000	118.000000	62.000000	-13.000000	0.000000
1.490000	98.180000	29.500000	0.000000	1.000000	120.000000	62.000000	0.000000	0.000000
1.500000	97.920000	29.150000	0.000000	0.000000	122.000000	61.000000	-26.000000	-35.000000
1.510000	97.870000	28.930000	0.000000	0.000000	122.000000	61.000000	-5.000000	-22.000000
1.520000	97.870000	28.850000	0.000000	0.000000	122.000000	60.000000	0.000000	-8.000000
1.530000	97.960000	28.850000	0.000000	0.000000	122.000000	60.000000	9.000000	0.000000
1.540000	98.040000	28.940000	0.000000	0.000000	122.000000	61.000000	8.000000	9.000000
1.550000	98.180000	29.060000	0.000000	0.000000	122.000000	61.000000	14.000000	12.000000
1.560000	98.380000	29.240000	0.000000	0.000000	122.000000	61.000000	20.000000	18.000000
1.570000	98.690000	29.450000	0.000000	0.000000	123.000000	62.000000	31.000000	21.000000
1.580000	99.080000	29.610000	0.000000	0.000000	123.000000	62.000000	39.000000	16.000000
1.590000	99.550000	29.760000	0.000000	0.000000	124.000000	62.000000	47.000000	15.000000
1.600000	100.020000	29.870000	0.000000	0.000000	124.000000	62.000000	47.000000	11.000000
1.610000	100.480000	30.020000	0.000000	0.000000	124.000000	62.000000	46.000000	15.000000
1.620000	100.840000	30.180000	0.000000	0.000000	124.000000	62.000000	36.000000	16.000000
1.630000	101.150000	30.290000	0.000000	0.000000	126.000000	61.000000	31.000000	11.000000
1.640000	101.390000	30.410000	0.000000	0.000000	126.000000	61.000000	24.000000	12.000000
1.650000	101.630000	30.520000	0.000000	0.000000	126.000000	61.000000	24.000000	11.000000
1.660000	101.730000	30.600000	0.000000	0.000000	126.000000	60.000000	10.000000	8.000000
1.670000	101.730000	30.600000	0.000000	0.000000	126.000000	60.000000	0.000000	0.000000
1.680000	101.730000	30.600000	0.000000	0.000000	125.000000	59.000000	0.000000	0.000000
1.690000	101.670000	30.600000	0.000000	0.000000	125.000000	59.000000	-6.000000	0.000000
1.700000	101.590000	30.550000	0.000000	0.000000	125.000000	59.000000	-8.000000	-5.000000
1.710000	101.540000	30.550000	0.000000	0.000000	127.000000	59.000000	-5.000000	0.000000
1.720000	101.540000	30.650000	0.000000	0.000000	127.000000	59.000000	0.000000	10.000000
1.730000	101.480000	30.710000	0.000000	0.000000	126.000000	58.000000	-6.000000	6.000000
1.740000	101.480000	30.760000	0.000000	0.000000	127.000000	59.000000	0.000000	5.000000
1.750000	101.550000	30.810000	0.000000	0.000000	127.000000	59.000000	7.000000	5.000000
1.760000	101.610000	30.810000	0.000000	0.000000	127.000000	59.000000	6.000000	0.000000
1.770000	101.670000	30.810000	0.000000	0.000000	127.000000	59.000000	6.000000	0.000000
1.780000	101.670000	30.810000	0.000000	0.000000	127.000000	59.000000	0.000000	0.000000
1.790000	101.670000	30.810000	0.000000	0.000000	128.000000	59.000000	0.000000	0.000000
1.800000	101.670000	30.810000	0.000000	0.000000	128.000000	59.000000	0.000000	0.000000
1.810000	101.670000	30.870000	0.000000	0.000000	129.000000	59.000000	0.000000	6.000000
1.820000	101.670000	30.870000	0.000000	0.000000	129.000000	59.000000	0.000000	0.000000
1.830000	101.670000	30.870000	0.000000	0.000000	129.000000	59.000000	0.000000	0.000000
1.840000	101.670000	30.920000	0.000000	0.000000	131.000000	60.000000	0.000000	5.000000
1.850000	101.670000	30.920000	0.000000	0.000000	131.000000	60.000000	0.000000	0.000000
1.860000	101.670000	30.920000	0.000000	0.000000	131.000000	60.000000	0.000000	0.000000
1.870000	101.670000	30.920000	0.000000	0.000000	131.000000	60.000000	0.000000	0.000000
1.880000	101.670000	30.980000	0.000000	0.000000	131.000000	60.000000	0.000000	6.000000
1.890000	101.720000	30.980000	0.000000	0.000000	131.000000	60.000000	5.000000	0.000000
1.900000	101.720000	30.980000	0.000000	0.000000	131.000000	60.000000	0.000000	0.000000
1.910000	101.720000	30.980000	0.000000	0.000000	131.000000	60.000000	0.000000	0.000000
1.920000	101.720000	30.980000	0.000000	0.000000	131.000000	60.000000	0.000000	0.000000
1.930000	101.720000	30.980000	0.000000	0.000000	131.000000	60.000000	0.000000	0.000000
1.940000	101.720000	30.980000	0.000000	0.000000	131.000000	60.000000	0.000000	0.000000
1.950000	101.720000	30.980000	0.000000	0.000000	131.000000	60.000000	0.000000	0.000000
1.960000	101.720000	30.980000	0.000000	0.000000	131.000000	60.000000	0.000000	0.000000
1.970000	101.720000	30.980000	0.000000	0.000000	131.000000	60.000000	0.000000	0.000000
1.980000	101.720000	30.980000	0.000000	0.000000	131.000000	60.000000	0.000000	0.000000
1.990000	101.720000	30.980000	0.000000	0.000000	131.000000	60.000000	0.000000	0.000000
2.000000	101.720000	30.980000	0.000000	0.000000	131.000000	60.000000	0.000000	0.000000
2.010000	101.720000	30.980000	0.000000	0.000000	132.000000	60.000000	0.000000	0.000000
2.020000	101.720000	30.980000	0.000000	0.000000	132.000000	60.000000	0.000000	0.000000
2.030000	101.720000	30.920000	0.000000	0.000000	131.000000	61.000000	0.000000	-6.000000
2.040000	101.670000	30.920000	0.000000	0.000000	131.000000	61.000000	-5.000000	0.000000
2.050000	101.670000	30.870000	0.000000	0.000000	131.000000	61.000000	0.000000	-5.000000
2.060000	101.670000	30.870000	0.000000	0.000000	131.000000	61.000000	0.000000	0.000000
2.070000	101.670000	30.780000	0.000000	0.000000	131.000000	61.000000	0.000000	-9.000000
2.080000	101.670000	30.780000	0.000000	0.000000	131.000000	61.000000	0.000000	0.000000
2.090000	101.670000	30.780000	0.000000	0.000000	131.000000	61.000000	0.000000	0.000000
2.100000	101.670000	30.830000	0.000000	0.000000	131.000000	61.000000	0.000000	5.000000
2.110000	101.730000	30.830000	0.000000	0.000000	131.000000	61.000000	6.000000	0.000000
2.120000	101.730000	30.830000	0.000000	0.000000	131.000000	61.000000	0.000000	0.000000
2.130000	101.730000	30.830000	0.000000	0.000000	131.000000	61.000000	0.000000	0.000000
2.140000	101.730000	30.830000	0.000000	0.000000	131.000000	61.000000	0.000000	0.000000
2.150000	101.730000	30.770000	0.000000	0.000000	131.000000	61.000000	0.000000	-6.000000
2.160000	101.670000	30.690000	0.000000	0.000000	131.000000	61.000000	-6.000000	-8.000000
2.170000	101.670000	30.610000	0.000000	0.000000	131.000000	61.000000	0.000000	-8.000000
2.180000	101.670000	30.610000	0.000000	0.000000	131.000000	61.000000	0.000000	0.000000
2.190000	101.670000	30.560000	0.000000	0.000000	131.000000	61.000000	0.000000	-5.000000
2.200000	101.620000	30.560000	0.000000	0.000000	131.000000	61.000000	-5.000000	0.000000
2.210000	101.620000	30.480000	0.000000	0.000000	131.000000	61.000000	0.000000	-8.000000
2.220000	101.570000	30.400000	0.000000	0.000000	129.000000	61.000000	-5.000000	-8.000000
2.230000	101.570000	30.270000	0.000000	0.000000	129.000000	61.000000	0.000000	-13.000000
2.240000	101.500000	30.140000	0.000000	0.000000	129.000000	61.000000	-7.000000	-13.000000
