t	x	y	pressure	penup	azimuth	inclination	v_x	v_y
0.000000	35.560000	51.770000	120.000000	1.000000	156.000000	55.000000	0.000000	0.000000
0.010000	35.560000	51.770000	143.000000	0.000000	156.000000	55.000000	0.000000	0.000000
0.020000	35.560000	51.770000	180.000000	0.000000	157.000000	54.000000	0.000000	0.000000
0.030000	35.560000	51.770000	218.000000	0.000000	157.000000	54.000000	0.000000	0.000000
0.040000	35.560000	51.770000	255.000000	0.000000	157.000000	54.000000	0.000000	0.000000
0.050000	35.560000	51.770000	279.000000	0.000000	157.000000	54.000000	0.000000	0.000000
0.060000	35.640000	51.210000	316.000000	0.000000	157.000000	54.000000	8.000000	-56.000000
0.070000	35.490000	50.640000	345.000000	0.000000	157.000000	54.000000	-15.000000	-57.000000
0.080000	35.270000	49.900000	369.000000	0.000000	156.000000	55.000000	-22.000000	-74.000000
0.090000	34.860000	48.920000	404.000000	0.000000	156.000000	55.000000	-41.000000	-98.000000
0.100000	34.330000	47.770000	449.000000	0.000000	156.000000	55.000000	-53.000000	-115.000000
0.110000	33.280000	46.410000	458.000000	0.000000	155.000000	55.000000	-105.000000	-136.000000
0.120000	31.640000	44.880000	452.000000	0.000000	154.000000	56.000000	-164.000000	-153.000000
0.130000	29.610000	43.240000	440.000000	0.000000	154.000000	56.000000	-203.000000	-164.000000
0.140000	27.450000	41.840000	480.000000	0.000000	154.000000	57.000000	-216.000000	-140.000000
0.150000	25.290000	41.040000	538.000000	0.000000	153.000000	58.000000	-216.000000	-80.000000
0.160000	23.640000	40.630000	588.000000	0.000000	150.000000	58.000000	-165.000000	-41.000000
0.170000	22.340000	40.790000	586.000000	0.000000	149.000000	58.000000	-130.000000	16.000000
0.180000	21.070000	41.370000	594.000000	0.000000	149.000000	58.000000	-127.000000	58.000000
0.190000	19.820000	42.220000	595.000000	0.000000	149.000000	58.000000	-125.000000	85.000000
0.200000	18.650000	43.380000	597.000000	0.000000	149.000000	58.000000	-117.000000	116.000000
0.210000	17.780000	44.630000	617.000000	0.000000	147.000000	59.000000	-87.000000	125.000000
0.220000	17.080000	45.950000	625.000000	0.000000	147.000000	59.000000	-70.000000	132.000000
0.230000	17.030000	47.250000	641.000000	0.000000	149.000000	59.000000	-5.000000	130.000000
0.240000	17.400000	48.330000	643.000000	0.000000	149.000000	59.000000	37.000000	108.000000
0.250000	18.050000	49.260000	650.000000	0.000000	151.000000	60.000000	65.000000	93.000000
0.260000	19.030000	49.860000	655.000000	0.000000	152.000000	59.000000	98.000000	60.000000
0.270000	20.430000	50.300000	655.000000	0.000000	152.000000	59.000000	140.000000	44.000000
0.280000	22.110000	50.630000	652.000000	0.000000	152.000000	59.000000	168.000000	33.000000
0.290000	23.840000	50.570000	652.000000	0.000000	153.000000	58.000000	173.000000	-6.000000
0.300000	25.210000	50.000000	652.000000	0.000000	153.000000	58.000000	137.000000	-57.000000
0.310000	26.330000	49.080000	659.000000	0.000000	153.000000	58.000000	112.000000	-92.000000
0.320000	26.690000	47.460000	669.000000	0.000000	151.000000	58.000000	36.000000	-162.000000
0.330000	26.590000	45.790000	693.000000	0.000000	151.000000	58.000000	-10.000000	-167.000000
0.340000	26.190000	44.070000	700.000000	0.000000	150.000000	58.000000	-40.000000	-172.000000
0.350000	25.940000	42.400000	727.000000	0.000000	150.000000	58.000000	-25.000000	-167.000000
0.360000	25.940000	41.330000	731.000000	0.000000	149.000000	59.000000	0.000000	-107.000000
0.370000	26.150000	40.630000	734.000000	0.000000	149.000000	59.000000	21.000000	-70.000000
0.380000	26.500000	40.310000	749.000000	0.000000	149.000000	59.000000	35.000000	-32.000000
0.390000	27.000000	40.170000	751.000000	0.000000	147.000000	59.000000	50.000000	-14.000000
0.400000	27.600000	40.170000	768.000000	0.000000	149.000000	59.000000	60.000000	0.000000
0.410000	28.320000	40.340000	782.000000	0.000000	149.000000	59.000000	72.000000	17.000000
0.420000	29.380000	40.790000	790.000000	0.000000	149.000000	59.000000	106.000000	45.000000
0.430000	30.660000	41.430000	809.000000	0.000000	149.000000	59.000000	128.000000	64.000000
0.440000	32.400000	42.320000	814.000000	0.000000	149.000000	59.000000	174.000000	89.000000
0.450000	34.160000	43.460000	796.000000	0.000000	151.000000	60.000000	176.000000	114.000000
0.460000	35.930000	44.780000	791.000000	0.000000	151.000000	60.000000	177.000000	132.000000
0.470000	37.250000	45.860000	784.000000	0.000000	151.000000	60.000000	132.000000	108.000000
0.480000	38.280000	46.560000	716.000000	0.000000	151.000000	60.000000	103.000000	70.000000
0.490000	38.430000	47.020000	417.000000	0.000000	151.000000	60.000000	15.000000	46.000000
0.500000	38.430000	47.020000	0.000000	1.000000	151.000000	60.000000	0.000000	0.000000
0.510000	37.620000	47.290000	0.000000	0.000000	151.000000	60.000000	-81.000000	27.000000
0.520000	37.210000	47.460000	0.000000	0.000000	151.000000	60.000000	-41.000000	17.000000
0.530000	37.040000	47.830000	0.000000	0.000000	151.000000	60.000000	-17.000000	37.000000
0.540000	37.040000	48.320000	0.000000	0.000000	151.000000	60.000000	0.000000	49.000000
0.550000	37.110000	48.740000	0.000000	0.000000	150.000000	60.000000	7.000000	42.000000
0.560000	37.210000	49.090000	0.000000	0.000000	148.000000	60.000000	10.000000	35.000000
0.570000	37.090000	49.310000	0.000000	0.000000	148.000000	60.000000	-12.000000	22.000000
0.580000	36.810000	49.470000	0.000000	0.000000	144.000000	60.000000	-28.000000	16.000000
0.590000	36.280000	49.360000	0.000000	0.000000	142.000000	61.000000	-53.000000	-11.000000
0.600000	35.570000	49.070000	0.000000	0.000000	139.000000	61.000000	-71.000000	-29.000000
0.610000	34.730000	48.740000	0.000000	0.000000	139.000000	61.000000	-84.000000	-33.000000
0.620000	33.920000	48.410000	0.000000	0.000000	141.000000	60.000000	-81.000000	-33.000000
0.630000	33.160000	48.090000	0.000000	0.000000	143.000000	59.000000	-76.000000	-32.000000
0.640000	32.370000	47.790000	0.000000	0.000000	147.000000	56.000000	-79.000000	-30.000000
0.650000	31.540000	47.490000	0.000000	0.000000	150.000000	54.000000	-83.000000	-30.000000
0.660000	30.230000	47.250000	0.000000	0.000000	154.000000	52.000000	-131.000000	-24.000000
0.670000	29.040000	47.040000	0.000000	0.000000	154.000000	50.000000	-119.000000	-21.000000
0.680000	27.920000	46.630000	0.000000	0.000000	155.000000	48.000000	-112.000000	-41.000000
0.690000	26.540000	46.300000	0.000000	0.000000	154.000000	47.000000	-138.000000	-33.000000
0.700000	25.160000	46.020000	0.000000	0.000000	152.000000	46.000000	-138.000000	-28.000000
0.710000	23.780000	45.960000	0.000000	0.000000	149.000000	48.000000	-138.000000	-6.000000
0.720000	22.510000	45.850000	0.000000	0.000000	147.000000	49.000000	-127.000000	-11.000000
0.730000	21.340000	45.720000	0.000000	0.000000	144.000000	50.000000	-117.000000	-13.000000
0.740000	20.260000	45.600000	0.000000	0.000000	143.000000	52.000000	-108.000000	-12.000000
0.750000	19.410000	45.460000	0.000000	0.000000	142.000000	53.000000	-85.000000	-14.000000
0.760000	18.700000	45.330000	0.000000	0.000000	142.000000	54.000000	-71.000000	-13.000000
0.770000	18.190000	45.170000	0.000000	0.000000	142.000000	54.000000	-51.000000	-16.000000
0.780000	17.880000	44.980000	0.000000	0.000000	143.000000	55.000000	-31.000000	-19.000000
0.790000	17.690000	45.350000	0.000000	0.000000	143.000000	55.000000	-19.000000	37.000000
0.800000	17.600000	45.580000	0.000000	0.000000	141.000000	56.000000	-9.000000	23.000000
0.810000	17.600000	45.730000	0.000000	0.000000	141.000000	56.000000	0.000000	15.000000
0.820000	17.690000	45.930000	0.000000	0.000000	142.000000	57.000000	9.000000	20.000000
0.830000	17.690000	46.180000	0.000000	0.000000	142.000000	57.000000	0.000000	25.000000
0.840000	17.780000	46.460000	0.000000	0.000000	142.000000	57.000000	9.000000	28.000000
0.850000	17.930000	46.810000	0.000000	0.000000	143.000000	57.000000	15.000000	35.000000
0.860000	18.110000	47.260000	0.000000	0.000000	143.000000	57.000000	18.000000	45.000000
0.870000	18.420000	47.770000	0.000000	0.000000	143.000000	57.000000	31.000000	51.000000
0.880000	18.800000	48.460000	0.000000	0.000000	143.000000	57.000000	38.000000	69.000000
0.890000	19.200000	49.270000	0.000000	0.000000	143.000000	57.000000	40.000000	81.000000
0.900000	19.610000	50.170000	0.000000	0.000000	143.000000	57.000000	41.000000	90.000000
0.910000	20.050000	50.800000	0.000000	0.000000	142.000000	57.000000	44.000000	63.000000
0.920000	20.050000	50.800000	50.000000	1.000000	143.000000	56.000000	0.000000	0.000000
0.930000	20.320000	51.510000	129.000000	0.000000	143.000000	56.000000	27.000000	71.000000
0.940000	20.200000	51.790000	172.000000	0.000000	144.000000	56.000000	-12.000000	28.000000
0.950000	20.100000	51.970000	207.000000	0.000000	144.000000	56.000000	-10.000000	18.000000
0.960000	20.040000	52.080000	277.000000	0.000000	145.000000	55.000000	-6.000000	11.000000
0.970000	20.040000	52.080000	310.000000	0.000000	146.000000	55.000000	0.000000	0.000000
0.980000	19.990000	51.980000	396.000000	0.000000	146.000000	55.000000	-5.000000	-10.000000
0.990000	19.860000	51.520000	469.000000	0.000000	147.000000	55.000000	-13.000000	-46.000000
1.000000	19.670000	50.820000	518.000000	0.000000	147.000000	55.000000	-19.000000	-70.000000
1.010000	19.170000	49.600000	578.000000	0.000000	149.000000	55.000000	-50.000000	-122.000000
1.020000	18.330000	47.940000	620.000000	0.000000	149.000000	55.000000	-84.000000	-166.000000
1.030000	17.270000	45.990000	638.000000	0.000000	148.000000	56.000000	-106.000000	-195.000000
1.040000	16.400000	44.230000	647.000000	0.000000	148.000000	56.000000	-87.000000	-176.000000
1.050000	15.930000	42.900000	656.000000	0.000000	147.000000	56.000000	-47.000000	-133.000000
1.060000	15.730000	41.860000	661.000000	0.000000	147.000000	56.000000	-20.000000	-104.000000
1.070000	16.030000	41.560000	682.000000	0.000000	144.000000	57.000000	30.000000	-30.000000
1.080000	16.650000	41.830000	722.000000	0.000000	144.000000	57.000000	62.000000	27.000000
1.090000	17.490000	42.480000	756.000000	0.000000	143.000000	57.000000	84.000000	65.000000
1.100000	18.530000	43.880000	791.000000	0.000000	142.000000	57.000000	104.000000	140.000000
1.110000	19.570000	45.430000	796.000000	0.000000	142.000000	57.000000	104.000000	155.000000
1.120000	20.600000	47.070000	811.000000	0.000000	142.000000	57.000000	103.000000	164.000000
1.130000	21.430000	48.490000	824.000000	0.000000	142.000000	57.000000	83.000000	142.000000
1.140000	22.130000	49.870000	824.000000	0.000000	142.000000	57.000000	70.000000	138.000000
1.150000	22.610000	50.810000	837.000000	0.000000	144.000000	57.000000	48.000000	94.000000
1.160000	22.870000	51.470000	845.000000	0.000000	144.000000	57.000000	26.000000	66.000000
1.170000	22.970000	51.720000	849.000000	0.000000	145.000000	56.000000	10.000000	25.000000
1.180000	22.970000	51.720000	851.000000	0.000000	146.000000	55.000000	0.000000	0.000000
1.190000	22.820000	51.510000	855.000000	0.000000	146.000000	55.000000	-15.000000	-21.000000
1.200000	22.570000	50.660000	853.000000	0.000000	145.000000	55.000000	-25.000000	-85.000000
1.210000	21.850000	49.220000	888.000000	0.000000	146.000000	54.000000	-72.000000	-144.000000
1.220000	20.880000	47.400000	896.000000	0.000000	145.000000	55.000000	-97.000000	-182.000000
1.230000	19.740000	45.730000	902.000000	0.000000	145.000000	55.000000	-114.000000	-167.000000
1.240000	19.090000	44.510000	902.000000	0.000000	144.000000	56.000000	-65.000000	-122.000000
1.250000	19.040000	43.580000	900.000000	0.000000	143.000000	56.000000	-5.000000	-93.000000
1.260000	19.390000	43.260000	894.000000	0.000000	143.000000	56.000000	35.000000	-32.000000
1.270000	19.950000	43.400000	905.000000	0.000000	143.000000	57.000000	56.000000	14.000000
1.280000	20.690000	43.840000	917.000000	0.000000	142.000000	58.000000	74.000000	44.000000
1.290000	21.560000	44.600000	932.000000	0.000000	142.000000	58.000000	87.000000	76.000000
1.300000	22.400000	45.470000	935.000000	0.000000	142.000000	58.000000	84.000000	87.000000
1.310000	22.930000	46.410000	944.000000	0.000000	142.000000	58.000000	53.000000	94.000000
1.320000	23.250000	47.010000	938.000000	0.000000	140.000000	58.000000	32.000000	60.000000
1.330000	23.340000	47.360000	964.000000	0.000000	140.000000	58.000000	9.000000	35.000000
1.340000	23.340000	47.550000	976.000000	0.000000	140.000000	58.000000	0.000000	19.000000
1.350000	23.340000	47.550000	968.000000	0.000000	140.000000	58.000000	0.000000	0.000000
1.360000	23.240000	47.550000	974.000000	0.000000	142.000000	57.000000	-10.000000	0.000000
1.370000	22.960000	47.080000	973.000000	0.000000	142.000000	57.000000	-28.000000	-47.000000
1.380000	22.540000	46.330000	982.000000	0.000000	142.000000	57.000000	-42.000000	-75.000000
1.390000	22.120000	45.360000	980.000000	0.000000	142.000000	57.000000	-42.000000	-97.000000
1.400000	21.900000	44.530000	976.000000	0.000000	142.000000	57.000000	-22.000000	-83.000000
1.410000	21.800000	43.800000	971.000000	0.000000	140.000000	58.000000	-10.000000	-73.000000
1.420000	21.910000	43.410000	973.000000	0.000000	140.000000	58.000000	11.000000	-39.000000
1.430000	22.060000	43.300000	970.000000	0.000000	140.000000	58.000000	15.000000	-11.000000
1.440000	22.300000	43.390000	950.000000	0.000000	140.000000	58.000000	24.000000	9.000000
1.450000	22.560000	43.670000	912.000000	0.000000	139.000000	57.000000	26.000000	28.000000
1.460000	22.810000	43.960000	754.000000	0.000000	139.000000	57.000000	25.000000	29.000000
1.470000	22.930000	44.260000	362.000000	0.000000	139.000000	57.000000	12.000000	30.000000
1.480000	22.930000	44.260000	0.000000	1.000000	139.000000	57.000000	0.000000	0.000000
1.490000	22.930000	44.490000	0.000000	0.000000	139.000000	57.000000	0.000000	23.000000
1.500000	22.930000	44.560000	0.000000	0.000000	139.000000	57.000000	0.000000	7.000000
1.510000	23.000000	44.740000	0.000000	0.000000	139.000000	57.000000	7.000000	18.000000
1.520000	23.370000	45.000000	0.000000	0.000000	140.000000	58.000000	37.000000	26.000000
1.530000	23.950000	45.270000	0.000000	0.000000	140.000000	58.000000	58.000000	27.000000
1.540000	24.840000	45.500000	0.000000	0.000000	140.000000	58.000000	89.000000	23.000000
1.550000	25.900000	45.500000	0.000000	0.000000	142.000000	57.000000	106.000000	0.000000
1.560000	27.060000	45.500000	0.000000	0.000000	143.000000	56.000000	116.000000	0.000000
1.570000	27.970000	45.170000	0.000000	0.000000	143.000000	56.000000	91.000000	-33.000000
1.580000	28.510000	44.800000	0.000000	0.000000	143.000000	56.000000	54.000000	-37.000000
1.590000	28.800000	44.320000	0.000000	0.000000	144.000000	56.000000	29.000000	-48.000000
1.600000	28.700000	43.810000	0.000000	0.000000	144.000000	56.000000	-10.000000	-51.000000
1.610000	28.260000	43.290000	0.000000	0.000000	143.000000	55.000000	-44.000000	-52.000000
1.620000	27.600000	42.770000	0.000000	0.000000	141.000000	56.000000	-66.000000	-52.000000
1.630000	26.780000	42.290000	0.000000	0.000000	141.000000	56.000000	-82.000000	-48.000000
1.640000	25.920000	41.830000	0.000000	0.000000	141.000000	56.000000	-86.000000	-46.000000
1.650000	25.030000	41.450000	0.000000	0.000000	141.000000	56.000000	-89.000000	-38.000000
1.660000	24.320000	41.230000	0.000000	0.000000	140.000000	56.000000	-71.000000	-22.000000
1.670000	23.940000	41.110000	0.000000	0.000000	140.000000	56.000000	-38.000000	-12.000000
1.680000	23.780000	41.210000	0.000000	0.000000	140.000000	56.000000	-16.000000	10.000000
1.690000	23.840000	41.420000	0.000000	0.000000	140.000000	56.000000	6.000000	21.000000
1.700000	24.040000	41.700000	0.000000	0.000000	139.000000	56.000000	20.000000	28.000000
1.710000	24.330000	42.060000	0.000000	0.000000	139.000000	56.000000	29.000000	36.000000
1.720000	24.820000	42.510000	0.000000	0.000000	139.000000	56.000000	49.000000	45.000000
1.730000	25.350000	43.030000	0.000000	0.000000	139.000000	56.000000	53.000000	52.000000
1.740000	25.950000	43.690000	0.000000	0.000000	139.000000	56.000000	60.000000	66.000000
1.750000	25.950000	43.690000	65.000000	1.000000	139.000000	56.000000	0.000000	0.000000
1.760000	27.030000	45.030000	139.000000	0.000000	140.000000	56.000000	108.000000	134.000000
1.770000	27.420000	45.610000	247.000000	0.000000	139.000000	57.000000	39.000000	58.000000
1.780000	27.560000	45.990000	373.000000	0.000000	140.000000	58.000000	14.000000	38.000000
1.790000	27.640000	46.240000	474.000000	0.000000	140.000000	58.000000	8.000000	25.000000
1.800000	27.640000	46.420000	540.000000	0.000000	140.000000	58.000000	0.000000	18.000000
1.810000	27.690000	46.550000	580.000000	0.000000	140.000000	58.000000	5.000000	13.000000
1.820000	27.690000	46.550000	585.000000	0.000000	140.000000	58.000000	0.000000	0.000000
1.830000	27.690000	46.550000	636.000000	0.000000	140.000000	58.000000	0.000000	0.000000
1.840000	27.570000	46.110000	687.000000	0.000000	140.000000	58.000000	-12.000000	-44.000000
1.850000	27.290000	45.420000	700.000000	0.000000	140.000000	58.000000	-28.000000	-69.000000
1.860000	26.670000	44.470000	727.000000	0.000000	140.000000	58.000000	-62.000000	-95.000000
1.870000	26.130000	43.410000	720.000000	0.000000	140.000000	58.000000	-54.000000	-106.000000
1.880000	25.630000	42.270000	720.000000	0.000000	140.000000	58.000000	-50.000000	-114.000000
1.890000	25.760000	41.730000	728.000000	0.000000	140.000000	58.000000	13.000000	-54.000000
1.900000	26.100000	41.520000	721.000000	0.000000	142.000000	57.000000	34.000000	-21.000000
1.910000	26.570000	41.520000	730.000000	0.000000	142.000000	57.000000	47.000000	0.000000
1.920000	27.280000	42.040000	757.000000	0.000000	142.000000	57.000000	71.000000	52.000000
1.930000	27.990000	42.790000	777.000000	0.000000	143.000000	57.000000	71.000000	75.000000
1.940000	28.670000	43.700000	784.000000	0.000000	143.000000	57.000000	68.000000	91.000000
1.950000	29.090000	44.510000	824.000000	0.000000	143.000000	57.000000	42.000000	81.000000
1.960000	29.350000	44.980000	854.000000	0.000000	144.000000	58.000000	26.000000	47.000000
1.970000	29.350000	45.220000	873.000000	0.000000	144.000000	58.000000	0.000000	24.000000
1.980000	29.260000	45.160000	873.000000	0.000000	144.000000	58.000000	-9.000000	-6.000000
1.990000	29.120000	45.050000	885.000000	0.000000	146.000000	58.000000	-14.000000	-11.000000
2.000000	28.770000	44.620000	882.000000	0.000000	146.000000	58.000000	-35.000000	-43.000000
2.010000	28.370000	43.990000	885.000000	0.000000	146.000000	58.000000	-40.000000	-63.000000
2.020000	27.940000	43.190000	887.000000	0.000000	146.000000	58.000000	-43.000000	-80.000000
2.030000	27.740000	42.570000	887.000000	0.000000	146.000000	58.000000	-20.000000	-62.000000
2.040000	27.740000	42.070000	882.000000	0.000000	146.000000	58.000000	0.000000	-50.000000
2.050000	27.910000	41.750000	885.000000	0.000000	144.000000	58.000000	17.000000	-32.000000
2.060000	28.140000	41.750000	900.000000	0.000000	144.000000	58.000000	23.000000	0.000000
2.070000	28.520000	41.870000	900.000000	0.000000	144.000000	58.000000	38.000000	12.000000
2.080000	29.000000	42.330000	906.000000	0.000000	146.000000	58.000000	48.000000	46.000000
2.090000	29.490000	42.820000	926.000000	0.000000	146.000000	58.000000	49.000000	49.000000
2.100000	29.790000	43.330000	942.000000	0.000000	147.000000	58.000000	30.000000	51.000000
2.110000	29.950000	43.650000	949.000000	0.000000	147.000000	58.000000	16.000000	32.000000
2.120000	29.950000	43.740000	977.000000	0.000000	147.000000	58.000000	0.000000	9.000000
2.130000	29.950000	43.740000	983.000000	0.000000	146.000000	58.000000	0.000000	0.000000
2.140000	29.950000	43.740000	983.000000	0.000000	146.000000	58.000000	0.000000	0.000000
2.150000	29.950000	43.740000	974.000000	0.000000	146.000000	58.000000	0.000000	0.000000
2.160000	29.950000	43.740000	973.000000	0.000000	144.000000	58.000000	0.000000	0.000000
2.170000	30.020000	43.400000	973.000000	0.000000	144.000000	58.000000	7.000000	-34.000000
2.180000	30.020000	42.980000	965.000000	0.000000	144.000000	58.000000	0.000000	-42.000000
2.190000	30.020000	42.530000	944.000000	0.000000	144.000000	58.000000	0.000000	-45.000000
2.200000	30.020000	42.260000	896.000000	0.000000	144.000000	58.000000	0.000000	-27.000000
