t	x	y	pressure	penup	azimuth	inclination	v_x	v_y
0.000000	12.260000	76.980000	20.000000	1.000000	134.000000	57.000000	0.000000	0.000000
0.010000	12.260000	76.980000	63.000000	0.000000	134.000000	57.000000	0.000000	0.000000
0.020000	12.100000	76.660000	103.000000	0.000000	134.000000	57.000000	-16.000000	-32.000000
0.030000	12.100000	76.600000	153.000000	0.000000	134.000000	57.000000	0.000000	-6.000000
0.040000	12.100000	76.520000	188.000000	0.000000	134.000000	57.000000	0.000000	-8.000000
0.050000	12.100000	76.520000	212.000000	0.000000	134.000000	57.000000	0.000000	0.000000
0.060000	12.200000	76.470000	245.000000	0.000000	134.000000	57.000000	10.000000	-5.000000
0.070000	12.330000	76.470000	274.000000	0.000000	134.000000	57.000000	13.000000	0.000000
0.080000	12.530000	76.630000	296.000000	0.000000	134.000000	57.000000	20.000000	16.000000
0.090000	12.760000	76.900000	306.000000	0.000000	134.000000	57.000000	23.000000	27.000000
0.100000	13.040000	77.240000	314.000000	0.000000	134.000000	57.000000	28.000000	34.000000
0.110000	13.350000	77.750000	349.000000	0.000000	134.000000	57.000000	31.000000	51.000000
0.120000	13.710000	78.320000	391.000000	0.000000	134.000000	57.000000	36.000000	57.000000
0.130000	14.140000	78.940000	418.000000	0.000000	135.000000	58.000000	43.000000	62.000000
0.140000	14.630000	79.760000	425.000000	0.000000	136.000000	57.000000	49.000000	82.000000
0.150000	15.290000	80.690000	438.000000	0.000000	136.000000	57.000000	66.000000	93.000000
0.160000	16.060000	81.690000	444.000000	0.000000	138.000000	57.000000	77.000000	100.000000
0.170000	16.920000	82.560000	450.000000	0.000000	138.000000	57.000000	86.000000	87.000000
0.180000	17.680000	83.400000	461.000000	0.000000	139.000000	57.000000	76.000000	84.000000
0.190000	18.360000	84.200000	466.000000	0.000000	140.000000	56.000000	68.000000	80.000000
0.200000	19.090000	84.990000	466.000000	0.000000	140.000000	56.000000	73.000000	79.000000
0.210000	19.730000	85.740000	471.000000	0.000000	142.000000	57.000000	64.000000	75.000000
0.220000	20.310000	86.350000	474.000000	0.000000	142.000000	57.000000	58.000000	61.000000
0.230000	20.730000	86.720000	464.000000	0.000000	140.000000	58.000000	42.000000	37.000000
0.240000	20.950000	86.930000	468.000000	0.000000	140.000000	58.000000	22.000000	21.000000
0.250000	21.040000	86.930000	472.000000	0.000000	140.000000	58.000000	9.000000	0.000000
0.260000	21.040000	86.990000	478.000000	0.000000	139.000000	58.000000	0.000000	6.000000
0.270000	21.040000	86.990000	481.000000	0.000000	139.000000	58.000000	0.000000	0.000000
0.280000	21.040000	86.990000	481.000000	0.000000	139.000000	58.000000	0.000000	0.000000
0.290000	21.040000	86.990000	483.000000	0.000000	139.000000	58.000000	0.000000	0.000000
0.300000	21.040000	86.990000	485.000000	0.000000	139.000000	58.000000	0.000000	0.000000
0.310000	21.040000	86.990000	485.000000	0.000000	139.000000	58.000000	0.000000	0.000000
0.320000	21.040000	86.940000	488.000000	0.000000	139.000000	58.000000	0.000000	-5.000000
0.330000	21.040000	86.940000	488.000000	0.000000	139.000000	58.000000	0.000000	0.000000
0.340000	21.040000	86.880000	488.000000	0.000000	139.000000	58.000000	0.000000	-6.000000
0.350000	21.040000	86.880000	490.000000	0.000000	139.000000	58.000000	0.000000	0.000000
0.360000	20.980000	86.880000	491.000000	0.000000	139.000000	58.000000	-6.000000	0.000000
0.370000	20.980000	86.880000	498.000000	0.000000	139.000000	58.000000	0.000000	0.000000
0.380000	20.980000	86.880000	496.000000	0.000000	139.000000	58.000000	0.000000	0.000000
0.390000	20.980000	86.880000	498.000000	0.000000	139.000000	58.000000	0.000000	0.000000
0.400000	20.980000	86.880000	496.000000	0.000000	139.000000	58.000000	0.000000	0.000000
0.410000	20.980000	86.880000	489.000000	0.000000	139.000000	58.000000	0.000000	0.000000
0.420000	20.980000	86.880000	488.000000	0.000000	139.000000	58.000000	0.000000	0.000000
0.430000	20.980000	86.880000	489.000000	0.000000	139.000000	58.000000	0.000000	0.000000
0.440000	20.980000	86.880000	492.000000	0.000000	139.000000	58.000000	0.000000	0.000000
0.450000	20.980000	86.880000	496.000000	0.000000	139.000000	58.000000	0.000000	0.000000
0.460000	20.980000	86.880000	496.000000	0.000000	139.000000	58.000000	0.000000	0.000000
0.470000	20.980000	86.880000	494.000000	0.000000	139.000000	58.000000	0.000000	0.000000
0.480000	20.980000	86.880000	492.000000	0.000000	139.000000	58.000000	0.000000	0.000000
0.490000	20.980000	86.880000	494.000000	0.000000	139.000000	58.000000	0.000000	0.000000
0.500000	20.980000	86.880000	491.000000	0.000000	139.000000	58.000000	0.000000	0.000000
0.510000	20.980000	86.880000	492.000000	0.000000	139.000000	58.000000	0.000000	0.000000
0.520000	20.980000	86.880000	491.000000	0.000000	139.000000	58.000000	0.000000	0.000000
0.530000	20.980000	86.880000	494.000000	0.000000	140.000000	58.000000	0.000000	0.000000
0.540000	20.980000	86.880000	497.000000	0.000000	140.000000	58.000000	0.000000	0.000000
0.550000	20.980000	86.880000	497.000000	0.000000	140.000000	58.000000	0.000000	0.000000
0.560000	20.980000	86.880000	499.000000	0.000000	139.000000	58.000000	0.000000	0.000000
0.570000	20.980000	86.880000	497.000000	0.000000	139.000000	58.000000	0.000000	0.000000
0.580000	20.980000	86.880000	499.000000	0.000000	139.000000	58.000000	0.000000	0.000000
0.590000	20.980000	86.880000	497.000000	0.000000	139.000000	58.000000	0.000000	0.000000
0.600000	20.980000	86.880000	497.000000	0.000000	139.000000	58.000000	0.000000	0.000000
0.610000	20.980000	86.880000	499.000000	0.000000	139.000000	58.000000	0.000000	0.000000
0.620000	20.980000	86.880000	497.000000	0.000000	139.000000	58.000000	0.000000	0.000000
0.630000	20.980000	86.880000	499.000000	0.000000	139.000000	58.000000	0.000000	0.000000
0.640000	20.980000	86.880000	499.000000	0.000000	139.000000	58.000000	0.000000	0.000000
0.650000	20.980000	86.880000	501.000000	0.000000	139.000000	58.000000	0.000000	0.000000
0.660000	20.980000	86.880000	499.000000	0.000000	139.000000	58.000000	0.000000	0.000000
0.670000	20.980000	86.880000	499.000000	0.000000	140.000000	58.000000	0.000000	0.000000
0.680000	20.980000	86.880000	501.000000	0.000000	140.000000	58.000000	0.000000	0.000000
0.690000	20.980000	86.880000	499.000000	0.000000	140.000000	58.000000	0.000000	0.000000
0.700000	20.980000	86.880000	497.000000	0.000000	140.000000	58.000000	0.000000	0.000000
0.710000	20.930000	86.880000	499.000000	0.000000	140.000000	58.000000	-5.000000	0.000000
0.720000	20.930000	86.880000	496.000000	0.000000	140.000000	58.000000	0.000000	0.000000
0.730000	20.980000	86.880000	499.000000	0.000000	140.000000	58.000000	5.000000	0.000000
0.740000	20.980000	86.880000	496.000000	0.000000	140.000000	58.000000	0.000000	0.000000
0.750000	20.930000	86.830000	497.000000	0.000000	140.000000	58.000000	-5.000000	-5.000000
0.760000	20.930000	86.830000	496.000000	0.000000	140.000000	58.000000	0.000000	0.000000
0.770000	20.930000	86.830000	496.000000	0.000000	140.000000	58.000000	0.000000	0.000000
0.780000	20.930000	86.830000	497.000000	0.000000	140.000000	58.000000	0.000000	0.000000
0.790000	20.930000	86.830000	497.000000	0.000000	140.000000	58.000000	0.000000	0.000000
0.800000	20.930000	86.780000	496.000000	0.000000	142.000000	58.000000	0.000000	-5.000000
0.810000	20.930000	86.780000	496.000000	0.000000	142.000000	58.000000	0.000000	0.000000
0.820000	20.930000	86.710000	501.000000	0.000000	142.000000	58.000000	0.000000	-7.000000
0.830000	20.930000	86.520000	501.000000	0.000000	142.000000	58.000000	0.000000	-19.000000
0.840000	20.810000	86.240000	501.000000	0.000000	142.000000	58.000000	-12.000000	-28.000000
0.850000	20.740000	86.040000	502.000000	0.000000	142.000000	58.000000	-7.000000	-20.000000
0.860000	20.740000	85.900000	501.000000	0.000000	142.000000	58.000000	0.000000	-14.000000
0.870000	20.620000	85.800000	502.000000	0.000000	142.000000	58.000000	-12.000000	-10.000000
0.880000	20.480000	85.620000	501.000000	0.000000	142.000000	58.000000	-14.000000	-18.000000
0.890000	20.410000	85.430000	502.000000	0.000000	142.000000	58.000000	-7.000000	-19.000000
0.900000	20.350000	85.210000	505.000000	0.000000	142.000000	58.000000	-6.000000	-22.000000
0.910000	20.240000	84.970000	507.000000	0.000000	142.000000	58.000000	-11.000000	-24.000000
0.920000	20.100000	84.620000	507.000000	0.000000	143.000000	57.000000	-14.000000	-35.000000
0.930000	19.950000	84.340000	505.000000	0.000000	143.000000	57.000000	-15.000000	-28.000000
0.940000	19.820000	84.120000	512.000000	0.000000	143.000000	57.000000	-13.000000	-22.000000
0.950000	19.710000	83.730000	514.000000	0.000000	142.000000	57.000000	-11.000000	-39.000000
0.960000	19.510000	83.330000	515.000000	0.000000	142.000000	57.000000	-20.000000	-40.000000
0.970000	19.250000	82.930000	527.000000	0.000000	143.000000	56.000000	-26.000000	-40.000000
0.980000	19.030000	82.350000	545.000000	0.000000	143.000000	56.000000	-22.000000	-58.000000
0.990000	18.810000	81.750000	557.000000	0.000000	143.000000	56.000000	-22.000000	-60.000000
1.000000	18.590000	81.120000	567.000000	0.000000	143.000000	56.000000	-22.000000	-63.000000
1.010000	18.330000	80.370000	583.000000	0.000000	143.000000	57.000000	-26.000000	-75.000000
1.020000	18.040000	79.560000	589.000000	0.000000	143.000000	57.000000	-29.000000	-81.000000
1.030000	17.870000	78.940000	591.000000	0.000000	143.000000	57.000000	-17.000000	-62.000000
1.040000	17.760000	78.630000	589.000000	0.000000	143.000000	57.000000	-11.000000	-31.000000
1.050000	17.760000	78.530000	588.000000	0.000000	143.000000	57.000000	0.000000	-10.000000
1.060000	17.840000	78.530000	592.000000	0.000000	144.000000	58.000000	8.000000	0.000000
1.070000	17.890000	78.750000	594.000000	0.000000	144.000000	58.000000	5.000000	22.000000
1.080000	18.270000	79.150000	592.000000	0.000000	144.000000	58.000000	38.000000	40.000000
1.090000	18.880000	80.190000	589.000000	0.000000	144.000000	58.000000	61.000000	104.000000
1.100000	19.810000	81.340000	583.000000	0.000000	144.000000	58.000000	93.000000	115.000000
1.110000	20.850000	82.560000	584.000000	0.000000	143.000000	57.000000	104.000000	122.000000
1.120000	21.950000	83.870000	586.000000	0.000000	143.000000	57.000000	110.000000	131.000000
1.130000	23.050000	85.100000	586.000000	0.000000	143.000000	57.000000	110.000000	123.000000
1.140000	23.990000	86.280000	586.000000	0.000000	142.000000	57.000000	94.000000	118.000000
1.150000	24.810000	87.030000	588.000000	0.000000	142.000000	57.000000	82.000000	75.000000
1.160000	25.290000	87.400000	585.000000	0.000000	142.000000	57.000000	48.000000	37.000000
1.170000	25.520000	87.510000	588.000000	0.000000	140.000000	58.000000	23.000000	11.000000
1.180000	25.570000	87.440000	589.000000	0.000000	142.000000	58.000000	5.000000	-7.000000
1.190000	25.570000	87.370000	589.000000	0.000000	142.000000	58.000000	0.000000	-7.000000
1.200000	25.490000	87.300000	592.000000	0.000000	142.000000	58.000000	-8.000000	-7.000000
1.210000	25.340000	87.090000	594.000000	0.000000	142.000000	58.000000	-15.000000	-21.000000
1.220000	25.110000	86.460000	595.000000	0.000000	142.000000	58.000000	-23.000000	-63.000000
1.230000	24.550000	85.560000	602.000000	0.000000	142.000000	58.000000	-56.000000	-90.000000
1.240000	23.970000	84.590000	608.000000	0.000000	142.000000	58.000000	-58.000000	-97.000000
1.250000	23.380000	83.590000	606.000000	0.000000	142.000000	58.000000	-59.000000	-100.000000
1.260000	22.720000	82.540000	616.000000	0.000000	142.000000	58.000000	-66.000000	-105.000000
1.270000	22.060000	81.460000	606.000000	0.000000	142.000000	57.000000	-66.000000	-108.000000
1.280000	21.380000	80.360000	608.000000	0.000000	142.000000	57.000000	-68.000000	-110.000000
1.290000	20.680000	79.280000	609.000000	0.000000	142.000000	57.000000	-70.000000	-108.000000
1.300000	20.280000	78.380000	613.000000	0.000000	140.000000	56.000000	-40.000000	-90.000000
1.310000	19.920000	77.610000	617.000000	0.000000	139.000000	57.000000	-36.000000	-77.000000
1.320000	19.690000	76.960000	613.000000	0.000000	139.000000	57.000000	-23.000000	-65.000000
1.330000	19.530000	76.500000	613.000000	0.000000	139.000000	57.000000	-16.000000	-46.000000
1.340000	19.480000	76.180000	619.000000	0.000000	139.000000	58.000000	-5.000000	-32.000000
1.350000	19.480000	75.950000	620.000000	0.000000	139.000000	58.000000	0.000000	-23.000000
1.360000	19.480000	75.720000	620.000000	0.000000	139.000000	58.000000	0.000000	-23.000000
1.370000	19.590000	75.570000	619.000000	0.000000	139.000000	58.000000	11.000000	-15.000000
1.380000	19.700000	75.470000	620.000000	0.000000	139.000000	58.000000	11.000000	-10.000000
1.390000	19.760000	75.380000	620.000000	0.000000	139.000000	58.000000	6.000000	-9.000000
1.400000	19.760000	75.310000	619.000000	0.000000	139.000000	58.000000	0.000000	-7.000000
1.410000	19.920000	75.250000	619.000000	0.000000	139.000000	58.000000	16.000000	-6.000000
1.420000	20.050000	75.250000	619.000000	0.000000	139.000000	58.000000	13.000000	0.000000
1.430000	20.160000	75.250000	620.000000	0.000000	139.000000	58.000000	11.000000	0.000000
1.440000	20.240000	75.250000	614.000000	0.000000	139.000000	58.000000	8.000000	0.000000
1.450000	20.380000	75.300000	627.000000	0.000000	139.000000	58.000000	14.000000	5.000000
1.460000	20.610000	75.350000	634.000000	0.000000	139.000000	58.000000	23.000000	5.000000
1.470000	20.910000	75.550000	639.000000	0.000000	139.000000	58.000000	30.000000	20.000000
1.480000	21.280000	75.840000	644.000000	0.000000	139.000000	58.000000	37.000000	29.000000
1.490000	21.620000	76.100000	642.000000	0.000000	139.000000	58.000000	34.000000	26.000000
1.500000	21.920000	76.320000	644.000000	0.000000	139.000000	58.000000	30.000000	22.000000
1.510000	22.200000	76.470000	645.000000	0.000000	139.000000	58.000000	28.000000	15.000000
1.520000	22.470000	76.590000	645.000000	0.000000	139.000000	58.000000	27.000000	12.000000
1.530000	22.640000	76.590000	636.000000	0.000000	138.000000	58.000000	17.000000	0.000000
1.540000	22.730000	76.660000	638.000000	0.000000	138.000000	58.000000	9.000000	7.000000
1.550000	22.780000	76.660000	636.000000	0.000000	138.000000	58.000000	5.000000	0.000000
1.560000	22.780000	76.710000	636.000000	0.000000	138.000000	58.000000	0.000000	5.000000
1.570000	22.780000	76.710000	637.000000	0.000000	138.000000	58.000000	0.000000	0.000000
1.580000	22.780000	76.710000	640.000000	0.000000	138.000000	58.000000	0.000000	0.000000
1.590000	22.780000	76.710000	643.000000	0.000000	136.000000	58.000000	0.000000	0.000000
1.600000	22.780000	76.710000	643.000000	0.000000	136.000000	58.000000	0.000000	0.000000
1.610000	22.780000	76.710000	649.000000	0.000000	138.000000	59.000000	0.000000	0.000000
1.620000	22.780000	76.710000	650.000000	0.000000	138.000000	59.000000	0.000000	0.000000
1.630000	22.780000	76.710000	650.000000	0.000000	138.000000	59.000000	0.000000	0.000000
1.640000	22.780000	76.710000	652.000000	0.000000	138.000000	59.000000	0.000000	0.000000
1.650000	22.780000	76.710000	655.000000	0.000000	138.000000	59.000000	0.000000	0.000000
1.660000	22.780000	76.710000	655.000000	0.000000	138.000000	59.000000	0.000000	0.000000
1.670000	22.840000	76.710000	655.000000	0.000000	138.000000	59.000000	6.000000	0.000000
1.680000	22.840000	76.710000	656.000000	0.000000	138.000000	59.000000	0.000000	0.000000
1.690000	22.840000	76.710000	659.000000	0.000000	138.000000	59.000000	0.000000	0.000000
1.700000	22.840000	76.710000	658.000000	0.000000	138.000000	59.000000	0.000000	0.000000
1.710000	22.790000	76.710000	661.000000	0.000000	138.000000	59.000000	-5.000000	0.000000
1.720000	22.790000	76.710000	664.000000	0.000000	138.000000	59.000000	0.000000	0.000000
1.730000	22.790000	76.710000	664.000000	0.000000	138.000000	59.000000	0.000000	0.000000
1.740000	22.790000	76.710000	667.000000	0.000000	138.000000	59.000000	0.000000	0.000000
1.750000	22.790000	76.710000	668.000000	0.000000	139.000000	58.000000	0.000000	0.000000
1.760000	22.790000	76.710000	670.000000	0.000000	138.000000	59.000000	0.000000	0.000000
1.770000	22.790000	76.710000	667.000000	0.000000	138.000000	59.000000	0.000000	0.000000
1.780000	22.790000	76.710000	668.000000	0.000000	136.000000	58.000000	0.000000	0.000000
1.790000	22.790000	76.710000	670.000000	0.000000	136.000000	58.000000	0.000000	0.000000
1.800000	22.790000	76.710000	670.000000	0.000000	136.000000	58.000000	0.000000	0.000000
1.810000	22.790000	76.710000	670.000000	0.000000	138.000000	59.000000	0.000000	0.000000
1.820000	22.790000	76.710000	668.000000	0.000000	138.000000	59.000000	0.000000	0.000000
1.830000	22.790000	76.710000	653.000000	0.000000	138.000000	59.000000	0.000000	0.000000
1.840000	22.790000	76.710000	620.000000	0.000000	138.000000	59.000000	0.000000	0.000000
1.850000	22.790000	76.710000	560.000000	0.000000	138.000000	59.000000	0.000000	0.000000
1.860000	22.790000	76.710000	461.000000	0.000000	138.000000	59.000000	0.000000	0.000000
1.870000	23.130000	76.960000	254.000000	0.000000	138.000000	59.000000	34.000000	25.000000
1.880000	23.130000	76.960000	0.000000	1.000000	138.000000	59.000000	0.000000	0.000000
1.890000	23.730000	77.550000	0.000000	0.000000	138.000000	59.000000	60.000000	59.000000
1.900000	24.010000	78.000000	0.000000	0.000000	138.000000	59.000000	28.000000	45.000000
1.910000	24.270000	78.520000	0.000000	0.000000	138.000000	59.000000	26.000000	52.000000
1.920000	24.590000	79.290000	0.000000	0.000000	138.000000	59.000000	32.000000	77.000000
1.930000	25.000000	80.140000	0.000000	0.000000	139.000000	60.000000	41.000000	85.000000
1.940000	25.580000	81.040000	0.000000	0.000000	141.000000	59.000000	58.000000	90.000000
1.950000	26.260000	81.860000	0.000000	0.000000	141.000000	59.000000	68.000000	82.000000
1.960000	27.040000	82.570000	0.000000	0.000000	142.000000	59.000000	78.000000	71.000000
1.970000	27.750000	83.220000	0.000000	0.000000	142.000000	59.000000	71.000000	65.000000
1.980000	28.410000	83.770000	0.000000	0.000000	143.000000	59.000000	66.000000	55.000000
1.990000	28.980000	84.280000	0.000000	0.000000	143.000000	59.000000	57.000000	51.000000
2.000000	29.570000	84.730000	0.000000	0.000000	143.000000	59.000000	59.000000	45.000000
2.010000	30.160000	85.160000	0.000000	0.000000	144.000000	58.000000	59.000000	43.000000
2.020000	30.160000	85.160000	20.000000	1.000000	144.000000	58.000000	0.000000	0.000000
2.030000	30.290000	85.530000	78.000000	0.000000	144.000000	58.000000	13.000000	37.000000
2.040000	30.290000	85.530000	158.000000	0.000000	144.000000	58.000000	0.000000	0.000000
2.050000	30.290000	85.600000	247.000000	0.000000	143.000000	57.000000	0.000000	7.000000
2.060000	30.180000	85.600000	284.000000	0.000000	143.000000	57.000000	-11.000000	0.000000
2.070000	30.080000	85.600000	324.000000	0.000000	143.000000	57.000000	-10.000000	0.000000
2.080000	29.990000	85.530000	337.000000	0.000000	143.000000	59.000000	-9.000000	-7.000000
2.090000	29.930000	85.430000	344.000000	0.000000	143.000000	59.000000	-6.000000	-10.000000
2.100000	29.660000	85.090000	334.000000	0.000000	143.000000	59.000000	-27.000000	-34.000000
2.110000	29.250000	84.610000	344.000000	0.000000	143.000000	59.000000	-41.000000	-48.000000
2.120000	28.680000	83.920000	351.000000	0.000000	146.000000	58.000000	-57.000000	-69.000000
2.130000	27.980000	83.210000	364.000000	0.000000	146.000000	58.000000	-70.000000	-71.000000
2.140000	27.190000	82.220000	377.000000	0.000000	146.000000	58.000000	-79.000000	-99.000000
2.150000	26.160000	81.040000	392.000000	0.000000	146.000000	58.000000	-103.000000	-118.000000
2.160000	25.160000	79.410000	445.000000	0.000000	145.000000	59.000000	-100.000000	-163.000000
2.170000	24.170000	78.010000	483.000000	0.000000	145.000000	59.000000	-99.000000	-140.000000
2.180000	23.690000	76.760000	521.000000	0.000000	143.000000	59.000000	-48.000000	-125.000000
2.190000	23.510000	76.070000	530.000000	0.000000	142.000000	59.000000	-18.000000	-69.000000
2.200000	23.510000	75.680000	541.000000	0.000000	141.000000	59.000000	0.000000	-39.000000
2.210000	23.670000	75.490000	546.000000	0.000000	141.000000	59.000000	16.000000	-19.000000
2.220000	24.000000	75.410000	564.000000	0.000000	141.000000	59.000000	33.000000	-8.000000
