t	x	y	pressure	penup	azimuth	inclination	v_x	v_y
0.000000	49.270000	26.830000	15.000000	1.000000	128.000000	48.000000	0.000000	0.000000
0.010000	48.820000	26.440000	53.000000	0.000000	128.000000	48.000000	-45.000000	-39.000000
0.020000	48.610000	26.320000	96.000000	0.000000	127.000000	49.000000	-21.000000	-12.000000
0.030000	48.460000	26.220000	161.000000	0.000000	127.000000	49.000000	-15.000000	-10.000000
0.040000	48.360000	26.170000	202.000000	0.000000	126.000000	48.000000	-10.000000	-5.000000
0.050000	48.360000	26.170000	225.000000	0.000000	126.000000	48.000000	0.000000	0.000000
0.060000	48.360000	26.170000	241.000000	0.000000	125.000000	47.000000	0.000000	0.000000
0.070000	48.690000	26.430000	281.000000	0.000000	125.000000	47.000000	33.000000	26.000000
0.080000	49.170000	26.810000	306.000000	0.000000	125.000000	47.000000	48.000000	38.000000
0.090000	50.010000	27.840000	334.000000	0.000000	124.000000	47.000000	84.000000	103.000000
0.100000	51.270000	28.950000	341.000000	0.000000	124.000000	47.000000	126.000000	111.000000
0.110000	52.800000	30.110000	353.000000	0.000000	126.000000	47.000000	153.000000	116.000000
0.120000	54.210000	31.930000	356.000000	0.000000	127.000000	46.000000	141.000000	182.000000
0.130000	55.430000	33.390000	354.000000	0.000000	127.000000	46.000000	122.000000	146.000000
0.140000	56.510000	34.620000	359.000000	0.000000	130.000000	47.000000	108.000000	123.000000
0.150000	57.090000	35.220000	381.000000	0.000000	130.000000	47.000000	58.000000	60.000000
0.160000	57.180000	35.340000	412.000000	0.000000	130.000000	47.000000	9.000000	12.000000
0.170000	56.930000	35.150000	418.000000	0.000000	132.000000	47.000000	-25.000000	-19.000000
0.180000	56.230000	34.720000	418.000000	0.000000	132.000000	47.000000	-70.000000	-43.000000
0.190000	55.240000	33.760000	414.000000	0.000000	132.000000	47.000000	-99.000000	-96.000000
0.200000	54.060000	32.440000	420.000000	0.000000	132.000000	47.000000	-118.000000	-132.000000
0.210000	52.730000	30.960000	431.000000	0.000000	132.000000	47.000000	-133.000000	-148.000000
0.220000	51.490000	29.460000	438.000000	0.000000	133.000000	46.000000	-124.000000	-150.000000
0.230000	50.300000	28.160000	438.000000	0.000000	133.000000	46.000000	-119.000000	-130.000000
0.240000	49.630000	27.000000	431.000000	0.000000	132.000000	46.000000	-67.000000	-116.000000
0.250000	49.360000	26.440000	418.000000	0.000000	132.000000	46.000000	-27.000000	-56.000000
0.260000	49.360000	26.240000	400.000000	0.000000	132.000000	46.000000	0.000000	-20.000000
0.270000	49.550000	26.240000	394.000000	0.000000	131.000000	45.000000	19.000000	0.000000
0.280000	49.920000	26.480000	402.000000	0.000000	130.000000	46.000000	37.000000	24.000000
0.290000	50.400000	26.860000	396.000000	0.000000	130.000000	46.000000	48.000000	38.000000
0.300000	50.920000	27.370000	392.000000	0.000000	129.000000	46.000000	52.000000	51.000000
0.310000	51.310000	27.890000	394.000000	0.000000	129.000000	46.000000	39.000000	52.000000
0.320000	51.600000	28.270000	397.000000	0.000000	129.000000	46.000000	29.000000	38.000000
0.330000	51.710000	28.400000	400.000000	0.000000	129.000000	46.000000	11.000000	13.000000
0.340000	51.710000	28.400000	397.000000	0.000000	130.000000	46.000000	0.000000	0.000000
0.350000	51.540000	28.340000	392.000000	0.000000	130.000000	46.000000	-17.000000	-6.000000
0.360000	51.290000	28.100000	392.000000	0.000000	131.000000	45.000000	-25.000000	-24.000000
0.370000	51.050000	27.760000	389.000000	0.000000	131.000000	45.000000	-24.000000	-34.000000
0.380000	50.810000	27.530000	376.000000	0.000000	131.000000	45.000000	-24.000000	-23.000000
0.390000	50.810000	27.400000	336.000000	0.000000	132.000000	45.000000	0.000000	-13.000000
0.400000	50.810000	27.350000	309.000000	0.000000	131.000000	45.000000	0.000000	-5.000000
0.410000	50.860000	27.400000	305.000000	0.000000	131.000000	45.000000	5.000000	5.000000
0.420000	51.060000	27.530000	304.000000	0.000000	130.000000	46.000000	20.000000	13.000000
0.430000	51.360000	27.720000	309.000000	0.000000	130.000000	46.000000	30.000000	19.000000
0.440000	51.770000	28.170000	309.000000	0.000000	130.000000	46.000000	41.000000	45.000000
0.450000	52.470000	28.900000	319.000000	0.000000	130.000000	46.000000	70.000000	73.000000
0.460000	53.370000	29.820000	337.000000	0.000000	130.000000	46.000000	90.000000	92.000000
0.470000	54.570000	31.050000	342.000000	0.000000	131.000000	46.000000	120.000000	123.000000
0.480000	56.060000	32.470000	339.000000	0.000000	131.000000	46.000000	149.000000	142.000000
0.490000	57.740000	34.030000	334.000000	0.000000	131.000000	46.000000	168.000000	156.000000
0.500000	58.940000	35.070000	341.000000	0.000000	132.000000	46.000000	120.000000	104.000000
0.510000	59.840000	35.760000	339.000000	0.000000	133.000000	46.000000	90.000000	69.000000
0.520000	60.530000	36.210000	344.000000	0.000000	133.000000	46.000000	69.000000	45.000000
0.530000	60.700000	36.280000	341.000000	0.000000	134.000000	46.000000	17.000000	7.000000
0.540000	60.510000	36.070000	368.000000	0.000000	135.000000	46.000000	-19.000000	-21.000000
0.550000	60.080000	35.670000	396.000000	0.000000	135.000000	46.000000	-43.000000	-40.000000
0.560000	59.300000	34.820000	402.000000	0.000000	135.000000	46.000000	-78.000000	-85.000000
0.570000	58.370000	33.820000	414.000000	0.000000	135.000000	46.000000	-93.000000	-100.000000
0.580000	57.340000	32.720000	443.000000	0.000000	134.000000	46.000000	-103.000000	-110.000000
0.590000	56.120000	31.660000	448.000000	0.000000	134.000000	46.000000	-122.000000	-106.000000
0.600000	55.170000	30.700000	439.000000	0.000000	135.000000	45.000000	-95.000000	-96.000000
0.610000	54.400000	29.800000	449.000000	0.000000	135.000000	45.000000	-77.000000	-90.000000
0.620000	53.920000	29.240000	446.000000	0.000000	135.000000	45.000000	-48.000000	-56.000000
0.630000	53.730000	28.970000	425.000000	0.000000	135.000000	45.000000	-19.000000	-27.000000
0.640000	53.730000	28.890000	388.000000	0.000000	135.000000	45.000000	0.000000	-8.000000
0.650000	53.800000	28.940000	396.000000	0.000000	135.000000	45.000000	7.000000	5.000000
0.660000	54.060000	29.110000	392.000000	0.000000	135.000000	45.000000	26.000000	17.000000
0.670000	54.440000	29.370000	344.000000	0.000000	136.000000	45.000000	38.000000	26.000000
0.680000	55.000000	29.820000	185.000000	0.000000	136.000000	45.000000	56.000000	45.000000
0.690000	55.000000	29.820000	0.000000	1.000000	136.000000	45.000000	0.000000	0.000000
0.700000	56.140000	30.750000	0.000000	0.000000	136.000000	45.000000	114.000000	93.000000
0.710000	56.360000	31.240000	0.000000	0.000000	136.000000	45.000000	22.000000	49.000000
0.720000	56.360000	31.760000	0.000000	0.000000	135.000000	44.000000	0.000000	52.000000
0.730000	56.360000	32.300000	0.000000	0.000000	135.000000	44.000000	0.000000	54.000000
0.740000	56.680000	32.760000	0.000000	0.000000	135.000000	44.000000	32.000000	46.000000
0.750000	57.240000	33.230000	0.000000	0.000000	134.000000	44.000000	56.000000	47.000000
0.760000	58.040000	33.680000	0.000000	0.000000	134.000000	44.000000	80.000000	45.000000
0.770000	59.210000	34.130000	0.000000	0.000000	134.000000	43.000000	117.000000	45.000000
0.780000	60.620000	34.590000	0.000000	0.000000	135.000000	42.000000	141.000000	46.000000
0.790000	62.190000	35.080000	0.000000	0.000000	135.000000	41.000000	157.000000	49.000000
0.800000	63.340000	35.300000	0.000000	0.000000	135.000000	41.000000	115.000000	22.000000
0.810000	64.210000	35.300000	0.000000	0.000000	136.000000	41.000000	87.000000	0.000000
0.820000	64.660000	35.300000	0.000000	0.000000	136.000000	41.000000	45.000000	0.000000
0.830000	64.760000	34.960000	0.000000	0.000000	137.000000	41.000000	10.000000	-34.000000
0.840000	64.620000	34.500000	0.000000	0.000000	136.000000	42.000000	-14.000000	-46.000000
0.850000	64.180000	33.910000	0.000000	0.000000	137.000000	42.000000	-44.000000	-59.000000
0.860000	63.530000	33.290000	0.000000	0.000000	137.000000	42.000000	-65.000000	-62.000000
0.870000	62.740000	32.660000	0.000000	0.000000	137.000000	43.000000	-79.000000	-63.000000
0.880000	61.940000	32.120000	0.000000	0.000000	136.000000	44.000000	-80.000000	-54.000000
0.890000	61.410000	31.770000	0.000000	0.000000	136.000000	44.000000	-53.000000	-35.000000
0.900000	61.050000	31.540000	0.000000	0.000000	136.000000	45.000000	-36.000000	-23.000000
0.910000	61.050000	31.540000	0.000000	0.000000	136.000000	45.000000	0.000000	0.000000
0.920000	61.050000	31.540000	0.000000	0.000000	136.000000	45.000000	0.000000	0.000000
0.930000	61.300000	31.790000	0.000000	0.000000	136.000000	45.000000	25.000000	25.000000
0.940000	61.520000	32.070000	0.000000	0.000000	136.000000	45.000000	22.000000	28.000000
0.950000	61.740000	32.350000	0.000000	0.000000	136.000000	45.000000	22.000000	28.000000
0.960000	61.980000	32.630000	0.000000	0.000000	136.000000	45.000000	24.000000	28.000000
0.970000	62.210000	32.900000	0.000000	0.000000	136.000000	45.000000	23.000000	27.000000
0.980000	62.410000	32.990000	0.000000	0.000000	136.000000	45.000000	20.000000	9.000000
0.990000	62.600000	33.070000	0.000000	0.000000	136.000000	45.000000	19.000000	8.000000
1.000000	63.130000	33.070000	0.000000	0.000000	137.000000	44.000000	53.000000	0.000000
1.010000	63.010000	33.200000	0.000000	0.000000	137.000000	44.000000	-12.000000	13.000000
1.020000	63.260000	33.330000	0.000000	0.000000	136.000000	45.000000	25.000000	13.000000
1.030000	63.980000	33.610000	0.000000	0.000000	136.000000	45.000000	72.000000	28.000000
1.040000	63.640000	33.890000	0.000000	0.000000	136.000000	45.000000	-34.000000	28.000000
1.050000	63.730000	34.170000	0.000000	0.000000	135.000000	45.000000	9.000000	28.000000
1.060000	63.730000	34.170000	25.000000	1.000000	135.000000	45.000000	0.000000	0.000000
1.070000	64.100000	34.500000	66.000000	0.000000	134.000000	46.000000	37.000000	33.000000
1.080000	63.980000	34.450000	107.000000	0.000000	135.000000	46.000000	-12.000000	-5.000000
1.090000	63.790000	34.230000	163.000000	0.000000	135.000000	46.000000	-19.000000	-22.000000
1.100000	63.390000	33.760000	191.000000	0.000000	135.000000	46.000000	-40.000000	-47.000000
1.110000	62.810000	33.130000	245.000000	0.000000	136.000000	47.000000	-58.000000	-63.000000
1.120000	62.120000	32.350000	289.000000	0.000000	136.000000	47.000000	-69.000000	-78.000000
1.130000	61.390000	31.510000	304.000000	0.000000	137.000000	46.000000	-73.000000	-84.000000
1.140000	60.560000	30.410000	314.000000	0.000000	137.000000	46.000000	-83.000000	-110.000000
1.150000	59.660000	29.160000	327.000000	0.000000	138.000000	46.000000	-90.000000	-125.000000
1.160000	58.870000	27.920000	334.000000	0.000000	138.000000	46.000000	-79.000000	-124.000000
1.170000	58.130000	26.960000	344.000000	0.000000	138.000000	46.000000	-74.000000	-96.000000
1.180000	57.760000	26.190000	342.000000	0.000000	138.000000	46.000000	-37.000000	-77.000000
1.190000	57.620000	25.850000	344.000000	0.000000	137.000000	46.000000	-14.000000	-34.000000
1.200000	57.810000	25.760000	334.000000	0.000000	136.000000	46.000000	19.000000	-9.000000
1.210000	58.230000	25.830000	366.000000	0.000000	135.000000	46.000000	42.000000	7.000000
1.220000	58.790000	26.270000	366.000000	0.000000	134.000000	47.000000	56.000000	44.000000
1.230000	59.710000	27.170000	369.000000	0.000000	133.000000	47.000000	92.000000	90.000000
1.240000	60.720000	28.390000	366.000000	0.000000	133.000000	47.000000	101.000000	122.000000
1.250000	61.780000	29.330000	369.000000	0.000000	133.000000	47.000000	106.000000	94.000000
1.260000	62.450000	29.860000	387.000000	0.000000	134.000000	47.000000	67.000000	53.000000
1.270000	62.620000	30.110000	431.000000	0.000000	135.000000	46.000000	17.000000	25.000000
1.280000	62.450000	30.030000	436.000000	0.000000	136.000000	46.000000	-17.000000	-8.000000
1.290000	61.840000	29.720000	448.000000	0.000000	137.000000	45.000000	-61.000000	-31.000000
1.300000	61.120000	29.270000	449.000000	0.000000	138.000000	45.000000	-72.000000	-45.000000
1.310000	60.330000	28.770000	445.000000	0.000000	138.000000	45.000000	-79.000000	-50.000000
1.320000	59.790000	28.300000	442.000000	0.000000	138.000000	45.000000	-54.000000	-47.000000
1.330000	59.450000	27.980000	427.000000	0.000000	138.000000	45.000000	-34.000000	-32.000000
1.340000	59.230000	27.740000	361.000000	0.000000	138.000000	45.000000	-22.000000	-24.000000
1.350000	59.230000	27.740000	337.000000	0.000000	138.000000	45.000000	0.000000	0.000000
1.360000	59.540000	27.740000	276.000000	0.000000	137.000000	45.000000	31.000000	0.000000
1.370000	59.990000	28.060000	202.000000	0.000000	137.000000	45.000000	45.000000	32.000000
1.380000	60.690000	28.530000	48.000000	0.000000	137.000000	45.000000	70.000000	47.000000
1.390000	60.690000	28.530000	0.000000	1.000000	136.000000	46.000000	0.000000	0.000000
1.400000	62.110000	29.650000	0.000000	0.000000	136.000000	46.000000	142.000000	112.000000
1.410000	62.700000	30.080000	0.000000	0.000000	136.000000	46.000000	59.000000	43.000000
1.420000	62.920000	30.440000	0.000000	0.000000	136.000000	46.000000	22.000000	36.000000
1.430000	63.080000	30.700000	0.000000	0.000000	136.000000	46.000000	16.000000	26.000000
1.440000	63.190000	30.910000	0.000000	0.000000	137.000000	45.000000	11.000000	21.000000
1.450000	63.280000	31.040000	0.000000	0.000000	137.000000	45.000000	9.000000	13.000000
1.460000	63.410000	31.330000	0.000000	0.000000	137.000000	45.000000	13.000000	29.000000
1.470000	63.780000	31.730000	0.000000	0.000000	138.000000	45.000000	37.000000	40.000000
1.480000	64.290000	32.290000	0.000000	0.000000	138.000000	45.000000	51.000000	56.000000
1.490000	64.970000	32.980000	0.000000	0.000000	138.000000	45.000000	68.000000	69.000000
1.500000	65.820000	33.770000	0.000000	0.000000	138.000000	45.000000	85.000000	79.000000
1.510000	66.770000	34.520000	0.000000	0.000000	139.000000	45.000000	95.000000	75.000000
1.520000	67.810000	35.230000	0.000000	0.000000	139.000000	45.000000	104.000000	71.000000
1.530000	68.770000	35.830000	0.000000	0.000000	140.000000	46.000000	96.000000	60.000000
1.540000	69.680000	36.360000	0.000000	0.000000	141.000000	46.000000	91.000000	53.000000
1.550000	70.450000	36.820000	0.000000	0.000000	143.000000	46.000000	77.000000	46.000000
1.560000	70.940000	37.070000	0.000000	0.000000	144.000000	47.000000	49.000000	25.000000
1.570000	71.250000	37.180000	0.000000	0.000000	145.000000	47.000000	31.000000	11.000000
1.580000	71.250000	37.010000	0.000000	0.000000	146.000000	48.000000	0.000000	-17.000000
1.590000	71.030000	36.670000	0.000000	0.000000	147.000000	48.000000	-22.000000	-34.000000
1.600000	71.030000	36.670000	1.000000	0.000000	147.000000	48.000000	0.000000	0.000000
1.610000	70.080000	35.750000	51.000000	1.000000	146.000000	49.000000	0.000000	0.000000
1.620000	69.500000	35.250000	108.000000	0.000000	146.000000	49.000000	-58.000000	-50.000000
1.630000	68.910000	34.690000	175.000000	0.000000	146.000000	49.000000	-59.000000	-56.000000
1.640000	68.330000	34.050000	218.000000	0.000000	145.000000	50.000000	-58.000000	-64.000000
1.650000	67.760000	33.360000	242.000000	0.000000	145.000000	50.000000	-57.000000	-69.000000
1.660000	67.130000	32.510000	260.000000	0.000000	144.000000	49.000000	-63.000000	-85.000000
1.670000	66.450000	31.550000	277.000000	0.000000	144.000000	49.000000	-68.000000	-96.000000
1.680000	65.830000	30.710000	277.000000	0.000000	143.000000	49.000000	-62.000000	-84.000000
1.690000	65.470000	30.140000	281.000000	0.000000	142.000000	48.000000	-36.000000	-57.000000
1.700000	65.280000	29.750000	284.000000	0.000000	142.000000	48.000000	-19.000000	-39.000000
1.710000	65.280000	29.520000	285.000000	0.000000	140.000000	48.000000	0.000000	-23.000000
1.720000	65.280000	29.470000	273.000000	0.000000	142.000000	47.000000	0.000000	-5.000000
1.730000	65.550000	29.550000	291.000000	0.000000	142.000000	47.000000	27.000000	8.000000
1.740000	65.920000	29.880000	297.000000	0.000000	140.000000	47.000000	37.000000	33.000000
1.750000	66.570000	30.470000	301.000000	0.000000	140.000000	47.000000	65.000000	59.000000
1.760000	67.380000	31.240000	302.000000	0.000000	140.000000	47.000000	81.000000	77.000000
1.770000	68.290000	31.960000	304.000000	0.000000	142.000000	47.000000	91.000000	72.000000
1.780000	68.960000	32.630000	302.000000	0.000000	142.000000	47.000000	67.000000	67.000000
1.790000	69.300000	32.970000	304.000000	0.000000	142.000000	47.000000	34.000000	34.000000
1.800000	69.430000	33.120000	310.000000	0.000000	143.000000	48.000000	13.000000	15.000000
1.810000	69.350000	33.120000	309.000000	0.000000	143.000000	48.000000	-8.000000	0.000000
1.820000	69.090000	32.820000	307.000000	0.000000	143.000000	48.000000	-26.000000	-30.000000
1.830000	68.700000	32.420000	317.000000	0.000000	143.000000	48.000000	-39.000000	-40.000000
1.840000	68.120000	31.920000	319.000000	0.000000	143.000000	48.000000	-58.000000	-50.000000
1.850000	67.610000	31.410000	327.000000	0.000000	143.000000	48.000000	-51.000000	-51.000000
1.860000	67.150000	31.050000	327.000000	0.000000	143.000000	48.000000	-46.000000	-36.000000
1.870000	66.930000	30.790000	316.000000	0.000000	143.000000	48.000000	-22.000000	-26.000000
1.880000	66.870000	30.640000	281.000000	0.000000	143.000000	48.000000	-6.000000	-15.000000
1.890000	66.870000	30.580000	275.000000	0.000000	143.000000	48.000000	0.000000	-6.000000
1.900000	67.040000	30.580000	245.000000	0.000000	143.000000	48.000000	17.000000	0.000000
1.910000	67.180000	30.580000	228.000000	0.000000	143.000000	48.000000	14.000000	0.000000
1.920000	67.350000	30.650000	209.000000	0.000000	144.000000	47.000000	17.000000	7.000000
1.930000	67.430000	30.740000	222.000000	0.000000	144.000000	47.000000	8.000000	9.000000
1.940000	67.430000	30.740000	222.000000	0.000000	144.000000	47.000000	0.000000	0.000000
1.950000	67.430000	30.740000	215.000000	0.000000	144.000000	47.000000	0.000000	0.000000
1.960000	67.430000	30.740000	215.000000	0.000000	144.000000	47.000000	0.000000	0.000000
1.970000	67.320000	30.610000	212.000000	0.000000	144.000000	47.000000	-11.000000	-13.000000
1.980000	67.260000	30.500000	213.000000	0.000000	144.000000	47.000000	-6.000000	-11.000000
1.990000	67.260000	30.500000	208.000000	0.000000	144.000000	47.000000	0.000000	0.000000
2.000000	67.260000	30.500000	212.000000	0.000000	144.000000	47.000000	0.000000	0.000000
2.010000	67.480000	30.620000	218.000000	0.000000	143.000000	48.000000	22.000000	12.000000
2.020000	67.800000	30.950000	220.000000	0.000000	143.000000	48.000000	32.000000	33.000000
2.030000	68.490000	31.410000	220.000000	0.000000	144.000000	48.000000	69.000000	46.000000
2.040000	69.230000	31.950000	217.000000	0.000000	144.000000	48.000000	74.000000	54.000000
2.050000	70.040000	32.520000	215.000000	0.000000	144.000000	48.000000	81.000000	57.000000
2.060000	70.840000	33.110000	213.000000	0.000000	145.000000	48.000000	80.000000	59.000000
2.070000	71.390000	33.500000	215.000000	0.000000	145.000000	48.000000	55.000000	39.000000
2.080000	71.800000	33.600000	207.000000	0.000000	145.000000	50.000000	41.000000	10.000000
2.090000	71.870000	33.520000	244.000000	0.000000	145.000000	50.000000	7.000000	-8.000000
2.100000	71.600000	33.090000	275.000000	0.000000	146.000000	50.000000	-27.000000	-43.000000
2.110000	71.110000	32.290000	301.000000	0.000000	146.000000	50.000000	-49.000000	-80.000000
2.120000	70.130000	31.250000	334.000000	0.000000	148.000000	50.000000	-98.000000	-104.000000
2.130000	68.970000	30.140000	338.000000	0.000000	148.000000	50.000000	-116.000000	-111.000000
2.140000	67.700000	28.850000	346.000000	0.000000	146.000000	50.000000	-127.000000	-129.000000
2.150000	66.390000	27.450000	351.000000	0.000000	146.000000	50.000000	-131.000000	-140.000000
2.160000	65.200000	26.270000	354.000000	0.000000	145.000000	50.000000	-119.000000	-118.000000
2.170000	64.320000	25.360000	363.000000	0.000000	143.000000	50.000000	-88.000000	-91.000000
2.180000	63.600000	24.620000	369.000000	0.000000	142.000000	50.000000	-72.000000	-74.000000
2.190000	63.400000	24.400000	372.000000	0.000000	140.000000	51.000000	-20.000000	-22.000000
2.200000	63.560000	24.600000	377.000000	0.000000	137.000000	51.000000	16.000000	20.000000
