t	x	y	pressure	penup	azimuth	inclination	v_x	v_y
0.000000	49.880000	83.530000	36.000000	1.000000	140.000000	53.000000	0.000000	0.000000
0.010000	50.050000	83.910000	68.000000	0.000000	140.000000	53.000000	17.000000	38.000000
0.020000	50.050000	84.140000	78.000000	0.000000	140.000000	53.000000	0.000000	23.000000
0.030000	50.050000	84.320000	124.000000	0.000000	142.000000	53.000000	0.000000	18.000000
0.040000	50.120000	84.450000	188.000000	0.000000	142.000000	53.000000	7.000000	13.000000
0.050000	50.120000	84.550000	212.000000	0.000000	142.000000	53.000000	0.000000	10.000000
0.060000	50.120000	84.550000	221.000000	0.000000	142.000000	53.000000	0.000000	0.000000
0.070000	50.120000	84.490000	253.000000	0.000000	142.000000	53.000000	0.000000	-6.000000
0.080000	50.060000	84.160000	259.000000	0.000000	142.000000	53.000000	-6.000000	-33.000000
0.090000	49.970000	83.660000	272.000000	0.000000	142.000000	53.000000	-9.000000	-50.000000
0.100000	49.730000	82.880000	287.000000	0.000000	142.000000	53.000000	-24.000000	-78.000000
0.110000	49.460000	81.930000	341.000000	0.000000	142.000000	53.000000	-27.000000	-95.000000
0.120000	49.170000	80.870000	384.000000	0.000000	142.000000	53.000000	-29.000000	-106.000000
0.130000	48.800000	79.590000	417.000000	0.000000	142.000000	53.000000	-37.000000	-128.000000
0.140000	48.460000	78.720000	428.000000	0.000000	141.000000	53.000000	-34.000000	-87.000000
0.150000	48.350000	78.120000	440.000000	0.000000	141.000000	53.000000	-11.000000	-60.000000
0.160000	48.350000	78.120000	442.000000	0.000000	141.000000	53.000000	0.000000	0.000000
0.170000	48.420000	78.320000	450.000000	0.000000	140.000000	54.000000	7.000000	20.000000
0.180000	48.750000	78.740000	461.000000	0.000000	140.000000	54.000000	33.000000	42.000000
0.190000	49.280000	80.020000	471.000000	0.000000	140.000000	54.000000	53.000000	128.000000
0.200000	50.020000	81.400000	474.000000	0.000000	139.000000	54.000000	74.000000	138.000000
0.210000	50.810000	82.850000	465.000000	0.000000	139.000000	54.000000	79.000000	145.000000
0.220000	51.680000	84.260000	463.000000	0.000000	139.000000	54.000000	87.000000	141.000000
0.230000	52.590000	85.670000	427.000000	0.000000	139.000000	54.000000	91.000000	141.000000
0.240000	53.290000	86.660000	371.000000	0.000000	139.000000	54.000000	70.000000	99.000000
0.250000	53.860000	87.380000	260.000000	0.000000	137.000000	54.000000	57.000000	72.000000
0.260000	54.260000	87.750000	109.000000	0.000000	137.000000	54.000000	40.000000	37.000000
0.270000	54.260000	87.750000	0.000000	1.000000	137.000000	54.000000	0.000000	0.000000
0.280000	54.440000	87.680000	0.000000	0.000000	136.000000	55.000000	18.000000	-7.000000
0.290000	54.210000	87.210000	0.000000	0.000000	135.000000	54.000000	-23.000000	-47.000000
0.300000	53.760000	86.700000	0.000000	0.000000	135.000000	54.000000	-45.000000	-51.000000
0.310000	53.180000	85.980000	0.000000	0.000000	135.000000	54.000000	-58.000000	-72.000000
0.320000	52.610000	85.140000	0.000000	0.000000	135.000000	54.000000	-57.000000	-84.000000
0.330000	52.030000	84.270000	0.000000	0.000000	136.000000	54.000000	-58.000000	-87.000000
0.340000	51.460000	83.440000	0.000000	0.000000	136.000000	54.000000	-57.000000	-83.000000
0.350000	50.950000	82.690000	0.000000	0.000000	136.000000	54.000000	-51.000000	-75.000000
0.360000	50.580000	81.990000	0.000000	0.000000	137.000000	53.000000	-37.000000	-70.000000
0.370000	50.310000	81.410000	0.000000	0.000000	137.000000	53.000000	-27.000000	-58.000000
0.380000	50.180000	80.990000	0.000000	0.000000	136.000000	52.000000	-13.000000	-42.000000
0.390000	50.180000	80.670000	0.000000	0.000000	136.000000	52.000000	0.000000	-32.000000
0.400000	50.310000	80.410000	0.000000	0.000000	136.000000	52.000000	13.000000	-26.000000
0.410000	50.520000	80.300000	0.000000	0.000000	135.000000	53.000000	21.000000	-11.000000
0.420000	50.750000	80.300000	0.000000	0.000000	135.000000	53.000000	23.000000	0.000000
0.430000	51.020000	80.360000	0.000000	0.000000	135.000000	53.000000	27.000000	6.000000
0.440000	51.230000	80.490000	0.000000	0.000000	136.000000	54.000000	21.000000	13.000000
0.450000	51.410000	80.670000	0.000000	0.000000	136.000000	54.000000	18.000000	18.000000
0.460000	51.570000	80.770000	0.000000	0.000000	136.000000	54.000000	16.000000	10.000000
0.470000	51.570000	80.770000	5.000000	0.000000	136.000000	54.000000	0.000000	0.000000
0.480000	51.570000	80.770000	20.000000	1.000000	137.000000	54.000000	0.000000	0.000000
0.490000	51.570000	80.770000	49.000000	0.000000	137.000000	54.000000	0.000000	0.000000
0.500000	51.220000	80.800000	53.000000	0.000000	137.000000	54.000000	-35.000000	3.000000
0.510000	51.000000	80.600000	101.000000	0.000000	137.000000	54.000000	-22.000000	-20.000000
0.520000	50.720000	80.310000	132.000000	0.000000	139.000000	55.000000	-28.000000	-29.000000
0.530000	50.460000	79.940000	158.000000	0.000000	139.000000	55.000000	-26.000000	-37.000000
0.540000	50.260000	79.560000	187.000000	0.000000	139.000000	55.000000	-20.000000	-38.000000
0.550000	50.150000	79.170000	173.000000	0.000000	139.000000	55.000000	-11.000000	-39.000000
0.560000	50.150000	78.930000	175.000000	0.000000	139.000000	55.000000	0.000000	-24.000000
0.570000	50.150000	78.930000	176.000000	0.000000	139.000000	55.000000	0.000000	0.000000
0.580000	50.150000	78.930000	178.000000	0.000000	140.000000	54.000000	0.000000	0.000000
0.590000	50.530000	78.720000	173.000000	0.000000	140.000000	54.000000	38.000000	-21.000000
0.600000	50.790000	78.870000	173.000000	0.000000	140.000000	54.000000	26.000000	15.000000
0.610000	51.040000	79.210000	173.000000	0.000000	140.000000	54.000000	25.000000	34.000000
0.620000	51.270000	79.520000	173.000000	0.000000	140.000000	54.000000	23.000000	31.000000
0.630000	51.430000	79.800000	173.000000	0.000000	140.000000	54.000000	16.000000	28.000000
0.640000	51.560000	80.060000	173.000000	0.000000	140.000000	54.000000	13.000000	26.000000
0.650000	51.660000	80.270000	176.000000	0.000000	140.000000	54.000000	10.000000	21.000000
0.660000	51.660000	80.380000	195.000000	0.000000	139.000000	54.000000	0.000000	11.000000
0.670000	51.660000	80.380000	202.000000	0.000000	137.000000	54.000000	0.000000	0.000000
0.680000	51.580000	80.380000	203.000000	0.000000	137.000000	54.000000	-8.000000	0.000000
0.690000	51.520000	80.300000	203.000000	0.000000	137.000000	54.000000	-6.000000	-8.000000
0.700000	51.470000	80.080000	205.000000	0.000000	137.000000	54.000000	-5.000000	-22.000000
0.710000	51.470000	79.770000	205.000000	0.000000	137.000000	54.000000	0.000000	-31.000000
0.720000	51.400000	79.460000	210.000000	0.000000	137.000000	54.000000	-7.000000	-31.000000
0.730000	51.400000	79.240000	212.000000	0.000000	137.000000	54.000000	0.000000	-22.000000
0.740000	51.460000	79.070000	212.000000	0.000000	137.000000	54.000000	6.000000	-17.000000
0.750000	51.540000	79.020000	208.000000	0.000000	137.000000	54.000000	8.000000	-5.000000
0.760000	51.660000	79.020000	202.000000	0.000000	137.000000	54.000000	12.000000	0.000000
0.770000	51.830000	79.020000	202.000000	0.000000	137.000000	54.000000	17.000000	0.000000
0.780000	52.000000	79.230000	200.000000	0.000000	137.000000	54.000000	17.000000	21.000000
0.790000	52.190000	79.440000	202.000000	0.000000	139.000000	54.000000	19.000000	21.000000
0.800000	52.340000	79.690000	195.000000	0.000000	139.000000	54.000000	15.000000	25.000000
0.810000	52.450000	79.920000	191.000000	0.000000	137.000000	54.000000	11.000000	23.000000
0.820000	52.520000	80.130000	193.000000	0.000000	137.000000	54.000000	7.000000	21.000000
0.830000	52.520000	80.260000	200.000000	0.000000	137.000000	54.000000	0.000000	13.000000
0.840000	52.520000	80.260000	212.000000	0.000000	137.000000	54.000000	0.000000	0.000000
0.850000	52.520000	80.260000	222.000000	0.000000	136.000000	55.000000	0.000000	0.000000
0.860000	52.520000	80.210000	218.000000	0.000000	136.000000	55.000000	0.000000	-5.000000
0.870000	52.520000	80.100000	222.000000	0.000000	136.000000	55.000000	0.000000	-11.000000
0.880000	52.520000	79.920000	222.000000	0.000000	136.000000	55.000000	0.000000	-18.000000
0.890000	52.520000	79.650000	206.000000	0.000000	135.000000	54.000000	0.000000	-27.000000
0.900000	52.520000	79.330000	222.000000	0.000000	135.000000	54.000000	0.000000	-32.000000
0.910000	52.570000	79.130000	207.000000	0.000000	135.000000	54.000000	5.000000	-20.000000
0.920000	52.620000	79.010000	222.000000	0.000000	135.000000	54.000000	5.000000	-12.000000
0.930000	52.710000	78.950000	217.000000	0.000000	135.000000	54.000000	9.000000	-6.000000
0.940000	52.800000	78.950000	213.000000	0.000000	136.000000	54.000000	9.000000	0.000000
0.950000	52.900000	79.100000	213.000000	0.000000	136.000000	54.000000	10.000000	15.000000
0.960000	53.070000	79.370000	212.000000	0.000000	136.000000	54.000000	17.000000	27.000000
0.970000	53.250000	79.700000	205.000000	0.000000	136.000000	54.000000	18.000000	33.000000
0.980000	53.450000	80.020000	205.000000	0.000000	136.000000	54.000000	20.000000	32.000000
0.990000	53.610000	80.300000	202.000000	0.000000	136.000000	54.000000	16.000000	28.000000
1.000000	53.740000	80.510000	203.000000	0.000000	136.000000	54.000000	13.000000	21.000000
1.010000	53.840000	80.620000	208.000000	0.000000	136.000000	54.000000	10.000000	11.000000
1.020000	53.840000	80.620000	217.000000	0.000000	135.000000	54.000000	0.000000	0.000000
1.030000	53.840000	80.550000	220.000000	0.000000	135.000000	54.000000	0.000000	-7.000000
1.040000	53.840000	80.460000	211.000000	0.000000	135.000000	54.000000	0.000000	-9.000000
1.050000	53.910000	80.260000	211.000000	0.000000	135.000000	54.000000	7.000000	-20.000000
1.060000	53.910000	79.990000	223.000000	0.000000	135.000000	54.000000	0.000000	-27.000000
1.070000	54.000000	79.680000	228.000000	0.000000	136.000000	55.000000	9.000000	-31.000000
1.080000	54.070000	79.400000	233.000000	0.000000	136.000000	55.000000	7.000000	-28.000000
1.090000	54.140000	79.230000	239.000000	0.000000	136.000000	55.000000	7.000000	-17.000000
1.100000	54.210000	79.120000	246.000000	0.000000	136.000000	55.000000	7.000000	-11.000000
1.110000	54.290000	79.070000	247.000000	0.000000	136.000000	55.000000	8.000000	-5.000000
1.120000	54.440000	79.150000	245.000000	0.000000	137.000000	54.000000	15.000000	8.000000
1.130000	54.600000	79.330000	241.000000	0.000000	137.000000	54.000000	16.000000	18.000000
1.140000	54.770000	79.560000	256.000000	0.000000	137.000000	54.000000	17.000000	23.000000
1.150000	54.900000	79.790000	249.000000	0.000000	137.000000	54.000000	13.000000	23.000000
1.160000	55.000000	80.030000	242.000000	0.000000	137.000000	54.000000	10.000000	24.000000
1.170000	55.070000	80.290000	226.000000	0.000000	137.000000	54.000000	7.000000	26.000000
1.180000	55.070000	80.540000	228.000000	0.000000	136.000000	55.000000	0.000000	25.000000
1.190000	55.070000	80.650000	237.000000	0.000000	136.000000	55.000000	0.000000	11.000000
1.200000	55.070000	80.650000	239.000000	0.000000	136.000000	55.000000	0.000000	0.000000
1.210000	54.960000	80.650000	244.000000	0.000000	136.000000	55.000000	-11.000000	0.000000
1.220000	54.860000	80.540000	244.000000	0.000000	136.000000	55.000000	-10.000000	-11.000000
1.230000	54.750000	80.350000	246.000000	0.000000	136.000000	55.000000	-11.000000	-19.000000
1.240000	54.690000	80.050000	249.000000	0.000000	136.000000	55.000000	-6.000000	-30.000000
1.250000	54.690000	79.780000	254.000000	0.000000	136.000000	55.000000	0.000000	-27.000000
1.260000	54.690000	79.540000	249.000000	0.000000	136.000000	55.000000	0.000000	-24.000000
1.270000	54.750000	79.370000	254.000000	0.000000	136.000000	55.000000	6.000000	-17.000000
1.280000	54.860000	79.290000	256.000000	0.000000	136.000000	55.000000	11.000000	-8.000000
1.290000	55.050000	79.290000	256.000000	0.000000	136.000000	55.000000	19.000000	0.000000
1.300000	55.250000	79.290000	241.000000	0.000000	138.000000	55.000000	20.000000	0.000000
1.310000	55.250000	79.290000	256.000000	0.000000	138.000000	55.000000	0.000000	0.000000
1.320000	55.640000	79.560000	254.000000	0.000000	138.000000	55.000000	39.000000	27.000000
1.330000	55.800000	79.770000	247.000000	0.000000	138.000000	55.000000	16.000000	21.000000
1.340000	55.940000	79.980000	233.000000	0.000000	138.000000	55.000000	14.000000	21.000000
1.350000	56.020000	80.180000	221.000000	0.000000	139.000000	56.000000	8.000000	20.000000
1.360000	56.020000	80.400000	218.000000	0.000000	139.000000	56.000000	0.000000	22.000000
1.370000	56.020000	80.600000	218.000000	0.000000	138.000000	57.000000	0.000000	20.000000
1.380000	56.020000	80.720000	214.000000	0.000000	138.000000	57.000000	0.000000	12.000000
1.390000	56.020000	80.720000	218.000000	0.000000	138.000000	57.000000	0.000000	0.000000
1.400000	55.940000	80.720000	218.000000	0.000000	138.000000	57.000000	-8.000000	0.000000
1.410000	55.940000	80.650000	223.000000	0.000000	139.000000	56.000000	0.000000	-7.000000
1.420000	55.940000	80.550000	223.000000	0.000000	139.000000	56.000000	0.000000	-10.000000
1.430000	56.040000	80.410000	225.000000	0.000000	139.000000	56.000000	10.000000	-14.000000
1.440000	56.130000	80.240000	225.000000	0.000000	139.000000	56.000000	9.000000	-17.000000
1.450000	56.260000	80.050000	226.000000	0.000000	139.000000	56.000000	13.000000	-19.000000
1.460000	56.320000	79.840000	225.000000	0.000000	139.000000	56.000000	6.000000	-21.000000
1.470000	56.320000	79.620000	233.000000	0.000000	139.000000	56.000000	0.000000	-22.000000
1.480000	56.370000	79.400000	233.000000	0.000000	139.000000	56.000000	5.000000	-22.000000
1.490000	56.370000	79.220000	235.000000	0.000000	139.000000	56.000000	0.000000	-18.000000
1.500000	56.420000	79.050000	237.000000	0.000000	139.000000	56.000000	5.000000	-17.000000
1.510000	56.420000	79.050000	239.000000	0.000000	139.000000	56.000000	0.000000	0.000000
1.520000	56.420000	79.050000	237.000000	0.000000	139.000000	56.000000	0.000000	0.000000
1.530000	56.420000	79.050000	233.000000	0.000000	139.000000	56.000000	0.000000	0.000000
1.540000	56.500000	79.160000	223.000000	0.000000	139.000000	56.000000	8.000000	11.000000
1.550000	56.590000	79.350000	216.000000	0.000000	140.000000	55.000000	9.000000	19.000000
1.560000	56.730000	79.590000	207.000000	0.000000	140.000000	56.000000	14.000000	24.000000
1.570000	56.870000	79.830000	213.000000	0.000000	140.000000	56.000000	14.000000	24.000000
1.580000	56.960000	80.090000	180.000000	0.000000	140.000000	56.000000	9.000000	26.000000
1.590000	57.030000	80.360000	175.000000	0.000000	140.000000	56.000000	7.000000	27.000000
1.600000	57.080000	80.550000	175.000000	0.000000	140.000000	58.000000	5.000000	19.000000
1.610000	57.130000	80.700000	175.000000	0.000000	140.000000	58.000000	5.000000	15.000000
1.620000	57.130000	80.760000	185.000000	0.000000	140.000000	58.000000	0.000000	6.000000
1.630000	57.130000	80.760000	190.000000	0.000000	140.000000	58.000000	0.000000	0.000000
1.640000	57.130000	80.680000	190.000000	0.000000	140.000000	58.000000	0.000000	-8.000000
1.650000	57.130000	80.580000	191.000000	0.000000	142.000000	57.000000	0.000000	-10.000000
1.660000	57.130000	80.410000	210.000000	0.000000	142.000000	57.000000	0.000000	-17.000000
1.670000	57.130000	80.230000	220.000000	0.000000	142.000000	57.000000	0.000000	-18.000000
1.680000	57.190000	80.060000	222.000000	0.000000	142.000000	57.000000	6.000000	-17.000000
1.690000	57.280000	79.850000	222.000000	0.000000	140.000000	58.000000	9.000000	-21.000000
1.700000	57.380000	79.620000	206.000000	0.000000	142.000000	58.000000	10.000000	-23.000000
1.710000	57.480000	79.400000	220.000000	0.000000	142.000000	58.000000	10.000000	-22.000000
1.720000	57.570000	79.250000	220.000000	0.000000	142.000000	58.000000	9.000000	-15.000000
1.730000	57.570000	79.130000	222.000000	0.000000	142.000000	58.000000	0.000000	-12.000000
1.740000	57.510000	79.020000	217.000000	0.000000	142.000000	58.000000	-6.000000	-11.000000
1.750000	57.420000	78.970000	180.000000	0.000000	143.000000	57.000000	-9.000000	-5.000000
1.760000	57.330000	78.970000	113.000000	0.000000	143.000000	57.000000	-9.000000	0.000000
1.770000	57.260000	78.970000	34.000000	0.000000	143.000000	57.000000	-7.000000	0.000000
1.780000	57.260000	78.970000	0.000000	1.000000	144.000000	57.000000	0.000000	0.000000
1.790000	57.260000	79.130000	0.000000	0.000000	144.000000	57.000000	0.000000	16.000000
1.800000	57.380000	79.300000	0.000000	0.000000	144.000000	57.000000	12.000000	17.000000
1.810000	57.570000	79.530000	0.000000	0.000000	144.000000	57.000000	19.000000	23.000000
1.820000	57.840000	79.790000	0.000000	0.000000	144.000000	57.000000	27.000000	26.000000
1.830000	58.150000	80.040000	0.000000	0.000000	143.000000	57.000000	31.000000	25.000000
1.840000	58.470000	80.270000	0.000000	0.000000	143.000000	57.000000	32.000000	23.000000
1.850000	58.770000	80.420000	0.000000	0.000000	143.000000	59.000000	30.000000	15.000000
1.860000	58.770000	80.420000	103.000000	1.000000	143.000000	59.000000	0.000000	0.000000
1.870000	58.770000	80.420000	129.000000	0.000000	143.000000	59.000000	0.000000	0.000000
1.880000	58.770000	80.420000	165.000000	0.000000	143.000000	59.000000	0.000000	0.000000
1.890000	58.770000	80.420000	188.000000	0.000000	143.000000	59.000000	0.000000	0.000000
1.900000	58.520000	80.390000	253.000000	0.000000	143.000000	59.000000	-25.000000	-3.000000
1.910000	58.270000	80.260000	262.000000	0.000000	143.000000	59.000000	-25.000000	-13.000000
1.920000	58.040000	80.070000	265.000000	0.000000	143.000000	59.000000	-23.000000	-19.000000
1.930000	57.810000	79.810000	285.000000	0.000000	143.000000	59.000000	-23.000000	-26.000000
1.940000	57.640000	79.520000	277.000000	0.000000	143.000000	59.000000	-17.000000	-29.000000
1.950000	57.530000	79.190000	281.000000	0.000000	142.000000	58.000000	-11.000000	-33.000000
1.960000	57.530000	79.030000	287.000000	0.000000	142.000000	58.000000	0.000000	-16.000000
1.970000	57.660000	79.030000	254.000000	0.000000	142.000000	58.000000	13.000000	0.000000
1.980000	57.930000	79.080000	216.000000	0.000000	142.000000	58.000000	27.000000	5.000000
1.990000	58.300000	79.280000	220.000000	0.000000	143.000000	57.000000	37.000000	20.000000
2.000000	58.650000	79.560000	213.000000	0.000000	143.000000	57.000000	35.000000	28.000000
2.010000	58.940000	79.740000	207.000000	0.000000	143.000000	57.000000	29.000000	18.000000
2.020000	59.110000	79.900000	207.000000	0.000000	144.000000	58.000000	17.000000	16.000000
2.030000	59.210000	79.900000	208.000000	0.000000	143.000000	59.000000	10.000000	0.000000
2.040000	59.210000	79.900000	208.000000	0.000000	143.000000	59.000000	0.000000	0.000000
2.050000	59.210000	79.820000	212.000000	0.000000	145.000000	59.000000	0.000000	-8.000000
2.060000	59.210000	79.700000	212.000000	0.000000	144.000000	60.000000	0.000000	-12.000000
2.070000	59.280000	79.560000	203.000000	0.000000	144.000000	60.000000	7.000000	-14.000000
2.080000	59.380000	79.420000	120.000000	0.000000	145.000000	60.000000	10.000000	-14.000000
2.090000	59.380000	79.420000	0.000000	1.000000	145.000000	60.000000	0.000000	0.000000
2.100000	59.790000	79.300000	0.000000	0.000000	145.000000	60.000000	41.000000	-12.000000
2.110000	60.120000	79.400000	0.000000	0.000000	145.000000	60.000000	33.000000	10.000000
2.120000	60.510000	79.700000	0.000000	0.000000	145.000000	60.000000	39.000000	30.000000
2.130000	60.930000	80.030000	0.000000	0.000000	145.000000	60.000000	42.000000	33.000000
2.140000	61.370000	80.390000	0.000000	0.000000	145.000000	60.000000	44.000000	36.000000
2.150000	61.840000	80.760000	0.000000	0.000000	144.000000	60.000000	47.000000	37.000000
2.160000	62.330000	81.100000	0.000000	0.000000	144.000000	60.000000	49.000000	34.000000
2.170000	62.740000	81.390000	0.000000	0.000000	142.000000	59.000000	41.000000	29.000000
2.180000	63.100000	81.620000	0.000000	0.000000	142.000000	59.000000	36.000000	23.000000
2.190000	63.100000	81.620000	130.000000	1.000000	142.000000	59.000000	0.000000	0.000000
2.200000	63.310000	81.930000	161.000000	0.000000	141.000000	59.000000	21.000000	31.000000
2.210000	63.140000	82.030000	161.000000	0.000000	141.000000	59.000000	-17.000000	10.000000
