t	x	y	pressure	penup	azimuth	inclination	v_x	v_y
0.000000	87.670000	46.990000	96.000000	1.000000	147.000000	52.000000	0.000000	0.000000
0.010000	88.240000	47.910000	137.000000	0.000000	148.000000	53.000000	57.000000	92.000000
0.020000	88.240000	48.280000	206.000000	0.000000	148.000000	53.000000	0.000000	37.000000
0.030000	88.240000	48.550000	280.000000	0.000000	148.000000	53.000000	0.000000	27.000000
0.040000	88.240000	48.700000	317.000000	0.000000	148.000000	53.000000	0.000000	15.000000
0.050000	88.240000	48.780000	325.000000	0.000000	148.000000	53.000000	0.000000	8.000000
0.060000	88.240000	48.780000	339.000000	0.000000	149.000000	53.000000	0.000000	0.000000
0.070000	88.170000	48.340000	373.000000	0.000000	149.000000	53.000000	-7.000000	-44.000000
0.080000	87.970000	47.710000	369.000000	0.000000	149.000000	53.000000	-20.000000	-63.000000
0.090000	87.680000	46.770000	388.000000	0.000000	149.000000	53.000000	-29.000000	-94.000000
0.100000	87.290000	45.680000	399.000000	0.000000	149.000000	53.000000	-39.000000	-109.000000
0.110000	86.830000	44.490000	423.000000	0.000000	149.000000	53.000000	-46.000000	-119.000000
0.120000	86.310000	43.180000	448.000000	0.000000	149.000000	53.000000	-52.000000	-131.000000
0.130000	86.230000	42.350000	473.000000	0.000000	148.000000	53.000000	-8.000000	-83.000000
0.140000	86.090000	41.850000	470.000000	0.000000	147.000000	53.000000	-14.000000	-50.000000
0.150000	85.900000	41.730000	488.000000	0.000000	147.000000	53.000000	-19.000000	-12.000000
0.160000	86.080000	42.070000	497.000000	0.000000	147.000000	53.000000	18.000000	34.000000
0.170000	86.660000	42.720000	522.000000	0.000000	146.000000	53.000000	58.000000	65.000000
0.180000	87.500000	44.110000	518.000000	0.000000	146.000000	53.000000	84.000000	139.000000
0.190000	88.540000	45.570000	529.000000	0.000000	147.000000	53.000000	104.000000	146.000000
0.200000	89.580000	47.070000	521.000000	0.000000	147.000000	53.000000	104.000000	150.000000
0.210000	90.510000	48.550000	514.000000	0.000000	147.000000	53.000000	93.000000	148.000000
0.220000	91.360000	50.050000	491.000000	0.000000	148.000000	54.000000	85.000000	150.000000
0.230000	92.120000	50.930000	418.000000	0.000000	149.000000	53.000000	76.000000	88.000000
0.240000	92.650000	51.390000	292.000000	0.000000	151.000000	53.000000	53.000000	46.000000
0.250000	93.030000	51.600000	132.000000	0.000000	153.000000	53.000000	38.000000	21.000000
0.260000	93.030000	51.600000	0.000000	1.000000	153.000000	53.000000	0.000000	0.000000
0.270000	93.170000	51.250000	0.000000	0.000000	155.000000	52.000000	14.000000	-35.000000
0.280000	92.870000	50.700000	0.000000	0.000000	155.000000	52.000000	-30.000000	-55.000000
0.290000	92.280000	50.120000	0.000000	0.000000	156.000000	51.000000	-59.000000	-58.000000
0.300000	91.610000	49.380000	0.000000	0.000000	156.000000	51.000000	-67.000000	-74.000000
0.310000	90.890000	48.540000	0.000000	0.000000	155.000000	52.000000	-72.000000	-84.000000
0.320000	90.180000	47.600000	0.000000	0.000000	155.000000	52.000000	-71.000000	-94.000000
0.330000	89.430000	46.670000	0.000000	0.000000	155.000000	52.000000	-75.000000	-93.000000
0.340000	88.660000	45.760000	0.000000	0.000000	155.000000	52.000000	-77.000000	-91.000000
0.350000	87.960000	44.880000	0.000000	0.000000	154.000000	52.000000	-70.000000	-88.000000
0.360000	87.500000	44.150000	0.000000	0.000000	154.000000	52.000000	-46.000000	-73.000000
0.370000	87.210000	43.510000	0.000000	0.000000	154.000000	52.000000	-29.000000	-64.000000
0.380000	87.210000	43.100000	0.000000	0.000000	154.000000	52.000000	0.000000	-41.000000
0.390000	87.160000	42.890000	0.000000	0.000000	153.000000	52.000000	-5.000000	-21.000000
0.400000	87.310000	42.820000	0.000000	0.000000	153.000000	52.000000	15.000000	-7.000000
0.410000	87.550000	42.820000	0.000000	0.000000	153.000000	52.000000	24.000000	0.000000
0.420000	87.860000	42.820000	0.000000	0.000000	153.000000	52.000000	31.000000	0.000000
0.430000	88.190000	42.880000	0.000000	0.000000	152.000000	53.000000	33.000000	6.000000
0.440000	88.190000	42.880000	61.000000	1.000000	152.000000	53.000000	0.000000	0.000000
0.450000	88.790000	43.310000	86.000000	0.000000	152.000000	53.000000	60.000000	43.000000
0.460000	88.950000	43.580000	124.000000	0.000000	151.000000	53.000000	16.000000	27.000000
0.470000	89.070000	43.750000	193.000000	0.000000	152.000000	54.000000	12.000000	17.000000
0.480000	89.070000	43.890000	221.000000	0.000000	152.000000	54.000000	0.000000	14.000000
0.490000	88.970000	43.940000	245.000000	0.000000	152.000000	54.000000	-10.000000	5.000000
0.500000	88.800000	43.940000	267.000000	0.000000	152.000000	54.000000	-17.000000	0.000000
0.510000	88.570000	43.850000	287.000000	0.000000	152.000000	54.000000	-23.000000	-9.000000
0.520000	88.300000	43.560000	281.000000	0.000000	152.000000	54.000000	-27.000000	-29.000000
0.530000	87.970000	43.150000	291.000000	0.000000	151.000000	53.000000	-33.000000	-41.000000
0.540000	87.660000	42.670000	311.000000	0.000000	151.000000	53.000000	-31.000000	-48.000000
0.550000	87.420000	42.190000	302.000000	0.000000	151.000000	53.000000	-24.000000	-48.000000
0.560000	87.340000	41.850000	312.000000	0.000000	151.000000	53.000000	-8.000000	-34.000000
0.570000	87.340000	41.610000	309.000000	0.000000	151.000000	53.000000	0.000000	-24.000000
0.580000	87.520000	41.480000	304.000000	0.000000	149.000000	53.000000	18.000000	-13.000000
0.590000	87.780000	41.480000	301.000000	0.000000	149.000000	53.000000	26.000000	0.000000
0.600000	88.100000	41.650000	299.000000	0.000000	149.000000	53.000000	32.000000	17.000000
0.610000	88.450000	41.930000	304.000000	0.000000	149.000000	53.000000	35.000000	28.000000
0.620000	88.810000	42.240000	306.000000	0.000000	151.000000	53.000000	36.000000	31.000000
0.630000	89.180000	42.570000	301.000000	0.000000	151.000000	53.000000	37.000000	33.000000
0.640000	89.380000	42.870000	299.000000	0.000000	151.000000	53.000000	20.000000	30.000000
0.650000	89.470000	43.150000	302.000000	0.000000	151.000000	53.000000	9.000000	28.000000
0.660000	89.470000	43.360000	301.000000	0.000000	152.000000	54.000000	0.000000	21.000000
0.670000	89.470000	43.470000	304.000000	0.000000	152.000000	54.000000	0.000000	11.000000
0.680000	89.420000	43.470000	304.000000	0.000000	152.000000	54.000000	-5.000000	0.000000
0.690000	89.360000	43.350000	302.000000	0.000000	152.000000	54.000000	-6.000000	-12.000000
0.700000	89.240000	43.010000	302.000000	0.000000	151.000000	54.000000	-12.000000	-34.000000
0.710000	89.090000	42.620000	307.000000	0.000000	151.000000	54.000000	-15.000000	-39.000000
0.720000	88.990000	42.260000	304.000000	0.000000	151.000000	54.000000	-10.000000	-36.000000
0.730000	88.910000	41.930000	302.000000	0.000000	151.000000	54.000000	-8.000000	-33.000000
0.740000	88.910000	41.740000	304.000000	0.000000	152.000000	54.000000	0.000000	-19.000000
0.750000	88.960000	41.640000	302.000000	0.000000	152.000000	54.000000	5.000000	-10.000000
0.760000	89.090000	41.640000	301.000000	0.000000	152.000000	54.000000	13.000000	0.000000
0.770000	89.240000	41.640000	309.000000	0.000000	152.000000	54.000000	15.000000	0.000000
0.780000	89.480000	41.820000	310.000000	0.000000	152.000000	54.000000	24.000000	18.000000
0.790000	89.790000	42.070000	319.000000	0.000000	152.000000	54.000000	31.000000	25.000000
0.800000	90.010000	42.400000	325.000000	0.000000	152.000000	54.000000	22.000000	33.000000
0.810000	90.200000	42.730000	348.000000	0.000000	152.000000	54.000000	19.000000	33.000000
0.820000	90.370000	43.060000	351.000000	0.000000	152.000000	54.000000	17.000000	33.000000
0.830000	90.500000	43.350000	356.000000	0.000000	152.000000	54.000000	13.000000	29.000000
0.840000	90.500000	43.470000	359.000000	0.000000	152.000000	54.000000	0.000000	12.000000
0.850000	90.500000	43.470000	364.000000	0.000000	153.000000	54.000000	0.000000	0.000000
0.860000	90.500000	43.470000	371.000000	0.000000	154.000000	55.000000	0.000000	0.000000
0.870000	90.430000	43.190000	364.000000	0.000000	154.000000	55.000000	-7.000000	-28.000000
0.880000	90.300000	42.820000	364.000000	0.000000	154.000000	55.000000	-13.000000	-37.000000
0.890000	90.180000	42.510000	364.000000	0.000000	154.000000	55.000000	-12.000000	-31.000000
0.900000	90.100000	42.240000	368.000000	0.000000	154.000000	55.000000	-8.000000	-27.000000
0.910000	90.100000	42.010000	368.000000	0.000000	154.000000	55.000000	0.000000	-23.000000
0.920000	90.160000	41.920000	369.000000	0.000000	154.000000	55.000000	6.000000	-9.000000
0.930000	90.250000	41.920000	368.000000	0.000000	153.000000	55.000000	9.000000	0.000000
0.940000	90.400000	41.920000	368.000000	0.000000	153.000000	54.000000	15.000000	0.000000
0.950000	90.560000	42.060000	366.000000	0.000000	153.000000	54.000000	16.000000	14.000000
0.960000	90.760000	42.250000	368.000000	0.000000	153.000000	54.000000	20.000000	19.000000
0.970000	91.010000	42.480000	364.000000	0.000000	153.000000	54.000000	25.000000	23.000000
0.980000	91.170000	42.750000	366.000000	0.000000	153.000000	55.000000	16.000000	27.000000
0.990000	91.280000	43.030000	364.000000	0.000000	154.000000	55.000000	11.000000	28.000000
1.000000	91.380000	43.330000	363.000000	0.000000	154.000000	55.000000	10.000000	30.000000
1.010000	91.380000	43.480000	364.000000	0.000000	154.000000	55.000000	0.000000	15.000000
1.020000	91.380000	43.480000	364.000000	0.000000	155.000000	55.000000	0.000000	0.000000
1.030000	91.380000	43.400000	369.000000	0.000000	155.000000	55.000000	0.000000	-8.000000
1.040000	91.380000	43.180000	368.000000	0.000000	155.000000	55.000000	0.000000	-22.000000
1.050000	91.280000	42.910000	371.000000	0.000000	155.000000	55.000000	-10.000000	-27.000000
1.060000	91.200000	42.570000	366.000000	0.000000	155.000000	55.000000	-8.000000	-34.000000
1.070000	91.200000	42.260000	371.000000	0.000000	155.000000	55.000000	0.000000	-31.000000
1.080000	91.200000	42.030000	374.000000	0.000000	155.000000	55.000000	0.000000	-23.000000
1.090000	91.320000	41.850000	377.000000	0.000000	155.000000	55.000000	12.000000	-18.000000
1.100000	91.430000	41.770000	386.000000	0.000000	156.000000	55.000000	11.000000	-8.000000
1.110000	91.570000	41.770000	382.000000	0.000000	155.000000	54.000000	14.000000	0.000000
1.120000	91.780000	41.880000	381.000000	0.000000	155.000000	54.000000	21.000000	11.000000
1.130000	92.020000	42.130000	376.000000	0.000000	155.000000	54.000000	24.000000	25.000000
1.140000	92.280000	42.420000	362.000000	0.000000	155.000000	54.000000	26.000000	29.000000
1.150000	92.450000	42.730000	334.000000	0.000000	154.000000	55.000000	17.000000	31.000000
1.160000	92.560000	43.030000	339.000000	0.000000	153.000000	55.000000	11.000000	30.000000
1.170000	92.610000	43.290000	334.000000	0.000000	153.000000	55.000000	5.000000	26.000000
1.180000	92.610000	43.470000	339.000000	0.000000	154.000000	55.000000	0.000000	18.000000
1.190000	92.480000	43.550000	344.000000	0.000000	154.000000	55.000000	-13.000000	8.000000
1.200000	92.340000	43.480000	345.000000	0.000000	154.000000	55.000000	-14.000000	-7.000000
1.210000	92.200000	43.330000	344.000000	0.000000	154.000000	55.000000	-14.000000	-15.000000
1.220000	92.060000	43.030000	333.000000	0.000000	154.000000	55.000000	-14.000000	-30.000000
1.230000	91.910000	42.730000	334.000000	0.000000	155.000000	55.000000	-15.000000	-30.000000
1.240000	91.860000	42.420000	339.000000	0.000000	155.000000	55.000000	-5.000000	-31.000000
1.250000	91.860000	42.110000	349.000000	0.000000	155.000000	55.000000	0.000000	-31.000000
1.260000	91.990000	41.880000	341.000000	0.000000	155.000000	55.000000	13.000000	-23.000000
1.270000	92.100000	41.700000	341.000000	0.000000	154.000000	55.000000	11.000000	-18.000000
1.280000	92.270000	41.700000	351.000000	0.000000	154.000000	55.000000	17.000000	0.000000
1.290000	92.490000	41.700000	346.000000	0.000000	154.000000	55.000000	22.000000	0.000000
1.300000	92.750000	41.860000	353.000000	0.000000	153.000000	54.000000	26.000000	16.000000
1.310000	93.010000	42.100000	353.000000	0.000000	153.000000	54.000000	26.000000	24.000000
1.320000	93.210000	42.340000	351.000000	0.000000	153.000000	55.000000	20.000000	24.000000
1.330000	93.370000	42.610000	351.000000	0.000000	153.000000	55.000000	16.000000	27.000000
1.340000	93.440000	42.910000	353.000000	0.000000	153.000000	55.000000	7.000000	30.000000
1.350000	93.510000	43.170000	354.000000	0.000000	153.000000	55.000000	7.000000	26.000000
1.360000	93.510000	43.410000	358.000000	0.000000	153.000000	55.000000	0.000000	24.000000
1.370000	93.510000	43.590000	361.000000	0.000000	153.000000	55.000000	0.000000	18.000000
1.380000	93.510000	43.690000	361.000000	0.000000	154.000000	55.000000	0.000000	10.000000
1.390000	93.510000	43.690000	364.000000	0.000000	154.000000	55.000000	0.000000	0.000000
1.400000	93.510000	43.620000	369.000000	0.000000	154.000000	55.000000	0.000000	-7.000000
1.410000	93.510000	43.420000	371.000000	0.000000	155.000000	55.000000	0.000000	-20.000000
1.420000	93.510000	43.170000	371.000000	0.000000	155.000000	55.000000	0.000000	-25.000000
1.430000	93.510000	42.860000	371.000000	0.000000	155.000000	55.000000	0.000000	-31.000000
1.440000	93.410000	42.560000	369.000000	0.000000	155.000000	55.000000	-10.000000	-30.000000
1.450000	93.410000	42.300000	369.000000	0.000000	155.000000	55.000000	0.000000	-26.000000
1.460000	93.490000	42.030000	371.000000	0.000000	154.000000	55.000000	8.000000	-27.000000
1.470000	93.560000	41.800000	361.000000	0.000000	154.000000	55.000000	7.000000	-23.000000
1.480000	93.610000	41.690000	364.000000	0.000000	153.000000	55.000000	5.000000	-11.000000
1.490000	93.660000	41.690000	367.000000	0.000000	153.000000	55.000000	5.000000	0.000000
1.500000	93.660000	41.690000	379.000000	0.000000	153.000000	55.000000	0.000000	0.000000
1.510000	93.720000	41.760000	377.000000	0.000000	151.000000	54.000000	6.000000	7.000000
1.520000	93.810000	41.900000	382.000000	0.000000	151.000000	54.000000	9.000000	14.000000
1.530000	93.930000	42.140000	377.000000	0.000000	151.000000	54.000000	12.000000	24.000000
1.540000	94.060000	42.420000	376.000000	0.000000	151.000000	54.000000	13.000000	28.000000
1.550000	94.190000	42.740000	377.000000	0.000000	151.000000	54.000000	13.000000	32.000000
1.560000	94.310000	42.950000	377.000000	0.000000	151.000000	54.000000	12.000000	21.000000
1.570000	94.310000	43.140000	374.000000	0.000000	153.000000	55.000000	0.000000	19.000000
1.580000	94.310000	43.300000	362.000000	0.000000	153.000000	55.000000	0.000000	16.000000
1.590000	94.310000	43.440000	373.000000	0.000000	153.000000	55.000000	0.000000	14.000000
1.600000	94.310000	43.550000	371.000000	0.000000	153.000000	55.000000	0.000000	11.000000
1.610000	94.310000	43.550000	363.000000	0.000000	154.000000	55.000000	0.000000	0.000000
1.620000	94.310000	43.550000	349.000000	0.000000	154.000000	55.000000	0.000000	0.000000
1.630000	94.310000	43.550000	349.000000	0.000000	154.000000	55.000000	0.000000	0.000000
1.640000	94.410000	43.420000	348.000000	0.000000	154.000000	55.000000	10.000000	-13.000000
1.650000	94.520000	43.210000	349.000000	0.000000	154.000000	55.000000	11.000000	-21.000000
1.660000	94.660000	42.950000	349.000000	0.000000	154.000000	55.000000	14.000000	-26.000000
1.670000	94.780000	42.680000	351.000000	0.000000	154.000000	55.000000	12.000000	-27.000000
1.680000	94.900000	42.410000	351.000000	0.000000	154.000000	55.000000	12.000000	-27.000000
1.690000	94.970000	42.160000	354.000000	0.000000	154.000000	55.000000	7.000000	-25.000000
1.700000	94.970000	41.920000	354.000000	0.000000	153.000000	55.000000	0.000000	-24.000000
1.710000	94.970000	41.760000	354.000000	0.000000	153.000000	55.000000	0.000000	-16.000000
1.720000	94.910000	41.640000	310.000000	0.000000	153.000000	55.000000	-6.000000	-12.000000
1.730000	94.820000	41.540000	244.000000	0.000000	153.000000	55.000000	-9.000000	-10.000000
1.740000	94.740000	41.540000	129.000000	0.000000	151.000000	54.000000	-8.000000	0.000000
1.750000	94.740000	41.540000	0.000000	1.000000	151.000000	54.000000	0.000000	0.000000
1.760000	94.680000	41.660000	0.000000	0.000000	151.000000	54.000000	-6.000000	12.000000
1.770000	94.740000	41.820000	0.000000	0.000000	151.000000	54.000000	6.000000	16.000000
1.780000	94.870000	42.050000	0.000000	0.000000	151.000000	54.000000	13.000000	23.000000
1.790000	95.100000	42.340000	0.000000	0.000000	151.000000	54.000000	23.000000	29.000000
1.800000	95.390000	42.640000	0.000000	0.000000	153.000000	55.000000	29.000000	30.000000
1.810000	95.720000	42.880000	0.000000	0.000000	153.000000	55.000000	33.000000	24.000000
1.820000	95.720000	42.880000	34.000000	1.000000	153.000000	55.000000	0.000000	0.000000
1.830000	96.170000	43.110000	58.000000	0.000000	153.000000	55.000000	45.000000	23.000000
1.840000	96.170000	43.160000	110.000000	0.000000	152.000000	56.000000	0.000000	5.000000
1.850000	96.170000	43.160000	188.000000	0.000000	152.000000	56.000000	0.000000	0.000000
1.860000	96.170000	43.160000	237.000000	0.000000	152.000000	56.000000	0.000000	0.000000
1.870000	95.910000	43.160000	277.000000	0.000000	153.000000	56.000000	-26.000000	0.000000
1.880000	95.690000	43.010000	299.000000	0.000000	153.000000	56.000000	-22.000000	-15.000000
1.890000	95.480000	42.810000	314.000000	0.000000	153.000000	56.000000	-21.000000	-20.000000
1.900000	95.270000	42.550000	305.000000	0.000000	153.000000	56.000000	-21.000000	-26.000000
1.910000	95.160000	42.290000	309.000000	0.000000	152.000000	56.000000	-11.000000	-26.000000
1.920000	95.110000	42.010000	304.000000	0.000000	152.000000	56.000000	-5.000000	-28.000000
1.930000	95.110000	41.860000	297.000000	0.000000	152.000000	56.000000	0.000000	-15.000000
1.940000	95.320000	41.790000	284.000000	0.000000	152.000000	56.000000	21.000000	-7.000000
1.950000	95.580000	41.790000	250.000000	0.000000	153.000000	55.000000	26.000000	0.000000
1.960000	95.890000	41.930000	239.000000	0.000000	151.000000	54.000000	31.000000	14.000000
1.970000	96.230000	42.110000	240.000000	0.000000	151.000000	54.000000	34.000000	18.000000
1.980000	96.400000	42.220000	247.000000	0.000000	151.000000	54.000000	17.000000	11.000000
1.990000	96.450000	42.290000	249.000000	0.000000	150.000000	55.000000	5.000000	7.000000
2.000000	96.450000	42.290000	257.000000	0.000000	150.000000	55.000000	0.000000	0.000000
2.010000	96.390000	42.240000	257.000000	0.000000	152.000000	56.000000	-6.000000	-5.000000
2.020000	96.390000	42.240000	257.000000	0.000000	152.000000	56.000000	0.000000	0.000000
2.030000	96.390000	42.170000	235.000000	0.000000	152.000000	56.000000	0.000000	-7.000000
2.040000	96.490000	42.110000	156.000000	0.000000	152.000000	56.000000	10.000000	-6.000000
2.050000	96.490000	42.110000	0.000000	1.000000	152.000000	56.000000	0.000000	0.000000
2.060000	97.200000	42.130000	0.000000	0.000000	153.000000	56.000000	71.000000	2.000000
2.070000	97.850000	42.290000	0.000000	0.000000	153.000000	56.000000	65.000000	16.000000
2.080000	98.530000	42.600000	0.000000	0.000000	153.000000	56.000000	68.000000	31.000000
2.090000	99.280000	43.040000	0.000000	0.000000	154.000000	56.000000	75.000000	44.000000
2.100000	100.080000	43.570000	0.000000	0.000000	154.000000	56.000000	80.000000	53.000000
2.110000	100.950000	44.130000	0.000000	0.000000	156.000000	57.000000	87.000000	56.000000
2.120000	101.710000	44.680000	0.000000	0.000000	156.000000	57.000000	76.000000	55.000000
2.130000	102.410000	45.170000	0.000000	0.000000	156.000000	57.000000	70.000000	49.000000
2.140000	102.880000	45.600000	0.000000	0.000000	155.000000	58.000000	47.000000	43.000000
2.150000	103.070000	45.940000	0.000000	0.000000	155.000000	58.000000	19.000000	34.000000
2.160000	103.070000	45.940000	130.000000	1.000000	155.000000	58.000000	0.000000	0.000000
2.170000	102.750000	46.270000	158.000000	0.000000	154.000000	58.000000	-32.000000	33.000000
2.180000	102.250000	46.270000	183.000000	0.000000	156.000000	59.000000	-50.000000	0.000000
2.190000	101.640000	46.070000	215.000000	0.000000	156.000000	59.000000	-61.000000	-20.000000
2.200000	100.930000	45.770000	245.000000	0.000000	157.000000	59.000000	-71.000000	-30.000000
2.210000	100.230000	45.320000	280.000000	0.000000	157.000000	59.000000	-70.000000	-45.000000
