t	x	y	pressure	penup	azimuth	inclination	v_x	v_y
0.000000	87.730000	14.680000	163.000000	1.000000	153.000000	51.000000	0.000000	0.000000
0.010000	87.730000	14.680000	226.000000	0.000000	152.000000	51.000000	0.000000	0.000000
0.020000	87.730000	14.680000	302.000000	0.000000	151.000000	51.000000	0.000000	0.000000
0.030000	87.730000	14.680000	324.000000	0.000000	150.000000	52.000000	0.000000	0.000000
0.040000	87.730000	14.680000	348.000000	0.000000	150.000000	52.000000	0.000000	0.000000
0.050000	87.730000	14.680000	397.000000	0.000000	149.000000	53.000000	0.000000	0.000000
0.060000	87.660000	14.350000	443.000000	0.000000	149.000000	53.000000	-7.000000	-33.000000
0.070000	87.590000	13.870000	481.000000	0.000000	148.000000	54.000000	-7.000000	-48.000000
0.080000	87.590000	13.270000	501.000000	0.000000	148.000000	54.000000	0.000000	-60.000000
0.090000	87.650000	12.630000	535.000000	0.000000	147.000000	55.000000	6.000000	-64.000000
0.100000	87.710000	11.920000	540.000000	0.000000	147.000000	55.000000	6.000000	-71.000000
0.110000	87.820000	11.240000	554.000000	0.000000	148.000000	56.000000	11.000000	-68.000000
0.120000	87.970000	10.760000	565.000000	0.000000	148.000000	56.000000	15.000000	-48.000000
0.130000	88.130000	10.410000	570.000000	0.000000	148.000000	56.000000	16.000000	-35.000000
0.140000	88.310000	10.120000	572.000000	0.000000	149.000000	56.000000	18.000000	-29.000000
0.150000	88.520000	9.990000	605.000000	0.000000	149.000000	56.000000	21.000000	-13.000000
0.160000	88.650000	9.990000	667.000000	0.000000	149.000000	56.000000	13.000000	0.000000
0.170000	88.720000	9.990000	737.000000	0.000000	151.000000	56.000000	7.000000	0.000000
0.180000	88.870000	10.290000	806.000000	0.000000	151.000000	56.000000	15.000000	30.000000
0.190000	89.050000	10.710000	860.000000	0.000000	151.000000	56.000000	18.000000	42.000000
0.200000	89.350000	11.470000	897.000000	0.000000	151.000000	56.000000	30.000000	76.000000
0.210000	89.710000	12.440000	914.000000	0.000000	151.000000	56.000000	36.000000	97.000000
0.220000	90.050000	13.550000	948.000000	0.000000	151.000000	56.000000	34.000000	111.000000
0.230000	90.350000	14.320000	974.000000	0.000000	151.000000	56.000000	30.000000	77.000000
0.240000	90.610000	14.890000	990.000000	0.000000	151.000000	56.000000	26.000000	57.000000
0.250000	90.900000	15.320000	1009.000000	0.000000	153.000000	56.000000	29.000000	43.000000
0.260000	91.210000	15.780000	1018.000000	0.000000	153.000000	56.000000	31.000000	46.000000
0.270000	91.560000	16.230000	1023.000000	0.000000	154.000000	55.000000	35.000000	45.000000
0.280000	91.900000	16.670000	1023.000000	0.000000	155.000000	54.000000	34.000000	44.000000
0.290000	92.180000	17.070000	1023.000000	0.000000	156.000000	53.000000	28.000000	40.000000
0.300000	92.410000	17.430000	1023.000000	0.000000	156.000000	53.000000	23.000000	36.000000
0.310000	92.690000	17.710000	1023.000000	0.000000	156.000000	53.000000	28.000000	28.000000
0.320000	92.840000	17.860000	1005.000000	0.000000	156.000000	53.000000	15.000000	15.000000
0.330000	92.900000	17.930000	950.000000	0.000000	154.000000	53.000000	6.000000	7.000000
0.340000	92.900000	17.930000	791.000000	0.000000	154.000000	53.000000	0.000000	0.000000
0.350000	92.900000	17.880000	630.000000	0.000000	153.000000	53.000000	0.000000	-5.000000
0.360000	92.900000	17.810000	297.000000	0.000000	152.000000	54.000000	0.000000	-7.000000
0.370000	92.900000	17.810000	0.000000	1.000000	152.000000	54.000000	0.000000	0.000000
0.380000	92.670000	17.280000	0.000000	0.000000	151.000000	53.000000	-23.000000	-53.000000
0.390000	92.380000	16.990000	0.000000	0.000000	151.000000	53.000000	-29.000000	-29.000000
0.400000	92.100000	16.700000	0.000000	0.000000	152.000000	53.000000	-28.000000	-29.000000
0.410000	91.860000	16.400000	0.000000	0.000000	153.000000	52.000000	-24.000000	-30.000000
0.420000	91.700000	15.940000	0.000000	0.000000	153.000000	51.000000	-16.000000	-46.000000
0.430000	91.560000	15.460000	0.000000	0.000000	154.000000	50.000000	-14.000000	-48.000000
0.440000	91.430000	14.940000	0.000000	0.000000	156.000000	48.000000	-13.000000	-52.000000
0.450000	91.320000	14.400000	0.000000	0.000000	157.000000	48.000000	-11.000000	-54.000000
0.460000	91.220000	13.820000	0.000000	0.000000	156.000000	46.000000	-10.000000	-58.000000
0.470000	91.130000	13.240000	0.000000	0.000000	156.000000	46.000000	-9.000000	-58.000000
0.480000	91.050000	12.660000	0.000000	0.000000	156.000000	45.000000	-8.000000	-58.000000
0.490000	90.990000	12.110000	0.000000	0.000000	154.000000	46.000000	-6.000000	-55.000000
0.500000	90.930000	11.650000	0.000000	0.000000	154.000000	46.000000	-6.000000	-46.000000
0.510000	90.930000	11.250000	0.000000	0.000000	153.000000	47.000000	0.000000	-40.000000
0.520000	90.870000	11.070000	0.000000	0.000000	153.000000	47.000000	-6.000000	-18.000000
0.530000	90.940000	10.960000	0.000000	0.000000	152.000000	48.000000	7.000000	-11.000000
0.540000	91.010000	10.910000	0.000000	0.000000	153.000000	49.000000	7.000000	-5.000000
0.550000	91.080000	10.910000	0.000000	0.000000	152.000000	49.000000	7.000000	0.000000
0.560000	91.180000	10.840000	0.000000	0.000000	151.000000	50.000000	10.000000	-7.000000
0.570000	91.290000	10.840000	0.000000	0.000000	151.000000	51.000000	11.000000	0.000000
0.580000	91.290000	10.840000	139.000000	1.000000	152.000000	53.000000	0.000000	0.000000
0.590000	91.290000	10.840000	214.000000	0.000000	152.000000	54.000000	0.000000	0.000000
0.600000	91.410000	11.230000	333.000000	0.000000	152.000000	54.000000	12.000000	39.000000
0.610000	91.460000	11.470000	422.000000	0.000000	153.000000	55.000000	5.000000	24.000000
0.620000	91.460000	11.720000	466.000000	0.000000	153.000000	55.000000	0.000000	25.000000
0.630000	91.530000	11.970000	522.000000	0.000000	153.000000	56.000000	7.000000	25.000000
0.640000	91.530000	12.160000	559.000000	0.000000	154.000000	56.000000	0.000000	19.000000
0.650000	91.530000	12.350000	602.000000	0.000000	154.000000	56.000000	0.000000	19.000000
0.660000	91.530000	12.510000	633.000000	0.000000	154.000000	56.000000	0.000000	16.000000
0.670000	91.530000	12.680000	638.000000	0.000000	154.000000	56.000000	0.000000	17.000000
0.680000	91.450000	12.890000	637.000000	0.000000	156.000000	57.000000	-8.000000	21.000000
0.690000	91.360000	13.120000	652.000000	0.000000	156.000000	57.000000	-9.000000	23.000000
0.700000	91.280000	13.230000	665.000000	0.000000	156.000000	57.000000	-8.000000	11.000000
0.710000	91.130000	13.290000	662.000000	0.000000	156.000000	57.000000	-15.000000	6.000000
0.720000	90.930000	13.290000	659.000000	0.000000	156.000000	57.000000	-20.000000	0.000000
0.730000	90.710000	13.110000	659.000000	0.000000	156.000000	57.000000	-22.000000	-18.000000
0.740000	90.490000	12.800000	662.000000	0.000000	156.000000	57.000000	-22.000000	-31.000000
0.750000	90.260000	12.380000	659.000000	0.000000	156.000000	57.000000	-23.000000	-42.000000
0.760000	90.160000	11.870000	653.000000	0.000000	156.000000	57.000000	-10.000000	-51.000000
0.770000	90.110000	11.430000	643.000000	0.000000	156.000000	57.000000	-5.000000	-44.000000
0.780000	90.160000	11.030000	636.000000	0.000000	154.000000	56.000000	5.000000	-40.000000
0.790000	90.280000	10.750000	634.000000	0.000000	154.000000	56.000000	12.000000	-28.000000
0.800000	90.460000	10.590000	639.000000	0.000000	154.000000	57.000000	18.000000	-16.000000
0.810000	90.700000	10.520000	638.000000	0.000000	154.000000	57.000000	24.000000	-7.000000
0.820000	90.930000	10.520000	641.000000	0.000000	154.000000	57.000000	23.000000	0.000000
0.830000	91.150000	10.710000	658.000000	0.000000	154.000000	57.000000	22.000000	19.000000
0.840000	91.400000	10.960000	670.000000	0.000000	154.000000	57.000000	25.000000	25.000000
0.850000	91.630000	11.330000	667.000000	0.000000	154.000000	57.000000	23.000000	37.000000
0.860000	91.790000	11.760000	673.000000	0.000000	154.000000	56.000000	16.000000	43.000000
0.870000	91.910000	12.220000	688.000000	0.000000	154.000000	56.000000	12.000000	46.000000
0.880000	91.990000	12.480000	699.000000	0.000000	154.000000	56.000000	8.000000	26.000000
0.890000	91.990000	12.560000	703.000000	0.000000	154.000000	56.000000	0.000000	8.000000
0.900000	91.990000	12.560000	700.000000	0.000000	154.000000	56.000000	0.000000	0.000000
0.910000	91.990000	12.480000	696.000000	0.000000	154.000000	56.000000	0.000000	-8.000000
0.920000	91.990000	12.380000	699.000000	0.000000	154.000000	56.000000	0.000000	-10.000000
0.930000	91.990000	12.150000	702.000000	0.000000	154.000000	56.000000	0.000000	-23.000000
0.940000	91.990000	11.810000	707.000000	0.000000	154.000000	56.000000	0.000000	-34.000000
0.950000	92.100000	11.530000	705.000000	0.000000	154.000000	56.000000	11.000000	-28.000000
0.960000	92.240000	11.290000	707.000000	0.000000	154.000000	56.000000	14.000000	-24.000000
0.970000	92.450000	11.040000	710.000000	0.000000	154.000000	56.000000	21.000000	-25.000000
0.980000	92.710000	10.900000	719.000000	0.000000	154.000000	56.000000	26.000000	-14.000000
0.990000	92.900000	10.830000	719.000000	0.000000	154.000000	56.000000	19.000000	-7.000000
1.000000	93.070000	10.830000	703.000000	0.000000	154.000000	56.000000	17.000000	0.000000
1.010000	93.190000	10.830000	652.000000	0.000000	154.000000	56.000000	12.000000	0.000000
1.020000	93.290000	10.880000	450.000000	0.000000	154.000000	56.000000	10.000000	5.000000
1.030000	93.290000	10.880000	0.000000	1.000000	154.000000	56.000000	0.000000	0.000000
1.040000	93.410000	11.220000	0.000000	0.000000	154.000000	56.000000	12.000000	34.000000
1.050000	93.410000	11.560000	0.000000	0.000000	154.000000	56.000000	0.000000	34.000000
1.060000	93.220000	12.020000	0.000000	0.000000	154.000000	56.000000	-19.000000	46.000000
1.070000	93.110000	12.470000	0.000000	0.000000	155.000000	55.000000	-11.000000	45.000000
1.080000	93.110000	12.920000	0.000000	0.000000	155.000000	55.000000	0.000000	45.000000
1.090000	93.110000	13.250000	0.000000	0.000000	156.000000	55.000000	0.000000	33.000000
1.100000	93.110000	13.420000	0.000000	0.000000	156.000000	53.000000	0.000000	17.000000
1.110000	93.110000	13.490000	0.000000	0.000000	156.000000	53.000000	0.000000	7.000000
1.120000	93.110000	13.490000	0.000000	0.000000	156.000000	53.000000	0.000000	0.000000
1.130000	93.110000	13.490000	0.000000	0.000000	155.000000	52.000000	0.000000	0.000000
1.140000	93.110000	13.490000	195.000000	1.000000	155.000000	52.000000	0.000000	0.000000
1.150000	93.110000	13.490000	257.000000	0.000000	155.000000	52.000000	0.000000	0.000000
1.160000	93.110000	13.490000	339.000000	0.000000	156.000000	53.000000	0.000000	0.000000
1.170000	93.100000	13.150000	427.000000	0.000000	156.000000	53.000000	-1.000000	-34.000000
1.180000	93.180000	12.960000	480.000000	0.000000	156.000000	53.000000	8.000000	-19.000000
1.190000	93.300000	12.630000	512.000000	0.000000	155.000000	54.000000	12.000000	-33.000000
1.200000	93.410000	12.220000	544.000000	0.000000	156.000000	55.000000	11.000000	-41.000000
1.210000	93.460000	11.730000	554.000000	0.000000	155.000000	55.000000	5.000000	-49.000000
1.220000	93.460000	11.340000	566.000000	0.000000	155.000000	55.000000	0.000000	-39.000000
1.230000	93.460000	11.030000	580.000000	0.000000	155.000000	55.000000	0.000000	-31.000000
1.240000	93.510000	10.940000	586.000000	0.000000	154.000000	56.000000	5.000000	-9.000000
1.250000	93.510000	10.940000	605.000000	0.000000	154.000000	56.000000	0.000000	0.000000
1.260000	93.510000	10.940000	630.000000	0.000000	154.000000	56.000000	0.000000	0.000000
1.270000	93.590000	11.010000	637.000000	0.000000	154.000000	56.000000	8.000000	7.000000
1.280000	93.660000	11.250000	644.000000	0.000000	154.000000	56.000000	7.000000	24.000000
1.290000	93.790000	11.590000	647.000000	0.000000	154.000000	56.000000	13.000000	34.000000
1.300000	93.970000	11.990000	650.000000	0.000000	154.000000	56.000000	18.000000	40.000000
1.310000	94.060000	12.270000	655.000000	0.000000	154.000000	56.000000	9.000000	28.000000
1.320000	94.060000	12.380000	655.000000	0.000000	154.000000	56.000000	0.000000	11.000000
1.330000	94.060000	12.440000	653.000000	0.000000	154.000000	56.000000	0.000000	6.000000
1.340000	94.060000	12.440000	647.000000	0.000000	154.000000	56.000000	0.000000	0.000000
1.350000	94.120000	12.440000	638.000000	0.000000	154.000000	56.000000	6.000000	0.000000
1.360000	94.120000	12.390000	637.000000	0.000000	154.000000	56.000000	0.000000	-5.000000
1.370000	94.180000	12.210000	638.000000	0.000000	154.000000	56.000000	6.000000	-18.000000
1.380000	94.230000	11.940000	640.000000	0.000000	155.000000	55.000000	5.000000	-27.000000
1.390000	94.290000	11.640000	640.000000	0.000000	153.000000	56.000000	6.000000	-30.000000
1.400000	94.380000	11.360000	637.000000	0.000000	153.000000	56.000000	9.000000	-28.000000
1.410000	94.520000	11.200000	647.000000	0.000000	152.000000	56.000000	14.000000	-16.000000
1.420000	94.660000	11.110000	636.000000	0.000000	152.000000	56.000000	14.000000	-9.000000
1.430000	94.780000	11.060000	637.000000	0.000000	152.000000	56.000000	12.000000	-5.000000
1.440000	95.000000	11.060000	647.000000	0.000000	150.000000	55.000000	22.000000	0.000000
1.450000	95.220000	11.190000	662.000000	0.000000	150.000000	55.000000	22.000000	13.000000
1.460000	95.450000	11.330000	670.000000	0.000000	150.000000	55.000000	23.000000	14.000000
1.470000	95.680000	11.620000	664.000000	0.000000	150.000000	55.000000	23.000000	29.000000
1.480000	95.930000	12.010000	666.000000	0.000000	150.000000	55.000000	25.000000	39.000000
1.490000	96.100000	12.390000	681.000000	0.000000	150.000000	55.000000	17.000000	38.000000
1.500000	96.230000	12.760000	682.000000	0.000000	151.000000	54.000000	13.000000	37.000000
1.510000	96.230000	13.080000	690.000000	0.000000	151.000000	54.000000	0.000000	32.000000
1.520000	96.160000	13.390000	690.000000	0.000000	151.000000	54.000000	-7.000000	31.000000
1.530000	96.090000	13.510000	702.000000	0.000000	152.000000	54.000000	-7.000000	12.000000
1.540000	95.980000	13.510000	702.000000	0.000000	152.000000	54.000000	-11.000000	0.000000
1.550000	95.820000	13.410000	699.000000	0.000000	152.000000	54.000000	-16.000000	-10.000000
1.560000	95.620000	13.270000	693.000000	0.000000	152.000000	54.000000	-20.000000	-14.000000
1.570000	95.360000	13.030000	688.000000	0.000000	152.000000	54.000000	-26.000000	-24.000000
1.580000	95.130000	12.680000	688.000000	0.000000	152.000000	54.000000	-23.000000	-35.000000
1.590000	94.960000	12.270000	684.000000	0.000000	151.000000	53.000000	-17.000000	-41.000000
1.600000	94.850000	11.910000	684.000000	0.000000	150.000000	54.000000	-11.000000	-36.000000
1.610000	94.850000	11.600000	685.000000	0.000000	150.000000	54.000000	0.000000	-31.000000
1.620000	94.850000	11.330000	687.000000	0.000000	150.000000	54.000000	0.000000	-27.000000
1.630000	94.980000	11.140000	685.000000	0.000000	150.000000	54.000000	13.000000	-19.000000
1.640000	95.070000	11.050000	688.000000	0.000000	151.000000	54.000000	9.000000	-9.000000
1.650000	95.320000	11.050000	694.000000	0.000000	151.000000	54.000000	25.000000	0.000000
1.660000	95.570000	11.050000	696.000000	0.000000	151.000000	54.000000	25.000000	0.000000
1.670000	95.780000	11.050000	711.000000	0.000000	151.000000	54.000000	21.000000	0.000000
1.680000	95.950000	11.100000	730.000000	0.000000	151.000000	54.000000	17.000000	5.000000
1.690000	96.200000	11.220000	734.000000	0.000000	151.000000	54.000000	25.000000	12.000000
1.700000	96.440000	11.430000	763.000000	0.000000	153.000000	55.000000	24.000000	21.000000
1.710000	96.680000	11.700000	760.000000	0.000000	153.000000	55.000000	24.000000	27.000000
1.720000	96.850000	11.990000	765.000000	0.000000	153.000000	55.000000	17.000000	29.000000
1.730000	97.020000	12.380000	771.000000	0.000000	153.000000	55.000000	17.000000	39.000000
1.740000	97.180000	12.840000	773.000000	0.000000	153.000000	55.000000	16.000000	46.000000
1.750000	97.250000	13.310000	780.000000	0.000000	153.000000	54.000000	7.000000	47.000000
1.760000	97.250000	13.720000	790.000000	0.000000	153.000000	54.000000	0.000000	41.000000
1.770000	97.250000	14.080000	797.000000	0.000000	153.000000	54.000000	0.000000	36.000000
1.780000	97.250000	14.080000	826.000000	0.000000	153.000000	54.000000	0.000000	0.000000
1.790000	97.250000	14.080000	821.000000	0.000000	154.000000	53.000000	0.000000	0.000000
1.800000	97.250000	14.080000	817.000000	0.000000	154.000000	53.000000	0.000000	0.000000
1.810000	97.250000	14.080000	815.000000	0.000000	154.000000	53.000000	0.000000	0.000000
1.820000	97.250000	14.080000	818.000000	0.000000	154.000000	53.000000	0.000000	0.000000
1.830000	97.250000	14.080000	817.000000	0.000000	154.000000	53.000000	0.000000	0.000000
1.840000	97.180000	13.630000	815.000000	0.000000	154.000000	53.000000	-7.000000	-45.000000
1.850000	97.180000	13.350000	814.000000	0.000000	154.000000	53.000000	0.000000	-28.000000
1.860000	97.250000	13.070000	814.000000	0.000000	154.000000	53.000000	7.000000	-28.000000
1.870000	97.330000	12.760000	817.000000	0.000000	154.000000	53.000000	8.000000	-31.000000
1.880000	97.400000	12.410000	817.000000	0.000000	154.000000	53.000000	7.000000	-35.000000
1.890000	97.470000	12.040000	821.000000	0.000000	153.000000	54.000000	7.000000	-37.000000
1.900000	97.470000	11.670000	820.000000	0.000000	153.000000	54.000000	0.000000	-37.000000
1.910000	97.410000	11.430000	823.000000	0.000000	155.000000	54.000000	-6.000000	-24.000000
1.920000	97.310000	11.280000	821.000000	0.000000	155.000000	54.000000	-10.000000	-15.000000
1.930000	97.180000	11.150000	824.000000	0.000000	155.000000	54.000000	-13.000000	-13.000000
1.940000	97.040000	11.100000	826.000000	0.000000	155.000000	54.000000	-14.000000	-5.000000
1.950000	96.920000	11.100000	826.000000	0.000000	155.000000	54.000000	-12.000000	0.000000
1.960000	96.800000	11.100000	826.000000	0.000000	155.000000	54.000000	-12.000000	0.000000
1.970000	96.700000	11.100000	826.000000	0.000000	155.000000	54.000000	-10.000000	0.000000
1.980000	96.700000	11.100000	818.000000	0.000000	155.000000	54.000000	0.000000	0.000000
1.990000	96.700000	11.100000	802.000000	0.000000	155.000000	54.000000	0.000000	0.000000
2.000000	96.700000	11.100000	787.000000	0.000000	155.000000	54.000000	0.000000	0.000000
2.010000	96.700000	11.100000	796.000000	0.000000	155.000000	54.000000	0.000000	0.000000
2.020000	96.780000	11.100000	797.000000	0.000000	153.000000	54.000000	8.000000	0.000000
2.030000	97.010000	11.100000	797.000000	0.000000	155.000000	54.000000	23.000000	0.000000
2.040000	97.280000	11.250000	783.000000	0.000000	155.000000	54.000000	27.000000	15.000000
2.050000	97.570000	11.460000	784.000000	0.000000	155.000000	54.000000	29.000000	21.000000
2.060000	97.860000	11.670000	784.000000	0.000000	155.000000	54.000000	29.000000	21.000000
2.070000	98.180000	11.950000	790.000000	0.000000	155.000000	54.000000	32.000000	28.000000
2.080000	98.490000	12.280000	799.000000	0.000000	156.000000	55.000000	31.000000	33.000000
2.090000	98.790000	12.660000	808.000000	0.000000	156.000000	55.000000	30.000000	38.000000
2.100000	99.000000	13.110000	808.000000	0.000000	157.000000	54.000000	21.000000	45.000000
2.110000	99.160000	13.610000	815.000000	0.000000	157.000000	54.000000	16.000000	50.000000
2.120000	99.290000	14.190000	823.000000	0.000000	158.000000	54.000000	13.000000	58.000000
2.130000	99.350000	14.770000	819.000000	0.000000	159.000000	53.000000	6.000000	58.000000
2.140000	99.350000	15.030000	834.000000	0.000000	159.000000	53.000000	0.000000	26.000000
2.150000	99.240000	15.080000	833.000000	0.000000	160.000000	52.000000	-11.000000	5.000000
2.160000	99.090000	15.080000	836.000000	0.000000	160.000000	52.000000	-15.000000	0.000000
2.170000	98.930000	14.970000	831.000000	0.000000	160.000000	52.000000	-16.000000	-11.000000
2.180000	98.930000	14.840000	833.000000	0.000000	160.000000	51.000000	0.000000	-13.000000
2.190000	98.850000	14.690000	836.000000	0.000000	160.000000	51.000000	-8.000000	-15.000000
2.200000	98.780000	14.370000	837.000000	0.000000	160.000000	51.000000	-7.000000	-32.000000
2.210000	98.780000	14.050000	842.000000	0.000000	160.000000	51.000000	0.000000	-32.000000
