t	x	y	pressure	penup	azimuth	inclination	v_x	v_y
0.000000	11.410000	31.990000	88.000000	1.000000	144.000000	54.000000	0.000000	0.000000
0.010000	11.110000	32.170000	139.000000	0.000000	144.000000	54.000000	-30.000000	18.000000
0.020000	11.020000	32.170000	176.000000	0.000000	142.000000	54.000000	-9.000000	0.000000
0.030000	11.020000	31.820000	216.000000	0.000000	142.000000	54.000000	0.000000	-35.000000
0.040000	11.070000	31.230000	289.000000	0.000000	143.000000	53.000000	5.000000	-59.000000
0.050000	11.180000	30.470000	363.000000	0.000000	142.000000	53.000000	11.000000	-76.000000
0.060000	11.180000	29.320000	425.000000	0.000000	142.000000	53.000000	0.000000	-115.000000
0.070000	11.180000	28.130000	490.000000	0.000000	142.000000	53.000000	0.000000	-119.000000
0.080000	11.180000	26.920000	512.000000	0.000000	141.000000	53.000000	0.000000	-121.000000
0.090000	11.420000	26.360000	538.000000	0.000000	141.000000	53.000000	24.000000	-56.000000
0.100000	11.740000	26.180000	550.000000	0.000000	142.000000	54.000000	32.000000	-18.000000
0.110000	11.980000	26.260000	568.000000	0.000000	141.000000	55.000000	24.000000	8.000000
0.120000	12.420000	26.930000	578.000000	0.000000	143.000000	55.000000	44.000000	67.000000
0.130000	12.990000	28.090000	581.000000	0.000000	144.000000	56.000000	57.000000	116.000000
0.140000	13.470000	29.570000	589.000000	0.000000	144.000000	56.000000	48.000000	148.000000
0.150000	13.940000	30.960000	602.000000	0.000000	145.000000	56.000000	47.000000	139.000000
0.160000	14.410000	32.300000	611.000000	0.000000	145.000000	56.000000	47.000000	134.000000
0.170000	14.900000	33.270000	616.000000	0.000000	147.000000	56.000000	49.000000	97.000000
0.180000	15.230000	34.000000	617.000000	0.000000	149.000000	56.000000	33.000000	73.000000
0.190000	15.440000	34.280000	614.000000	0.000000	151.000000	56.000000	21.000000	28.000000
0.200000	15.440000	34.350000	620.000000	0.000000	152.000000	56.000000	0.000000	7.000000
0.210000	15.520000	34.280000	595.000000	0.000000	153.000000	56.000000	8.000000	-7.000000
0.220000	15.520000	34.200000	522.000000	0.000000	154.000000	55.000000	0.000000	-8.000000
0.230000	15.520000	34.080000	334.000000	0.000000	155.000000	55.000000	0.000000	-12.000000
0.240000	15.520000	34.080000	0.000000	1.000000	155.000000	55.000000	0.000000	0.000000
0.250000	15.520000	33.730000	0.000000	0.000000	156.000000	55.000000	0.000000	-35.000000
0.260000	15.520000	33.560000	0.000000	0.000000	156.000000	55.000000	0.000000	-17.000000
0.270000	15.450000	33.360000	0.000000	0.000000	156.000000	55.000000	-7.000000	-20.000000
0.280000	15.350000	33.000000	0.000000	0.000000	156.000000	55.000000	-10.000000	-36.000000
0.290000	15.250000	32.530000	0.000000	0.000000	155.000000	54.000000	-10.000000	-47.000000
0.300000	15.100000	32.040000	0.000000	0.000000	155.000000	54.000000	-15.000000	-49.000000
0.310000	14.920000	31.530000	0.000000	0.000000	155.000000	54.000000	-18.000000	-51.000000
0.320000	14.800000	31.000000	0.000000	0.000000	155.000000	54.000000	-12.000000	-53.000000
0.330000	14.700000	30.490000	0.000000	0.000000	153.000000	55.000000	-10.000000	-51.000000
0.340000	14.650000	29.990000	0.000000	0.000000	154.000000	55.000000	-5.000000	-50.000000
0.350000	14.650000	29.460000	0.000000	0.000000	154.000000	55.000000	0.000000	-53.000000
0.360000	14.570000	28.920000	0.000000	0.000000	153.000000	56.000000	-8.000000	-54.000000
0.370000	14.510000	28.420000	0.000000	0.000000	152.000000	57.000000	-6.000000	-50.000000
0.380000	14.440000	27.950000	0.000000	0.000000	151.000000	58.000000	-7.000000	-47.000000
0.390000	14.390000	27.460000	0.000000	0.000000	151.000000	58.000000	-5.000000	-49.000000
0.400000	14.330000	27.110000	0.000000	0.000000	151.000000	58.000000	-6.000000	-35.000000
0.410000	14.260000	26.860000	0.000000	0.000000	151.000000	58.000000	-7.000000	-25.000000
0.420000	14.260000	26.720000	0.000000	0.000000	151.000000	58.000000	0.000000	-14.000000
0.430000	14.260000	26.720000	0.000000	0.000000	151.000000	58.000000	0.000000	0.000000
0.440000	14.260000	26.720000	0.000000	0.000000	151.000000	58.000000	0.000000	0.000000
0.450000	14.310000	26.720000	0.000000	0.000000	151.000000	58.000000	5.000000	0.000000
0.460000	14.360000	26.810000	0.000000	0.000000	151.000000	58.000000	5.000000	9.000000
0.470000	14.360000	26.870000	0.000000	0.000000	151.000000	58.000000	0.000000	6.000000
0.480000	14.360000	26.870000	0.000000	0.000000	152.000000	57.000000	0.000000	0.000000
0.490000	14.360000	26.870000	0.000000	0.000000	152.000000	57.000000	0.000000	0.000000
0.500000	14.360000	26.870000	0.000000	0.000000	152.000000	57.000000	0.000000	0.000000
0.510000	14.510000	27.170000	0.000000	0.000000	152.000000	57.000000	15.000000	30.000000
0.520000	14.560000	27.310000	0.000000	0.000000	152.000000	57.000000	5.000000	14.000000
0.530000	14.560000	27.390000	0.000000	0.000000	153.000000	56.000000	0.000000	8.000000
0.540000	14.620000	27.470000	0.000000	0.000000	153.000000	56.000000	6.000000	8.000000
0.550000	14.620000	27.570000	0.000000	0.000000	153.000000	56.000000	0.000000	10.000000
0.560000	14.620000	27.640000	0.000000	0.000000	154.000000	56.000000	0.000000	7.000000
0.570000	14.620000	27.640000	20.000000	1.000000	154.000000	57.000000	0.000000	0.000000
0.580000	14.620000	27.640000	93.000000	0.000000	155.000000	58.000000	0.000000	0.000000
0.590000	14.620000	27.890000	200.000000	0.000000	155.000000	58.000000	0.000000	25.000000
0.600000	14.620000	28.020000	282.000000	0.000000	157.000000	58.000000	0.000000	13.000000
0.610000	14.620000	28.150000	346.000000	0.000000	157.000000	58.000000	0.000000	13.000000
0.620000	14.500000	28.270000	410.000000	0.000000	158.000000	58.000000	-12.000000	12.000000
0.630000	14.340000	28.370000	449.000000	0.000000	158.000000	58.000000	-16.000000	10.000000
0.640000	14.150000	28.420000	466.000000	0.000000	159.000000	57.000000	-19.000000	5.000000
0.650000	13.970000	28.350000	478.000000	0.000000	157.000000	57.000000	-18.000000	-7.000000
0.660000	13.800000	28.200000	485.000000	0.000000	156.000000	57.000000	-17.000000	-15.000000
0.670000	13.660000	27.990000	493.000000	0.000000	157.000000	56.000000	-14.000000	-21.000000
0.680000	13.570000	27.740000	497.000000	0.000000	155.000000	55.000000	-9.000000	-25.000000
0.690000	13.570000	27.440000	502.000000	0.000000	155.000000	55.000000	0.000000	-30.000000
0.700000	13.660000	27.240000	512.000000	0.000000	154.000000	55.000000	9.000000	-20.000000
0.710000	13.810000	27.090000	519.000000	0.000000	154.000000	55.000000	15.000000	-15.000000
0.720000	14.030000	27.040000	546.000000	0.000000	154.000000	55.000000	22.000000	-5.000000
0.730000	14.320000	27.150000	556.000000	0.000000	155.000000	55.000000	29.000000	11.000000
0.740000	14.540000	27.370000	599.000000	0.000000	155.000000	55.000000	22.000000	22.000000
0.750000	14.700000	27.690000	633.000000	0.000000	155.000000	55.000000	16.000000	32.000000
0.760000	14.760000	28.020000	655.000000	0.000000	157.000000	56.000000	6.000000	33.000000
0.770000	14.760000	28.370000	671.000000	0.000000	158.000000	56.000000	0.000000	35.000000
0.780000	14.760000	28.640000	675.000000	0.000000	158.000000	56.000000	0.000000	27.000000
0.790000	14.700000	28.850000	684.000000	0.000000	160.000000	56.000000	-6.000000	21.000000
0.800000	14.700000	28.920000	682.000000	0.000000	160.000000	56.000000	0.000000	7.000000
0.810000	14.650000	28.920000	678.000000	0.000000	160.000000	56.000000	-5.000000	0.000000
0.820000	14.650000	28.850000	678.000000	0.000000	160.000000	56.000000	0.000000	-7.000000
0.830000	14.650000	28.730000	678.000000	0.000000	160.000000	56.000000	0.000000	-12.000000
0.840000	14.750000	28.530000	684.000000	0.000000	160.000000	55.000000	10.000000	-20.000000
0.850000	14.810000	28.280000	682.000000	0.000000	160.000000	55.000000	6.000000	-25.000000
0.860000	14.910000	28.040000	687.000000	0.000000	162.000000	56.000000	10.000000	-24.000000
0.870000	15.060000	27.910000	687.000000	0.000000	161.000000	57.000000	15.000000	-13.000000
0.880000	15.280000	27.840000	687.000000	0.000000	161.000000	57.000000	22.000000	-7.000000
0.890000	15.500000	27.940000	696.000000	0.000000	161.000000	57.000000	22.000000	10.000000
0.900000	15.720000	28.110000	702.000000	0.000000	161.000000	57.000000	22.000000	17.000000
0.910000	15.860000	28.340000	720.000000	0.000000	161.000000	57.000000	14.000000	23.000000
0.920000	15.940000	28.520000	727.000000	0.000000	161.000000	57.000000	8.000000	18.000000
0.930000	15.940000	28.730000	737.000000	0.000000	161.000000	57.000000	0.000000	21.000000
0.940000	15.990000	28.950000	757.000000	0.000000	161.000000	57.000000	5.000000	22.000000
0.950000	15.990000	28.950000	763.000000	0.000000	161.000000	57.000000	0.000000	0.000000
0.960000	15.990000	28.950000	758.000000	0.000000	161.000000	57.000000	0.000000	0.000000
0.970000	15.990000	28.950000	751.000000	0.000000	161.000000	57.000000	0.000000	0.000000
0.980000	15.990000	28.950000	745.000000	0.000000	163.000000	57.000000	0.000000	0.000000
0.990000	15.990000	28.830000	745.000000	0.000000	163.000000	57.000000	0.000000	-12.000000
1.000000	15.990000	28.670000	746.000000	0.000000	163.000000	57.000000	0.000000	-16.000000
1.010000	16.050000	28.480000	746.000000	0.000000	163.000000	57.000000	6.000000	-19.000000
1.020000	16.050000	28.280000	746.000000	0.000000	163.000000	57.000000	0.000000	-20.000000
1.030000	16.150000	28.170000	748.000000	0.000000	163.000000	57.000000	10.000000	-11.000000
1.040000	16.230000	28.120000	755.000000	0.000000	163.000000	57.000000	8.000000	-5.000000
1.050000	16.320000	28.120000	758.000000	0.000000	163.000000	57.000000	9.000000	0.000000
1.060000	16.430000	28.260000	760.000000	0.000000	161.000000	57.000000	11.000000	14.000000
1.070000	16.600000	28.450000	760.000000	0.000000	160.000000	56.000000	17.000000	19.000000
1.080000	16.760000	28.740000	761.000000	0.000000	158.000000	56.000000	16.000000	29.000000
1.090000	16.890000	28.880000	763.000000	0.000000	157.000000	56.000000	13.000000	14.000000
1.100000	16.890000	28.880000	763.000000	0.000000	155.000000	55.000000	0.000000	0.000000
1.110000	16.960000	28.880000	755.000000	0.000000	155.000000	54.000000	7.000000	0.000000
1.120000	16.960000	28.880000	752.000000	0.000000	153.000000	54.000000	0.000000	0.000000
1.130000	17.090000	28.730000	748.000000	0.000000	152.000000	54.000000	13.000000	-15.000000
1.140000	17.190000	28.550000	743.000000	0.000000	153.000000	53.000000	10.000000	-18.000000
1.150000	17.290000	28.380000	746.000000	0.000000	153.000000	53.000000	10.000000	-17.000000
1.160000	17.380000	28.220000	746.000000	0.000000	153.000000	53.000000	9.000000	-16.000000
1.170000	17.490000	28.080000	752.000000	0.000000	154.000000	53.000000	11.000000	-14.000000
1.180000	17.730000	28.000000	758.000000	0.000000	154.000000	53.000000	24.000000	-8.000000
1.190000	18.050000	27.950000	763.000000	0.000000	154.000000	53.000000	32.000000	-5.000000
1.200000	18.380000	28.140000	763.000000	0.000000	156.000000	53.000000	33.000000	19.000000
1.210000	18.680000	28.360000	750.000000	0.000000	156.000000	53.000000	30.000000	22.000000
1.220000	18.880000	28.590000	750.000000	0.000000	157.000000	54.000000	20.000000	23.000000
1.230000	19.030000	28.810000	753.000000	0.000000	157.000000	54.000000	15.000000	22.000000
1.240000	19.150000	29.010000	756.000000	0.000000	157.000000	54.000000	12.000000	20.000000
1.250000	19.270000	29.150000	768.000000	0.000000	158.000000	54.000000	12.000000	14.000000
1.260000	19.330000	29.230000	780.000000	0.000000	158.000000	54.000000	6.000000	8.000000
1.270000	19.330000	29.290000	788.000000	0.000000	158.000000	54.000000	0.000000	6.000000
1.280000	19.390000	29.360000	790.000000	0.000000	158.000000	54.000000	6.000000	7.000000
1.290000	19.390000	29.440000	788.000000	0.000000	160.000000	54.000000	0.000000	8.000000
1.300000	19.390000	29.490000	790.000000	0.000000	160.000000	54.000000	0.000000	5.000000
1.310000	19.390000	29.490000	793.000000	0.000000	160.000000	53.000000	0.000000	0.000000
1.320000	19.390000	29.490000	793.000000	0.000000	160.000000	53.000000	0.000000	0.000000
1.330000	19.390000	29.490000	791.000000	0.000000	160.000000	53.000000	0.000000	0.000000
1.340000	19.390000	29.490000	790.000000	0.000000	160.000000	53.000000	0.000000	0.000000
1.350000	19.390000	29.490000	790.000000	0.000000	160.000000	53.000000	0.000000	0.000000
1.360000	19.390000	29.490000	791.000000	0.000000	160.000000	53.000000	0.000000	0.000000
1.370000	19.390000	29.490000	790.000000	0.000000	159.000000	53.000000	0.000000	0.000000
1.380000	19.390000	29.490000	790.000000	0.000000	159.000000	53.000000	0.000000	0.000000
1.390000	19.390000	29.490000	788.000000	0.000000	159.000000	53.000000	0.000000	0.000000
1.400000	19.390000	29.490000	790.000000	0.000000	159.000000	53.000000	0.000000	0.000000
1.410000	19.320000	29.490000	787.000000	0.000000	159.000000	53.000000	-7.000000	0.000000
1.420000	19.320000	29.490000	788.000000	0.000000	159.000000	53.000000	0.000000	0.000000
1.430000	19.210000	29.420000	787.000000	0.000000	159.000000	53.000000	-11.000000	-7.000000
1.440000	19.160000	29.360000	790.000000	0.000000	159.000000	53.000000	-5.000000	-6.000000
1.450000	19.160000	29.290000	791.000000	0.000000	159.000000	53.000000	0.000000	-7.000000
1.460000	19.080000	29.190000	790.000000	0.000000	159.000000	53.000000	-8.000000	-10.000000
1.470000	19.080000	29.080000	790.000000	0.000000	159.000000	53.000000	0.000000	-11.000000
1.480000	18.990000	28.960000	787.000000	0.000000	159.000000	53.000000	-9.000000	-12.000000
1.490000	18.990000	28.770000	785.000000	0.000000	159.000000	53.000000	0.000000	-19.000000
1.500000	18.990000	28.550000	787.000000	0.000000	159.000000	53.000000	0.000000	-22.000000
1.510000	19.040000	28.320000	794.000000	0.000000	159.000000	53.000000	5.000000	-23.000000
1.520000	19.180000	28.100000	794.000000	0.000000	159.000000	53.000000	14.000000	-22.000000
1.530000	19.380000	28.000000	793.000000	0.000000	158.000000	54.000000	20.000000	-10.000000
1.540000	19.570000	28.000000	794.000000	0.000000	160.000000	54.000000	19.000000	0.000000
1.550000	19.750000	28.090000	797.000000	0.000000	160.000000	54.000000	18.000000	9.000000
1.560000	19.900000	28.270000	784.000000	0.000000	160.000000	54.000000	15.000000	18.000000
1.570000	20.090000	28.500000	788.000000	0.000000	160.000000	54.000000	19.000000	23.000000
1.580000	20.250000	28.730000	785.000000	0.000000	160.000000	54.000000	16.000000	23.000000
1.590000	20.360000	28.940000	787.000000	0.000000	161.000000	55.000000	11.000000	21.000000
1.600000	20.530000	29.100000	787.000000	0.000000	161.000000	55.000000	17.000000	16.000000
1.610000	20.530000	29.180000	788.000000	0.000000	161.000000	55.000000	0.000000	8.000000
1.620000	20.530000	29.180000	788.000000	0.000000	161.000000	55.000000	0.000000	0.000000
1.630000	20.530000	29.180000	788.000000	0.000000	163.000000	55.000000	0.000000	0.000000
1.640000	20.530000	29.180000	788.000000	0.000000	163.000000	54.000000	0.000000	0.000000
1.650000	20.530000	29.180000	788.000000	0.000000	163.000000	54.000000	0.000000	0.000000
1.660000	20.530000	29.180000	785.000000	0.000000	163.000000	54.000000	0.000000	0.000000
1.670000	20.530000	29.180000	796.000000	0.000000	163.000000	54.000000	0.000000	0.000000
1.680000	20.530000	29.180000	790.000000	0.000000	163.000000	54.000000	0.000000	0.000000
1.690000	20.530000	29.180000	790.000000	0.000000	163.000000	54.000000	0.000000	0.000000
1.700000	20.710000	29.060000	793.000000	0.000000	163.000000	54.000000	18.000000	-12.000000
1.710000	20.830000	28.960000	793.000000	0.000000	163.000000	54.000000	12.000000	-10.000000
1.720000	20.930000	28.850000	797.000000	0.000000	163.000000	54.000000	10.000000	-11.000000
1.730000	21.040000	28.720000	797.000000	0.000000	162.000000	54.000000	11.000000	-13.000000
1.740000	21.090000	28.600000	794.000000	0.000000	162.000000	54.000000	5.000000	-12.000000
1.750000	21.090000	28.510000	793.000000	0.000000	162.000000	54.000000	0.000000	-9.000000
1.760000	21.090000	28.440000	793.000000	0.000000	162.000000	54.000000	0.000000	-7.000000
1.770000	21.030000	28.440000	796.000000	0.000000	162.000000	54.000000	-6.000000	0.000000
1.780000	20.890000	28.440000	794.000000	0.000000	162.000000	54.000000	-14.000000	0.000000
1.790000	20.680000	28.390000	797.000000	0.000000	162.000000	54.000000	-21.000000	-5.000000
1.800000	20.540000	28.390000	797.000000	0.000000	162.000000	54.000000	-14.000000	0.000000
1.810000	20.430000	28.390000	794.000000	0.000000	162.000000	54.000000	-11.000000	0.000000
1.820000	20.430000	28.390000	794.000000	0.000000	162.000000	54.000000	0.000000	0.000000
1.830000	20.430000	28.390000	796.000000	0.000000	162.000000	54.000000	0.000000	0.000000
1.840000	20.430000	28.390000	796.000000	0.000000	162.000000	54.000000	0.000000	0.000000
1.850000	20.630000	28.390000	796.000000	0.000000	162.000000	54.000000	20.000000	0.000000
1.860000	20.910000	28.490000	796.000000	0.000000	162.000000	54.000000	28.000000	10.000000
1.870000	21.210000	28.640000	783.000000	0.000000	162.000000	54.000000	30.000000	15.000000
1.880000	21.520000	28.860000	785.000000	0.000000	162.000000	54.000000	31.000000	22.000000
1.890000	21.840000	29.140000	787.000000	0.000000	163.000000	54.000000	32.000000	28.000000
1.900000	22.180000	29.470000	790.000000	0.000000	163.000000	54.000000	34.000000	33.000000
1.910000	22.350000	29.670000	803.000000	0.000000	163.000000	54.000000	17.000000	20.000000
1.920000	22.400000	29.820000	821.000000	0.000000	164.000000	54.000000	5.000000	15.000000
1.930000	22.400000	29.880000	817.000000	0.000000	164.000000	54.000000	0.000000	6.000000
1.940000	22.400000	29.880000	818.000000	0.000000	166.000000	54.000000	0.000000	0.000000
1.950000	22.400000	29.880000	818.000000	0.000000	166.000000	54.000000	0.000000	0.000000
1.960000	22.400000	29.880000	818.000000	0.000000	166.000000	54.000000	0.000000	0.000000
1.970000	22.350000	29.880000	815.000000	0.000000	166.000000	53.000000	-5.000000	0.000000
1.980000	22.350000	29.880000	797.000000	0.000000	166.000000	53.000000	0.000000	0.000000
1.990000	22.400000	29.880000	787.000000	0.000000	166.000000	53.000000	5.000000	0.000000
2.000000	22.500000	29.770000	790.000000	0.000000	166.000000	53.000000	10.000000	-11.000000
2.010000	22.700000	29.630000	790.000000	0.000000	166.000000	53.000000	20.000000	-14.000000
2.020000	22.980000	29.510000	790.000000	0.000000	166.000000	53.000000	28.000000	-12.000000
2.030000	23.130000	29.410000	793.000000	0.000000	166.000000	53.000000	15.000000	-10.000000
2.040000	23.200000	29.270000	791.000000	0.000000	166.000000	54.000000	7.000000	-14.000000
2.050000	23.200000	29.120000	791.000000	0.000000	166.000000	54.000000	0.000000	-15.000000
2.060000	23.200000	29.020000	796.000000	0.000000	166.000000	54.000000	0.000000	-10.000000
2.070000	23.080000	28.960000	797.000000	0.000000	166.000000	54.000000	-12.000000	-6.000000
2.080000	22.910000	28.870000	802.000000	0.000000	166.000000	54.000000	-17.000000	-9.000000
2.090000	22.670000	28.780000	803.000000	0.000000	166.000000	54.000000	-24.000000	-9.000000
2.100000	22.370000	28.780000	806.000000	0.000000	166.000000	54.000000	-30.000000	0.000000
2.110000	22.300000	28.780000	808.000000	0.000000	166.000000	54.000000	-7.000000	0.000000
2.120000	22.300000	28.780000	803.000000	0.000000	166.000000	54.000000	0.000000	0.000000
2.130000	22.300000	28.780000	787.000000	0.000000	166.000000	54.000000	0.000000	0.000000
2.140000	22.300000	28.850000	696.000000	0.000000	166.000000	54.000000	0.000000	7.000000
2.150000	22.300000	28.850000	557.000000	0.000000	166.000000	54.000000	0.000000	0.000000
2.160000	22.300000	28.850000	351.000000	0.000000	166.000000	54.000000	0.000000	0.000000
2.170000	22.520000	28.850000	61.000000	0.000000	164.000000	54.000000	22.000000	0.000000
2.180000	22.520000	28.850000	0.000000	1.000000	164.000000	55.000000	0.000000	0.000000
2.190000	23.100000	29.120000	0.000000	0.000000	164.000000	55.000000	58.000000	27.000000
2.200000	23.370000	29.230000	0.000000	0.000000	163.000000	55.000000	27.000000	11.000000
2.210000	23.640000	29.350000	0.000000	0.000000	163.000000	55.000000	27.000000	12.000000
2.220000	23.640000	29.350000	109.000000	1.000000	163.000000	55.000000	0.000000	0.000000
