t	x	y	pressure	penup	azimuth	inclination	v_x	v_y
0.000000	48.710000	64.990000	8.000000	1.000000	136.000000	54.000000	0.000000	0.000000
0.010000	48.710000	64.990000	39.000000	1.000000	136.000000	54.000000	0.000000	0.000000
0.020000	48.710000	64.990000	51.000000	0.000000	136.000000	54.000000	0.000000	0.000000
0.030000	48.930000	64.560000	86.000000	0.000000	136.000000	54.000000	22.000000	-43.000000
0.040000	49.200000	63.830000	112.000000	0.000000	136.000000	54.000000	27.000000	-73.000000
0.050000	49.450000	62.760000	134.000000	0.000000	136.000000	54.000000	25.000000	-107.000000
0.060000	49.690000	61.690000	146.000000	0.000000	136.000000	54.000000	24.000000	-107.000000
0.070000	49.950000	60.640000	134.000000	0.000000	136.000000	54.000000	26.000000	-105.000000
0.080000	50.190000	59.930000	167.000000	0.000000	136.000000	54.000000	24.000000	-71.000000
0.090000	50.420000	59.420000	212.000000	0.000000	136.000000	54.000000	23.000000	-51.000000
0.100000	50.420000	59.420000	274.000000	0.000000	136.000000	54.000000	0.000000	0.000000
0.110000	50.880000	59.790000	301.000000	0.000000	136.000000	54.000000	46.000000	37.000000
0.120000	51.170000	60.570000	349.000000	0.000000	135.000000	54.000000	29.000000	78.000000
0.130000	51.560000	61.790000	371.000000	0.000000	134.000000	54.000000	39.000000	122.000000
0.140000	52.020000	63.390000	369.000000	0.000000	134.000000	54.000000	46.000000	160.000000
0.150000	52.520000	65.240000	373.000000	0.000000	134.000000	54.000000	50.000000	185.000000
0.160000	52.990000	66.950000	364.000000	0.000000	133.000000	53.000000	47.000000	171.000000
0.170000	53.220000	67.930000	362.000000	0.000000	133.000000	53.000000	23.000000	98.000000
0.180000	53.300000	68.420000	366.000000	0.000000	134.000000	52.000000	8.000000	49.000000
0.190000	53.220000	68.510000	354.000000	0.000000	134.000000	52.000000	-8.000000	9.000000
0.200000	53.150000	68.510000	309.000000	0.000000	134.000000	51.000000	-7.000000	0.000000
0.210000	53.150000	68.510000	206.000000	0.000000	134.000000	51.000000	0.000000	0.000000
0.220000	53.150000	68.330000	58.000000	0.000000	134.000000	51.000000	0.000000	-18.000000
0.230000	53.150000	68.330000	0.000000	1.000000	135.000000	51.000000	0.000000	0.000000
0.240000	53.390000	67.490000	0.000000	0.000000	135.000000	51.000000	24.000000	-84.000000
0.250000	53.580000	67.090000	0.000000	0.000000	135.000000	51.000000	19.000000	-40.000000
0.260000	53.790000	66.700000	0.000000	0.000000	134.000000	51.000000	21.000000	-39.000000
0.270000	53.930000	66.290000	0.000000	0.000000	134.000000	51.000000	14.000000	-41.000000
0.280000	54.030000	65.600000	0.000000	0.000000	134.000000	51.000000	10.000000	-69.000000
0.290000	54.530000	64.730000	0.000000	0.000000	134.000000	51.000000	50.000000	-87.000000
0.300000	54.530000	63.740000	0.000000	0.000000	134.000000	51.000000	0.000000	-99.000000
0.310000	54.100000	62.730000	0.000000	0.000000	135.000000	51.000000	-43.000000	-101.000000
0.320000	53.960000	61.840000	0.000000	0.000000	134.000000	50.000000	-14.000000	-89.000000
0.330000	53.810000	61.030000	0.000000	0.000000	133.000000	51.000000	-15.000000	-81.000000
0.340000	53.640000	60.340000	0.000000	0.000000	133.000000	51.000000	-17.000000	-69.000000
0.350000	53.420000	59.830000	0.000000	0.000000	132.000000	50.000000	-22.000000	-51.000000
0.360000	53.230000	59.450000	0.000000	0.000000	130.000000	51.000000	-19.000000	-38.000000
0.370000	53.100000	59.300000	0.000000	0.000000	129.000000	51.000000	-13.000000	-15.000000
0.380000	52.990000	59.300000	0.000000	0.000000	128.000000	52.000000	-11.000000	0.000000
0.390000	52.910000	59.300000	0.000000	0.000000	127.000000	52.000000	-8.000000	0.000000
0.400000	52.910000	59.430000	0.000000	0.000000	127.000000	52.000000	0.000000	13.000000
0.410000	52.910000	59.520000	0.000000	0.000000	125.000000	53.000000	0.000000	9.000000
0.420000	52.910000	59.520000	0.000000	0.000000	125.000000	53.000000	0.000000	0.000000
0.430000	52.910000	59.520000	0.000000	0.000000	125.000000	53.000000	0.000000	0.000000
0.440000	52.910000	59.520000	0.000000	0.000000	125.000000	53.000000	0.000000	0.000000
0.450000	52.970000	59.770000	0.000000	0.000000	127.000000	52.000000	6.000000	25.000000
0.460000	53.070000	59.830000	0.000000	0.000000	127.000000	52.000000	10.000000	6.000000
0.470000	53.160000	59.990000	0.000000	0.000000	127.000000	52.000000	9.000000	16.000000
0.480000	53.270000	60.220000	0.000000	0.000000	128.000000	53.000000	11.000000	23.000000
0.490000	53.380000	60.470000	0.000000	0.000000	128.000000	53.000000	11.000000	25.000000
0.500000	53.460000	60.730000	0.000000	0.000000	128.000000	53.000000	8.000000	26.000000
0.510000	53.460000	60.730000	32.000000	1.000000	129.000000	52.000000	0.000000	0.000000
0.520000	53.380000	61.280000	89.000000	0.000000	129.000000	52.000000	-8.000000	55.000000
0.530000	53.330000	61.540000	127.000000	0.000000	129.000000	52.000000	-5.000000	26.000000
0.540000	53.190000	61.590000	148.000000	0.000000	130.000000	52.000000	-14.000000	5.000000
0.550000	53.000000	61.510000	170.000000	0.000000	130.000000	52.000000	-19.000000	-8.000000
0.560000	52.790000	61.190000	185.000000	0.000000	130.000000	52.000000	-21.000000	-32.000000
0.570000	52.580000	60.760000	190.000000	0.000000	132.000000	51.000000	-21.000000	-43.000000
0.580000	52.370000	60.260000	185.000000	0.000000	132.000000	51.000000	-21.000000	-50.000000
0.590000	52.370000	59.880000	171.000000	0.000000	130.000000	52.000000	0.000000	-38.000000
0.600000	52.490000	59.710000	182.000000	0.000000	130.000000	52.000000	12.000000	-17.000000
0.610000	52.710000	59.710000	148.000000	0.000000	130.000000	52.000000	22.000000	0.000000
0.620000	52.960000	59.830000	137.000000	0.000000	130.000000	52.000000	25.000000	12.000000
0.630000	53.190000	60.110000	144.000000	0.000000	130.000000	52.000000	23.000000	28.000000
0.640000	53.430000	60.480000	149.000000	0.000000	130.000000	52.000000	24.000000	37.000000
0.650000	53.550000	60.820000	149.000000	0.000000	130.000000	52.000000	12.000000	34.000000
0.660000	53.550000	60.950000	175.000000	0.000000	130.000000	52.000000	0.000000	13.000000
0.670000	53.550000	60.950000	195.000000	0.000000	130.000000	52.000000	0.000000	0.000000
0.680000	53.550000	60.900000	200.000000	0.000000	130.000000	52.000000	0.000000	-5.000000
0.690000	53.550000	60.810000	202.000000	0.000000	130.000000	52.000000	0.000000	-9.000000
0.700000	53.550000	60.630000	202.000000	0.000000	130.000000	52.000000	0.000000	-18.000000
0.710000	53.610000	60.480000	170.000000	0.000000	130.000000	52.000000	6.000000	-15.000000
0.720000	53.720000	60.370000	119.000000	0.000000	130.000000	52.000000	11.000000	-11.000000
0.730000	53.940000	60.370000	30.000000	0.000000	130.000000	52.000000	22.000000	0.000000
0.740000	53.940000	60.370000	0.000000	1.000000	130.000000	52.000000	0.000000	0.000000
0.750000	54.400000	60.570000	0.000000	0.000000	130.000000	52.000000	46.000000	20.000000
0.760000	54.570000	60.830000	0.000000	0.000000	130.000000	52.000000	17.000000	26.000000
0.770000	54.710000	61.060000	0.000000	0.000000	130.000000	52.000000	14.000000	23.000000
0.780000	54.710000	61.270000	0.000000	0.000000	130.000000	52.000000	0.000000	21.000000
0.790000	54.710000	61.440000	0.000000	0.000000	130.000000	52.000000	0.000000	17.000000
0.800000	54.760000	61.590000	0.000000	0.000000	130.000000	52.000000	5.000000	15.000000
0.810000	54.760000	61.720000	0.000000	0.000000	130.000000	52.000000	0.000000	13.000000
0.820000	54.760000	61.790000	0.000000	0.000000	132.000000	51.000000	0.000000	7.000000
0.830000	54.760000	61.790000	0.000000	0.000000	132.000000	51.000000	0.000000	0.000000
0.840000	54.760000	61.790000	61.000000	1.000000	132.000000	51.000000	0.000000	0.000000
0.850000	54.760000	61.790000	88.000000	0.000000	132.000000	51.000000	0.000000	0.000000
0.860000	54.760000	61.790000	94.000000	0.000000	132.000000	51.000000	0.000000	0.000000
0.870000	54.760000	61.790000	112.000000	0.000000	132.000000	51.000000	0.000000	0.000000
0.880000	54.700000	61.500000	122.000000	0.000000	132.000000	51.000000	-6.000000	-29.000000
0.890000	54.700000	61.380000	127.000000	0.000000	132.000000	51.000000	0.000000	-12.000000
0.900000	54.760000	61.260000	127.000000	0.000000	132.000000	51.000000	6.000000	-12.000000
0.910000	54.860000	61.200000	120.000000	0.000000	132.000000	51.000000	10.000000	-6.000000
0.920000	54.990000	61.200000	96.000000	0.000000	132.000000	51.000000	13.000000	0.000000
0.930000	55.130000	61.250000	103.000000	0.000000	132.000000	51.000000	14.000000	5.000000
0.940000	55.300000	61.410000	93.000000	0.000000	132.000000	51.000000	17.000000	16.000000
0.950000	55.430000	61.620000	94.000000	0.000000	132.000000	51.000000	13.000000	21.000000
0.960000	55.520000	61.740000	109.000000	0.000000	132.000000	51.000000	9.000000	12.000000
0.970000	55.520000	61.740000	108.000000	0.000000	132.000000	51.000000	0.000000	0.000000
0.980000	55.520000	61.650000	122.000000	0.000000	132.000000	51.000000	0.000000	-9.000000
0.990000	55.520000	61.550000	125.000000	0.000000	132.000000	51.000000	0.000000	-10.000000
1.000000	55.520000	61.440000	127.000000	0.000000	132.000000	51.000000	0.000000	-11.000000
1.010000	55.520000	61.330000	129.000000	0.000000	132.000000	51.000000	0.000000	-11.000000
1.020000	55.650000	61.330000	127.000000	0.000000	132.000000	51.000000	13.000000	0.000000
1.030000	55.910000	61.330000	122.000000	0.000000	133.000000	52.000000	26.000000	0.000000
1.040000	56.260000	61.450000	110.000000	0.000000	133.000000	52.000000	35.000000	12.000000
1.050000	56.570000	61.650000	107.000000	0.000000	133.000000	52.000000	31.000000	20.000000
1.060000	56.880000	61.880000	108.000000	0.000000	133.000000	52.000000	31.000000	23.000000
1.070000	57.130000	62.070000	107.000000	0.000000	134.000000	52.000000	25.000000	19.000000
1.080000	57.340000	62.250000	107.000000	0.000000	134.000000	52.000000	21.000000	18.000000
1.090000	57.410000	62.410000	113.000000	0.000000	134.000000	52.000000	7.000000	16.000000
1.100000	57.410000	62.520000	119.000000	0.000000	135.000000	53.000000	0.000000	11.000000
1.110000	57.310000	62.620000	139.000000	0.000000	136.000000	52.000000	-10.000000	10.000000
1.120000	57.210000	62.690000	132.000000	0.000000	136.000000	52.000000	-10.000000	7.000000
1.130000	57.110000	62.690000	175.000000	0.000000	136.000000	52.000000	-10.000000	0.000000
1.140000	56.940000	62.580000	181.000000	0.000000	136.000000	52.000000	-17.000000	-11.000000
1.150000	56.710000	62.360000	186.000000	0.000000	136.000000	52.000000	-23.000000	-22.000000
1.160000	56.520000	62.030000	183.000000	0.000000	136.000000	52.000000	-19.000000	-33.000000
1.170000	56.400000	61.680000	190.000000	0.000000	136.000000	52.000000	-12.000000	-35.000000
1.180000	56.400000	61.420000	188.000000	0.000000	136.000000	52.000000	0.000000	-26.000000
1.190000	56.480000	61.240000	181.000000	0.000000	135.000000	52.000000	8.000000	-18.000000
1.200000	56.640000	61.140000	171.000000	0.000000	135.000000	52.000000	16.000000	-10.000000
1.210000	56.870000	61.140000	165.000000	0.000000	135.000000	52.000000	23.000000	0.000000
1.220000	57.150000	61.210000	148.000000	0.000000	135.000000	52.000000	28.000000	7.000000
1.230000	57.510000	61.380000	149.000000	0.000000	135.000000	52.000000	36.000000	17.000000
1.240000	57.890000	61.670000	141.000000	0.000000	136.000000	52.000000	38.000000	29.000000
1.250000	58.160000	62.030000	132.000000	0.000000	136.000000	52.000000	27.000000	36.000000
1.260000	58.360000	62.390000	136.000000	0.000000	136.000000	52.000000	20.000000	36.000000
1.270000	58.470000	62.720000	132.000000	0.000000	136.000000	52.000000	11.000000	33.000000
1.280000	58.530000	63.020000	149.000000	0.000000	137.000000	53.000000	6.000000	30.000000
1.290000	58.530000	63.170000	177.000000	0.000000	137.000000	53.000000	0.000000	15.000000
1.300000	58.530000	63.300000	190.000000	0.000000	137.000000	53.000000	0.000000	13.000000
1.310000	58.450000	63.360000	203.000000	0.000000	137.000000	53.000000	-8.000000	6.000000
1.320000	58.450000	63.360000	208.000000	0.000000	137.000000	53.000000	0.000000	0.000000
1.330000	58.450000	63.360000	210.000000	0.000000	137.000000	53.000000	0.000000	0.000000
1.340000	58.530000	63.190000	212.000000	0.000000	137.000000	53.000000	8.000000	-17.000000
1.350000	58.620000	62.970000	213.000000	0.000000	137.000000	53.000000	9.000000	-22.000000
1.360000	58.720000	62.720000	222.000000	0.000000	139.000000	54.000000	10.000000	-25.000000
1.370000	58.800000	62.450000	217.000000	0.000000	139.000000	54.000000	8.000000	-27.000000
1.380000	58.860000	62.190000	193.000000	0.000000	139.000000	54.000000	6.000000	-26.000000
1.390000	58.860000	61.940000	190.000000	0.000000	139.000000	54.000000	0.000000	-25.000000
1.400000	58.770000	61.680000	195.000000	0.000000	139.000000	54.000000	-9.000000	-26.000000
1.410000	58.630000	61.480000	205.000000	0.000000	139.000000	54.000000	-14.000000	-20.000000
1.420000	58.490000	61.320000	205.000000	0.000000	139.000000	54.000000	-14.000000	-16.000000
1.430000	58.370000	61.210000	213.000000	0.000000	139.000000	54.000000	-12.000000	-11.000000
1.440000	58.310000	61.210000	215.000000	0.000000	139.000000	54.000000	-6.000000	0.000000
1.450000	58.310000	61.270000	218.000000	0.000000	139.000000	54.000000	0.000000	6.000000
1.460000	58.310000	61.350000	212.000000	0.000000	137.000000	53.000000	0.000000	8.000000
1.470000	58.430000	61.510000	216.000000	0.000000	137.000000	53.000000	12.000000	16.000000
1.480000	58.570000	61.720000	212.000000	0.000000	137.000000	53.000000	14.000000	21.000000
1.490000	58.770000	61.930000	190.000000	0.000000	137.000000	53.000000	20.000000	21.000000
1.500000	58.990000	62.170000	175.000000	0.000000	139.000000	54.000000	22.000000	24.000000
1.510000	59.220000	62.420000	173.000000	0.000000	139.000000	54.000000	23.000000	25.000000
1.520000	59.450000	62.730000	163.000000	0.000000	139.000000	54.000000	23.000000	31.000000
1.530000	59.670000	63.040000	160.000000	0.000000	140.000000	54.000000	22.000000	31.000000
1.540000	59.840000	63.330000	160.000000	0.000000	140.000000	54.000000	17.000000	29.000000
1.550000	59.980000	63.590000	168.000000	0.000000	141.000000	55.000000	14.000000	26.000000
1.560000	60.070000	63.790000	175.000000	0.000000	141.000000	55.000000	9.000000	20.000000
1.570000	60.070000	63.900000	171.000000	0.000000	141.000000	55.000000	0.000000	11.000000
1.580000	60.070000	63.900000	210.000000	0.000000	141.000000	55.000000	0.000000	0.000000
1.590000	60.020000	63.900000	220.000000	0.000000	141.000000	55.000000	-5.000000	0.000000
1.600000	60.020000	63.840000	217.000000	0.000000	141.000000	55.000000	0.000000	-6.000000
1.610000	60.020000	63.640000	217.000000	0.000000	141.000000	55.000000	0.000000	-20.000000
1.620000	60.020000	63.350000	213.000000	0.000000	141.000000	55.000000	0.000000	-29.000000
1.630000	60.020000	63.060000	191.000000	0.000000	141.000000	55.000000	0.000000	-29.000000
1.640000	60.100000	62.790000	184.000000	0.000000	141.000000	55.000000	8.000000	-27.000000
1.650000	60.180000	62.530000	160.000000	0.000000	141.000000	55.000000	8.000000	-26.000000
1.660000	60.270000	62.290000	158.000000	0.000000	141.000000	55.000000	9.000000	-24.000000
1.670000	60.270000	62.070000	160.000000	0.000000	141.000000	55.000000	0.000000	-22.000000
1.680000	60.270000	61.830000	163.000000	0.000000	141.000000	55.000000	0.000000	-24.000000
1.690000	60.140000	61.660000	168.000000	0.000000	141.000000	55.000000	-13.000000	-17.000000
1.700000	60.040000	61.540000	172.000000	0.000000	141.000000	55.000000	-10.000000	-12.000000
1.710000	59.940000	61.470000	179.000000	0.000000	141.000000	55.000000	-10.000000	-7.000000
1.720000	59.830000	61.470000	170.000000	0.000000	141.000000	55.000000	-11.000000	0.000000
1.730000	59.700000	61.470000	187.000000	0.000000	140.000000	55.000000	-13.000000	0.000000
1.740000	59.640000	61.520000	171.000000	0.000000	140.000000	55.000000	-6.000000	5.000000
1.750000	59.640000	61.600000	170.000000	0.000000	140.000000	55.000000	0.000000	8.000000
1.760000	59.690000	61.680000	172.000000	0.000000	140.000000	55.000000	5.000000	8.000000
1.770000	59.690000	61.680000	131.000000	0.000000	140.000000	55.000000	0.000000	0.000000
1.780000	60.060000	61.980000	101.000000	0.000000	140.000000	55.000000	37.000000	30.000000
1.790000	60.370000	62.170000	41.000000	0.000000	140.000000	55.000000	31.000000	19.000000
1.800000	60.730000	62.370000	34.000000	0.000000	140.000000	55.000000	36.000000	20.000000
1.810000	61.120000	62.580000	44.000000	0.000000	140.000000	55.000000	39.000000	21.000000
1.820000	61.510000	62.750000	51.000000	0.000000	140.000000	55.000000	39.000000	17.000000
1.830000	61.850000	62.940000	47.000000	0.000000	140.000000	55.000000	34.000000	19.000000
1.840000	62.160000	63.140000	73.000000	0.000000	140.000000	54.000000	31.000000	20.000000
1.850000	62.400000	63.300000	96.000000	0.000000	140.000000	54.000000	24.000000	16.000000
1.860000	62.520000	63.430000	158.000000	0.000000	140.000000	54.000000	12.000000	13.000000
1.870000	62.520000	63.510000	214.000000	0.000000	139.000000	54.000000	0.000000	8.000000
1.880000	62.520000	63.510000	246.000000	0.000000	139.000000	54.000000	0.000000	0.000000
1.890000	62.290000	63.450000	260.000000	0.000000	139.000000	54.000000	-23.000000	-6.000000
1.900000	62.030000	63.340000	282.000000	0.000000	139.000000	54.000000	-26.000000	-11.000000
1.910000	61.680000	63.110000	281.000000	0.000000	139.000000	54.000000	-35.000000	-23.000000
1.920000	61.380000	62.810000	294.000000	0.000000	139.000000	54.000000	-30.000000	-30.000000
1.930000	61.170000	62.600000	291.000000	0.000000	139.000000	54.000000	-21.000000	-21.000000
1.940000	61.170000	62.490000	289.000000	0.000000	139.000000	54.000000	0.000000	-11.000000
1.950000	61.320000	62.440000	287.000000	0.000000	139.000000	54.000000	15.000000	-5.000000
1.960000	61.520000	62.390000	284.000000	0.000000	139.000000	54.000000	20.000000	-5.000000
1.970000	61.860000	62.390000	267.000000	0.000000	139.000000	54.000000	34.000000	0.000000
1.980000	62.290000	62.520000	225.000000	0.000000	139.000000	54.000000	43.000000	13.000000
1.990000	62.740000	62.590000	68.000000	0.000000	139.000000	54.000000	45.000000	7.000000
2.000000	62.740000	62.590000	0.000000	1.000000	139.000000	54.000000	0.000000	0.000000
2.010000	63.640000	62.790000	0.000000	0.000000	139.000000	54.000000	90.000000	20.000000
2.020000	64.030000	62.960000	0.000000	0.000000	139.000000	54.000000	39.000000	17.000000
2.030000	64.390000	63.220000	0.000000	0.000000	139.000000	54.000000	36.000000	26.000000
2.040000	65.180000	63.560000	0.000000	0.000000	137.000000	53.000000	79.000000	34.000000
2.050000	65.890000	63.950000	0.000000	0.000000	139.000000	54.000000	71.000000	39.000000
2.060000	66.540000	64.330000	0.000000	0.000000	139.000000	54.000000	65.000000	38.000000
2.070000	67.520000	64.530000	0.000000	0.000000	141.000000	53.000000	98.000000	20.000000
2.080000	68.470000	64.610000	0.000000	0.000000	141.000000	53.000000	95.000000	8.000000
2.090000	69.040000	65.140000	0.000000	0.000000	142.000000	53.000000	57.000000	53.000000
2.100000	69.350000	65.190000	0.000000	0.000000	143.000000	52.000000	31.000000	5.000000
2.110000	69.270000	64.910000	0.000000	0.000000	144.000000	51.000000	-8.000000	-28.000000
2.120000	68.990000	64.670000	0.000000	0.000000	144.000000	51.000000	-28.000000	-24.000000
2.130000	68.580000	64.380000	0.000000	0.000000	144.000000	51.000000	-41.000000	-29.000000
2.140000	67.960000	64.060000	0.000000	0.000000	143.000000	51.000000	-62.000000	-32.000000
2.150000	67.400000	63.740000	0.000000	0.000000	143.000000	51.000000	-56.000000	-32.000000
2.160000	66.880000	63.490000	0.000000	0.000000	143.000000	51.000000	-52.000000	-25.000000
2.170000	66.360000	63.360000	0.000000	0.000000	142.000000	52.000000	-52.000000	-13.000000
2.180000	66.040000	63.360000	0.000000	0.000000	142.000000	52.000000	-32.000000	0.000000
2.190000	65.990000	63.360000	0.000000	0.000000	141.000000	52.000000	-5.000000	0.000000
2.200000	66.050000	63.360000	0.000000	0.000000	141.000000	52.000000	6.000000	0.000000
2.210000	66.120000	63.360000	0.000000	0.000000	141.000000	52.000000	7.000000	0.000000
2.220000	66.210000	63.310000	0.000000	0.000000	141.000000	52.000000	9.000000	-5.000000
