t	x	y	pressure	penup	azimuth	inclination	v_x	v_y
0.000000	86.670000	65.670000	65.000000	1.000000	140.000000	54.000000	0.000000	0.000000
0.010000	86.670000	65.920000	129.000000	0.000000	140.000000	54.000000	0.000000	25.000000
0.020000	86.570000	66.000000	218.000000	0.000000	140.000000	54.000000	-10.000000	8.000000
0.030000	86.480000	66.060000	317.000000	0.000000	139.000000	55.000000	-9.000000	6.000000
0.040000	86.480000	66.060000	341.000000	0.000000	139.000000	55.000000	0.000000	0.000000
0.050000	86.480000	66.060000	363.000000	0.000000	139.000000	55.000000	0.000000	0.000000
0.060000	86.480000	66.060000	397.000000	0.000000	139.000000	55.000000	0.000000	0.000000
0.070000	86.530000	65.880000	439.000000	0.000000	139.000000	55.000000	5.000000	-18.000000
0.080000	86.530000	65.490000	481.000000	0.000000	139.000000	55.000000	0.000000	-39.000000
0.090000	86.530000	64.960000	507.000000	0.000000	139.000000	55.000000	0.000000	-53.000000
0.100000	86.530000	64.340000	537.000000	0.000000	139.000000	55.000000	0.000000	-62.000000
0.110000	86.600000	63.720000	536.000000	0.000000	139.000000	55.000000	7.000000	-62.000000
0.120000	86.650000	63.140000	542.000000	0.000000	140.000000	55.000000	5.000000	-58.000000
0.130000	86.710000	62.760000	546.000000	0.000000	141.000000	55.000000	6.000000	-38.000000
0.140000	86.800000	62.490000	551.000000	0.000000	141.000000	55.000000	9.000000	-27.000000
0.150000	86.900000	62.490000	606.000000	0.000000	141.000000	55.000000	10.000000	0.000000
0.160000	86.970000	62.560000	685.000000	0.000000	144.000000	54.000000	7.000000	7.000000
0.170000	87.030000	62.780000	739.000000	0.000000	144.000000	54.000000	6.000000	22.000000
0.180000	87.260000	63.400000	780.000000	0.000000	144.000000	54.000000	23.000000	62.000000
0.190000	87.530000	64.180000	842.000000	0.000000	144.000000	54.000000	27.000000	78.000000
0.200000	87.840000	65.060000	888.000000	0.000000	143.000000	55.000000	31.000000	88.000000
0.210000	88.160000	65.940000	923.000000	0.000000	143.000000	55.000000	32.000000	88.000000
0.220000	88.490000	66.790000	938.000000	0.000000	143.000000	55.000000	33.000000	85.000000
0.230000	88.840000	67.580000	968.000000	0.000000	143.000000	55.000000	35.000000	79.000000
0.240000	89.200000	68.290000	989.000000	0.000000	144.000000	56.000000	36.000000	71.000000
0.250000	89.530000	68.960000	990.000000	0.000000	144.000000	56.000000	33.000000	67.000000
0.260000	89.820000	69.520000	1009.000000	0.000000	144.000000	56.000000	29.000000	56.000000
0.270000	90.100000	69.870000	1011.000000	0.000000	146.000000	55.000000	28.000000	35.000000
0.280000	90.380000	70.070000	1014.000000	0.000000	146.000000	55.000000	28.000000	20.000000
0.290000	90.550000	70.200000	1005.000000	0.000000	147.000000	55.000000	17.000000	13.000000
0.300000	90.650000	70.280000	986.000000	0.000000	149.000000	55.000000	10.000000	8.000000
0.310000	90.700000	70.280000	923.000000	0.000000	150.000000	54.000000	5.000000	0.000000
0.320000	90.750000	70.280000	817.000000	0.000000	150.000000	54.000000	5.000000	0.000000
0.330000	90.750000	70.280000	722.000000	0.000000	150.000000	54.000000	0.000000	0.000000
0.340000	90.810000	70.190000	537.000000	0.000000	151.000000	53.000000	6.000000	-9.000000
0.350000	90.810000	70.010000	167.000000	0.000000	150.000000	54.000000	0.000000	-18.000000
0.360000	90.810000	70.010000	0.000000	1.000000	150.000000	54.000000	0.000000	0.000000
0.370000	90.590000	69.540000	0.000000	0.000000	150.000000	54.000000	-22.000000	-47.000000
0.380000	90.360000	69.390000	0.000000	0.000000	149.000000	55.000000	-23.000000	-15.000000
0.390000	90.250000	69.290000	0.000000	0.000000	149.000000	55.000000	-11.000000	-10.000000
0.400000	90.250000	69.140000	0.000000	0.000000	149.000000	55.000000	0.000000	-15.000000
0.410000	90.300000	68.970000	0.000000	0.000000	147.000000	55.000000	5.000000	-17.000000
0.420000	90.370000	68.730000	0.000000	0.000000	147.000000	55.000000	7.000000	-24.000000
0.430000	90.430000	68.370000	0.000000	0.000000	146.000000	54.000000	6.000000	-36.000000
0.440000	90.430000	67.940000	0.000000	0.000000	145.000000	54.000000	0.000000	-43.000000
0.450000	90.540000	67.480000	0.000000	0.000000	143.000000	53.000000	11.000000	-46.000000
0.460000	90.590000	67.020000	0.000000	0.000000	142.000000	53.000000	5.000000	-46.000000
0.470000	90.590000	66.570000	0.000000	0.000000	142.000000	52.000000	0.000000	-45.000000
0.480000	90.640000	66.190000	0.000000	0.000000	143.000000	51.000000	5.000000	-38.000000
0.490000	90.640000	65.840000	0.000000	0.000000	143.000000	51.000000	0.000000	-35.000000
0.500000	90.710000	65.570000	0.000000	0.000000	142.000000	50.000000	7.000000	-27.000000
0.510000	90.710000	65.320000	0.000000	0.000000	143.000000	51.000000	0.000000	-25.000000
0.520000	90.710000	65.080000	0.000000	0.000000	143.000000	51.000000	0.000000	-24.000000
0.530000	90.640000	64.930000	0.000000	0.000000	143.000000	51.000000	-7.000000	-15.000000
0.540000	90.640000	64.810000	0.000000	0.000000	144.000000	51.000000	0.000000	-12.000000
0.550000	90.540000	64.710000	0.000000	0.000000	143.000000	52.000000	-10.000000	-10.000000
0.560000	90.540000	64.640000	0.000000	0.000000	145.000000	53.000000	0.000000	-7.000000
0.570000	90.490000	64.640000	0.000000	0.000000	146.000000	53.000000	-5.000000	0.000000
0.580000	90.490000	64.580000	0.000000	0.000000	145.000000	54.000000	0.000000	-6.000000
0.590000	90.550000	64.580000	0.000000	0.000000	146.000000	54.000000	6.000000	0.000000
0.600000	90.610000	64.580000	0.000000	0.000000	146.000000	54.000000	6.000000	0.000000
0.610000	90.660000	64.630000	0.000000	0.000000	147.000000	55.000000	5.000000	5.000000
0.620000	90.710000	64.630000	0.000000	0.000000	146.000000	55.000000	5.000000	0.000000
0.630000	90.710000	64.630000	0.000000	0.000000	148.000000	56.000000	0.000000	0.000000
0.640000	90.800000	64.570000	0.000000	0.000000	148.000000	56.000000	9.000000	-6.000000
0.650000	90.800000	64.570000	110.000000	1.000000	149.000000	56.000000	0.000000	0.000000
0.660000	90.800000	64.570000	149.000000	0.000000	151.000000	56.000000	0.000000	0.000000
0.670000	90.800000	64.570000	198.000000	0.000000	151.000000	56.000000	0.000000	0.000000
0.680000	90.800000	64.570000	242.000000	0.000000	152.000000	57.000000	0.000000	0.000000
0.690000	90.810000	64.830000	304.000000	0.000000	152.000000	57.000000	1.000000	26.000000
0.700000	90.810000	64.970000	345.000000	0.000000	154.000000	57.000000	0.000000	14.000000
0.710000	90.860000	65.180000	405.000000	0.000000	153.000000	58.000000	5.000000	21.000000
0.720000	90.860000	65.380000	467.000000	0.000000	153.000000	58.000000	0.000000	20.000000
0.730000	90.800000	65.560000	515.000000	0.000000	153.000000	58.000000	-6.000000	18.000000
0.740000	90.710000	65.710000	611.000000	0.000000	153.000000	58.000000	-9.000000	15.000000
0.750000	90.610000	65.810000	620.000000	0.000000	153.000000	58.000000	-10.000000	10.000000
0.760000	90.510000	65.910000	611.000000	0.000000	153.000000	58.000000	-10.000000	10.000000
0.770000	90.400000	66.030000	611.000000	0.000000	153.000000	58.000000	-11.000000	12.000000
0.780000	90.290000	66.100000	614.000000	0.000000	153.000000	58.000000	-11.000000	7.000000
0.790000	90.150000	66.100000	608.000000	0.000000	153.000000	58.000000	-14.000000	0.000000
0.800000	90.010000	66.100000	606.000000	0.000000	151.000000	58.000000	-14.000000	0.000000
0.810000	90.010000	66.100000	602.000000	0.000000	151.000000	58.000000	0.000000	0.000000
0.820000	89.640000	65.700000	605.000000	0.000000	150.000000	57.000000	-37.000000	-40.000000
0.830000	89.430000	65.340000	603.000000	0.000000	150.000000	57.000000	-21.000000	-36.000000
0.840000	89.260000	64.910000	586.000000	0.000000	148.000000	57.000000	-17.000000	-43.000000
0.850000	89.150000	64.490000	578.000000	0.000000	148.000000	57.000000	-11.000000	-42.000000
0.860000	89.150000	64.070000	551.000000	0.000000	147.000000	56.000000	0.000000	-42.000000
0.870000	89.210000	63.680000	541.000000	0.000000	147.000000	56.000000	6.000000	-39.000000
0.880000	89.360000	63.460000	530.000000	0.000000	145.000000	56.000000	15.000000	-22.000000
0.890000	89.540000	63.330000	527.000000	0.000000	145.000000	56.000000	18.000000	-13.000000
0.900000	89.710000	63.330000	544.000000	0.000000	145.000000	55.000000	17.000000	0.000000
0.910000	89.870000	63.460000	565.000000	0.000000	145.000000	55.000000	16.000000	13.000000
0.920000	90.040000	63.660000	581.000000	0.000000	145.000000	55.000000	17.000000	20.000000
0.930000	90.230000	63.990000	603.000000	0.000000	146.000000	55.000000	19.000000	33.000000
0.940000	90.400000	64.360000	627.000000	0.000000	146.000000	55.000000	17.000000	37.000000
0.950000	90.550000	64.750000	641.000000	0.000000	148.000000	56.000000	15.000000	39.000000
0.960000	90.640000	64.990000	665.000000	0.000000	148.000000	56.000000	9.000000	24.000000
0.970000	90.640000	65.190000	664.000000	0.000000	149.000000	56.000000	0.000000	20.000000
0.980000	90.640000	65.290000	684.000000	0.000000	151.000000	56.000000	0.000000	10.000000
0.990000	90.640000	65.290000	682.000000	0.000000	151.000000	58.000000	0.000000	0.000000
1.000000	90.640000	65.290000	675.000000	0.000000	151.000000	58.000000	0.000000	0.000000
1.010000	90.640000	65.290000	681.000000	0.000000	151.000000	58.000000	0.000000	0.000000
1.020000	90.520000	64.950000	682.000000	0.000000	151.000000	58.000000	-12.000000	-34.000000
1.030000	90.410000	64.580000	679.000000	0.000000	151.000000	58.000000	-11.000000	-37.000000
1.040000	90.410000	64.180000	681.000000	0.000000	151.000000	58.000000	0.000000	-40.000000
1.050000	90.410000	63.800000	678.000000	0.000000	151.000000	58.000000	0.000000	-38.000000
1.060000	90.470000	63.570000	678.000000	0.000000	151.000000	58.000000	6.000000	-23.000000
1.070000	90.610000	63.450000	678.000000	0.000000	151.000000	58.000000	14.000000	-12.000000
1.080000	90.790000	63.360000	666.000000	0.000000	151.000000	56.000000	18.000000	-9.000000
1.090000	90.980000	63.420000	592.000000	0.000000	151.000000	56.000000	19.000000	6.000000
1.100000	91.130000	63.570000	475.000000	0.000000	151.000000	56.000000	15.000000	15.000000
1.110000	91.240000	63.760000	246.000000	0.000000	151.000000	56.000000	11.000000	19.000000
1.120000	91.240000	63.760000	0.000000	1.000000	149.000000	56.000000	0.000000	0.000000
1.130000	91.320000	64.310000	0.000000	0.000000	151.000000	56.000000	8.000000	55.000000
1.140000	91.320000	64.610000	0.000000	0.000000	151.000000	56.000000	0.000000	30.000000
1.150000	91.240000	64.910000	0.000000	0.000000	151.000000	56.000000	-8.000000	30.000000
1.160000	91.240000	65.210000	0.000000	0.000000	151.000000	56.000000	0.000000	30.000000
1.170000	91.240000	65.520000	0.000000	0.000000	151.000000	56.000000	0.000000	31.000000
1.180000	91.240000	65.710000	0.000000	0.000000	151.000000	56.000000	0.000000	19.000000
1.190000	91.330000	65.880000	0.000000	0.000000	149.000000	56.000000	9.000000	17.000000
1.200000	91.380000	65.960000	0.000000	0.000000	149.000000	56.000000	5.000000	8.000000
1.210000	91.450000	65.960000	0.000000	0.000000	149.000000	56.000000	7.000000	0.000000
1.220000	91.450000	65.960000	1.000000	0.000000	149.000000	56.000000	0.000000	0.000000
1.230000	91.450000	65.960000	181.000000	1.000000	149.000000	56.000000	0.000000	0.000000
1.240000	91.500000	65.670000	247.000000	0.000000	148.000000	57.000000	5.000000	-29.000000
1.250000	91.500000	65.590000	337.000000	0.000000	150.000000	57.000000	0.000000	-8.000000
1.260000	91.500000	65.470000	389.000000	0.000000	150.000000	57.000000	0.000000	-12.000000
1.270000	91.570000	65.270000	405.000000	0.000000	150.000000	57.000000	7.000000	-20.000000
1.280000	91.650000	64.970000	423.000000	0.000000	151.000000	58.000000	8.000000	-30.000000
1.290000	91.740000	64.620000	440.000000	0.000000	151.000000	58.000000	9.000000	-35.000000
1.300000	91.820000	64.260000	448.000000	0.000000	151.000000	58.000000	8.000000	-36.000000
1.310000	91.870000	63.910000	458.000000	0.000000	151.000000	58.000000	5.000000	-35.000000
1.320000	91.930000	63.720000	460.000000	0.000000	151.000000	58.000000	6.000000	-19.000000
1.330000	91.930000	63.630000	473.000000	0.000000	150.000000	57.000000	0.000000	-9.000000
1.340000	91.930000	63.630000	488.000000	0.000000	150.000000	57.000000	0.000000	0.000000
1.350000	91.930000	63.770000	494.000000	0.000000	150.000000	57.000000	0.000000	14.000000
1.360000	91.930000	64.000000	510.000000	0.000000	149.000000	56.000000	0.000000	23.000000
1.370000	92.010000	64.440000	526.000000	0.000000	149.000000	56.000000	8.000000	44.000000
1.380000	92.070000	64.850000	551.000000	0.000000	148.000000	57.000000	6.000000	41.000000
1.390000	92.120000	65.170000	588.000000	0.000000	148.000000	57.000000	5.000000	32.000000
1.400000	92.120000	65.380000	611.000000	0.000000	150.000000	57.000000	0.000000	21.000000
1.410000	92.190000	65.500000	620.000000	0.000000	150.000000	57.000000	7.000000	12.000000
1.420000	92.250000	65.570000	616.000000	0.000000	150.000000	57.000000	6.000000	7.000000
1.430000	92.300000	65.570000	616.000000	0.000000	150.000000	57.000000	5.000000	0.000000
1.440000	92.300000	65.570000	619.000000	0.000000	150.000000	57.000000	0.000000	0.000000
1.450000	92.560000	65.570000	624.000000	0.000000	150.000000	57.000000	26.000000	0.000000
1.460000	92.740000	65.490000	625.000000	0.000000	150.000000	57.000000	18.000000	-8.000000
1.470000	92.900000	65.330000	636.000000	0.000000	150.000000	57.000000	16.000000	-16.000000
1.480000	93.030000	65.080000	639.000000	0.000000	150.000000	57.000000	13.000000	-25.000000
1.490000	93.030000	64.730000	637.000000	0.000000	150.000000	57.000000	0.000000	-35.000000
1.500000	93.030000	64.340000	643.000000	0.000000	150.000000	57.000000	0.000000	-39.000000
1.510000	93.030000	63.970000	641.000000	0.000000	150.000000	57.000000	0.000000	-37.000000
1.520000	92.980000	63.720000	647.000000	0.000000	150.000000	57.000000	-5.000000	-25.000000
1.530000	92.980000	63.550000	620.000000	0.000000	150.000000	57.000000	0.000000	-17.000000
1.540000	93.030000	63.550000	597.000000	0.000000	148.000000	57.000000	5.000000	0.000000
1.550000	93.120000	63.600000	532.000000	0.000000	148.000000	57.000000	9.000000	5.000000
1.560000	93.200000	63.720000	317.000000	0.000000	149.000000	56.000000	8.000000	12.000000
1.570000	93.200000	63.720000	0.000000	1.000000	148.000000	56.000000	0.000000	0.000000
1.580000	93.290000	64.130000	0.000000	0.000000	148.000000	56.000000	9.000000	41.000000
1.590000	93.290000	64.420000	0.000000	0.000000	148.000000	56.000000	0.000000	29.000000
1.600000	93.290000	64.620000	0.000000	0.000000	148.000000	56.000000	0.000000	20.000000
1.610000	93.290000	64.810000	0.000000	0.000000	148.000000	56.000000	0.000000	19.000000
1.620000	93.290000	64.960000	0.000000	0.000000	148.000000	56.000000	0.000000	15.000000
1.630000	93.290000	64.960000	0.000000	0.000000	148.000000	56.000000	0.000000	0.000000
1.640000	93.290000	64.960000	0.000000	0.000000	148.000000	56.000000	0.000000	0.000000
1.650000	93.290000	64.960000	0.000000	0.000000	148.000000	56.000000	0.000000	0.000000
1.660000	93.290000	64.960000	0.000000	0.000000	148.000000	56.000000	0.000000	0.000000
1.670000	93.290000	64.960000	0.000000	0.000000	148.000000	56.000000	0.000000	0.000000
1.680000	93.290000	64.960000	0.000000	0.000000	148.000000	56.000000	0.000000	0.000000
1.690000	93.290000	64.960000	151.000000	1.000000	148.000000	56.000000	0.000000	0.000000
1.700000	93.360000	64.500000	209.000000	0.000000	148.000000	56.000000	7.000000	-46.000000
1.710000	93.360000	64.450000	275.000000	0.000000	148.000000	56.000000	0.000000	-5.000000
1.720000	93.410000	64.450000	344.000000	0.000000	149.000000	56.000000	5.000000	0.000000
1.730000	93.540000	64.450000	400.000000	0.000000	149.000000	56.000000	13.000000	0.000000
1.740000	93.720000	64.390000	449.000000	0.000000	148.000000	57.000000	18.000000	-6.000000
1.750000	93.950000	64.390000	502.000000	0.000000	148.000000	57.000000	23.000000	0.000000
1.760000	94.200000	64.510000	548.000000	0.000000	148.000000	57.000000	25.000000	12.000000
1.770000	94.440000	64.690000	588.000000	0.000000	148.000000	57.000000	24.000000	18.000000
1.780000	94.650000	64.940000	611.000000	0.000000	148.000000	57.000000	21.000000	25.000000
1.790000	94.830000	65.230000	611.000000	0.000000	148.000000	57.000000	18.000000	29.000000
1.800000	95.030000	65.580000	617.000000	0.000000	148.000000	57.000000	20.000000	35.000000
1.810000	95.090000	65.900000	616.000000	0.000000	148.000000	57.000000	6.000000	32.000000
1.820000	95.090000	66.200000	630.000000	0.000000	148.000000	57.000000	0.000000	30.000000
1.830000	94.980000	66.340000	627.000000	0.000000	147.000000	58.000000	-11.000000	14.000000
1.840000	94.790000	66.340000	620.000000	0.000000	147.000000	58.000000	-19.000000	0.000000
1.850000	94.520000	66.200000	613.000000	0.000000	147.000000	58.000000	-27.000000	-14.000000
1.860000	94.240000	65.940000	602.000000	0.000000	147.000000	58.000000	-28.000000	-26.000000
1.870000	93.970000	65.650000	580.000000	0.000000	147.000000	58.000000	-27.000000	-29.000000
1.880000	93.720000	65.320000	580.000000	0.000000	147.000000	58.000000	-25.000000	-33.000000
1.890000	93.620000	64.990000	583.000000	0.000000	147.000000	58.000000	-10.000000	-33.000000
1.900000	93.620000	64.700000	589.000000	0.000000	147.000000	58.000000	0.000000	-29.000000
1.910000	93.700000	64.430000	594.000000	0.000000	147.000000	58.000000	8.000000	-27.000000
1.920000	93.800000	64.210000	591.000000	0.000000	148.000000	57.000000	10.000000	-22.000000
1.930000	93.960000	64.040000	614.000000	0.000000	148.000000	57.000000	16.000000	-17.000000
1.940000	94.180000	63.910000	616.000000	0.000000	148.000000	57.000000	22.000000	-13.000000
1.950000	94.450000	63.910000	616.000000	0.000000	148.000000	57.000000	27.000000	0.000000
1.960000	94.710000	63.970000	603.000000	0.000000	148.000000	57.000000	26.000000	6.000000
1.970000	94.980000	64.070000	561.000000	0.000000	148.000000	57.000000	27.000000	10.000000
1.980000	95.260000	64.230000	446.000000	0.000000	148.000000	57.000000	28.000000	16.000000
1.990000	95.510000	64.410000	223.000000	0.000000	148.000000	57.000000	25.000000	18.000000
2.000000	95.510000	64.410000	0.000000	1.000000	148.000000	57.000000	0.000000	0.000000
2.010000	95.880000	64.740000	0.000000	0.000000	148.000000	57.000000	37.000000	33.000000
2.020000	95.970000	64.880000	0.000000	0.000000	148.000000	57.000000	9.000000	14.000000
2.030000	95.970000	65.050000	0.000000	0.000000	148.000000	57.000000	0.000000	17.000000
2.040000	96.120000	65.250000	0.000000	0.000000	148.000000	57.000000	15.000000	20.000000
2.050000	96.270000	65.410000	0.000000	0.000000	148.000000	57.000000	15.000000	16.000000
2.060000	96.460000	65.560000	0.000000	0.000000	150.000000	57.000000	19.000000	15.000000
2.070000	96.640000	65.690000	0.000000	0.000000	150.000000	57.000000	18.000000	13.000000
2.080000	96.790000	65.800000	0.000000	0.000000	150.000000	57.000000	15.000000	11.000000
2.090000	96.930000	65.920000	0.000000	0.000000	150.000000	57.000000	14.000000	12.000000
2.100000	96.930000	65.920000	213.000000	1.000000	148.000000	57.000000	0.000000	0.000000
2.110000	96.930000	65.920000	286.000000	0.000000	150.000000	57.000000	0.000000	0.000000
2.120000	96.990000	66.290000	400.000000	0.000000	149.000000	58.000000	6.000000	37.000000
2.130000	96.990000	66.370000	468.000000	0.000000	149.000000	58.000000	0.000000	8.000000
2.140000	96.890000	66.420000	473.000000	0.000000	149.000000	58.000000	-10.000000	5.000000
2.150000	96.730000	66.420000	486.000000	0.000000	149.000000	58.000000	-16.000000	0.000000
2.160000	96.520000	66.320000	495.000000	0.000000	149.000000	58.000000	-21.000000	-10.000000
2.170000	96.200000	66.140000	502.000000	0.000000	149.000000	58.000000	-32.000000	-18.000000
2.180000	95.890000	65.930000	522.000000	0.000000	149.000000	58.000000	-31.000000	-21.000000
2.190000	95.620000	65.740000	540.000000	0.000000	149.000000	58.000000	-27.000000	-19.000000
2.200000	95.520000	65.630000	540.000000	0.000000	149.000000	58.000000	-10.000000	-11.000000
2.210000	95.520000	65.580000	537.000000	0.000000	149.000000	58.000000	0.000000	-5.000000
2.220000	95.520000	65.520000	537.000000	0.000000	149.000000	58.000000	0.000000	-6.000000
2.230000	95.590000	65.450000	538.000000	0.000000	147.000000	58.000000	7.000000	-7.000000
