t	x	y	pressure	penup	azimuth	inclination	v_x	v_y
0.000000	87.620000	48.910000	81.000000	1.000000	143.000000	53.000000	0.000000	0.000000
0.010000	87.620000	49.240000	122.000000	0.000000	143.000000	53.000000	0.000000	33.000000
0.020000	87.510000	49.390000	178.000000	0.000000	143.000000	53.000000	-11.000000	15.000000
0.030000	87.510000	49.510000	267.000000	0.000000	143.000000	53.000000	0.000000	12.000000
0.040000	87.460000	49.600000	349.000000	0.000000	143.000000	53.000000	-5.000000	9.000000
0.050000	87.460000	49.600000	433.000000	0.000000	143.000000	53.000000	0.000000	0.000000
0.060000	87.460000	49.600000	466.000000	0.000000	143.000000	53.000000	0.000000	0.000000
0.070000	87.460000	49.600000	477.000000	0.000000	142.000000	53.000000	0.000000	0.000000
0.080000	87.460000	49.600000	519.000000	0.000000	143.000000	52.000000	0.000000	0.000000
0.090000	87.460000	49.220000	546.000000	0.000000	143.000000	52.000000	0.000000	-38.000000
0.100000	87.380000	48.660000	570.000000	0.000000	143.000000	52.000000	-8.000000	-56.000000
0.110000	87.330000	47.930000	581.000000	0.000000	142.000000	53.000000	-5.000000	-73.000000
0.120000	87.330000	47.260000	583.000000	0.000000	142.000000	53.000000	0.000000	-67.000000
0.130000	87.330000	46.620000	586.000000	0.000000	142.000000	53.000000	0.000000	-64.000000
0.140000	87.330000	46.050000	581.000000	0.000000	141.000000	53.000000	0.000000	-57.000000
0.150000	87.480000	45.610000	586.000000	0.000000	141.000000	53.000000	15.000000	-44.000000
0.160000	87.650000	45.270000	595.000000	0.000000	141.000000	53.000000	17.000000	-34.000000
0.170000	87.800000	45.480000	617.000000	0.000000	140.000000	54.000000	15.000000	21.000000
0.180000	87.920000	45.640000	650.000000	0.000000	140.000000	54.000000	12.000000	16.000000
0.190000	88.020000	45.780000	730.000000	0.000000	139.000000	55.000000	10.000000	14.000000
0.200000	88.230000	46.110000	777.000000	0.000000	139.000000	55.000000	21.000000	33.000000
0.210000	88.480000	46.670000	812.000000	0.000000	140.000000	55.000000	25.000000	56.000000
0.220000	88.890000	47.390000	870.000000	0.000000	140.000000	55.000000	41.000000	72.000000
0.230000	89.380000	48.140000	903.000000	0.000000	140.000000	55.000000	49.000000	75.000000
0.240000	89.880000	48.930000	948.000000	0.000000	141.000000	56.000000	50.000000	79.000000
0.250000	90.410000	49.750000	959.000000	0.000000	143.000000	55.000000	53.000000	82.000000
0.260000	90.940000	50.460000	989.000000	0.000000	144.000000	54.000000	53.000000	71.000000
0.270000	91.470000	51.050000	988.000000	0.000000	146.000000	54.000000	53.000000	59.000000
0.280000	91.920000	51.570000	997.000000	0.000000	147.000000	53.000000	45.000000	52.000000
0.290000	92.320000	52.020000	997.000000	0.000000	148.000000	54.000000	40.000000	45.000000
0.300000	92.680000	52.440000	1000.000000	0.000000	149.000000	53.000000	36.000000	42.000000
0.310000	93.010000	52.770000	1000.000000	0.000000	149.000000	53.000000	33.000000	33.000000
0.320000	93.220000	52.950000	1002.000000	0.000000	149.000000	53.000000	21.000000	18.000000
0.330000	93.350000	53.040000	996.000000	0.000000	150.000000	52.000000	13.000000	9.000000
0.340000	93.470000	53.040000	989.000000	0.000000	150.000000	52.000000	12.000000	0.000000
0.350000	93.470000	53.090000	951.000000	0.000000	150.000000	52.000000	0.000000	5.000000
0.360000	93.470000	53.090000	878.000000	0.000000	150.000000	52.000000	0.000000	0.000000
0.370000	93.470000	53.090000	791.000000	0.000000	150.000000	52.000000	0.000000	0.000000
0.380000	93.470000	53.090000	641.000000	0.000000	150.000000	52.000000	0.000000	0.000000
0.390000	93.470000	53.090000	371.000000	0.000000	150.000000	52.000000	0.000000	0.000000
0.400000	93.470000	53.090000	0.000000	1.000000	149.000000	52.000000	0.000000	0.000000
0.410000	93.360000	52.830000	0.000000	0.000000	149.000000	52.000000	-11.000000	-26.000000
0.420000	93.110000	52.640000	0.000000	0.000000	148.000000	53.000000	-25.000000	-19.000000
0.430000	92.890000	52.450000	0.000000	0.000000	148.000000	53.000000	-22.000000	-19.000000
0.440000	92.690000	52.290000	0.000000	0.000000	148.000000	53.000000	-20.000000	-16.000000
0.450000	92.690000	52.120000	0.000000	0.000000	148.000000	53.000000	0.000000	-17.000000
0.460000	92.610000	51.910000	0.000000	0.000000	147.000000	52.000000	-8.000000	-21.000000
0.470000	92.610000	51.610000	0.000000	0.000000	147.000000	52.000000	0.000000	-30.000000
0.480000	92.540000	51.270000	0.000000	0.000000	145.000000	53.000000	-7.000000	-34.000000
0.490000	92.420000	50.780000	0.000000	0.000000	143.000000	52.000000	-12.000000	-49.000000
0.500000	92.250000	50.280000	0.000000	0.000000	142.000000	52.000000	-17.000000	-50.000000
0.510000	92.050000	49.780000	0.000000	0.000000	141.000000	52.000000	-20.000000	-50.000000
0.520000	91.810000	49.200000	0.000000	0.000000	140.000000	52.000000	-24.000000	-58.000000
0.530000	91.530000	48.640000	0.000000	0.000000	139.000000	52.000000	-28.000000	-56.000000
0.540000	91.290000	48.070000	0.000000	0.000000	139.000000	52.000000	-24.000000	-57.000000
0.550000	91.060000	47.590000	0.000000	0.000000	139.000000	52.000000	-23.000000	-48.000000
0.560000	90.870000	47.180000	0.000000	0.000000	139.000000	52.000000	-19.000000	-41.000000
0.570000	90.740000	46.880000	0.000000	0.000000	140.000000	53.000000	-13.000000	-30.000000
0.580000	90.740000	46.650000	0.000000	0.000000	140.000000	53.000000	0.000000	-23.000000
0.590000	90.690000	46.460000	0.000000	0.000000	141.000000	53.000000	-5.000000	-19.000000
0.600000	90.690000	46.460000	0.000000	0.000000	142.000000	54.000000	0.000000	0.000000
0.610000	90.690000	46.460000	0.000000	0.000000	145.000000	54.000000	0.000000	0.000000
0.620000	90.820000	46.150000	0.000000	0.000000	145.000000	54.000000	13.000000	-31.000000
0.630000	90.870000	46.150000	0.000000	0.000000	145.000000	55.000000	5.000000	0.000000
0.640000	90.950000	46.150000	0.000000	0.000000	146.000000	55.000000	8.000000	0.000000
0.650000	91.050000	46.200000	0.000000	0.000000	146.000000	55.000000	10.000000	5.000000
0.660000	91.140000	46.200000	0.000000	0.000000	147.000000	56.000000	9.000000	0.000000
0.670000	91.140000	46.200000	190.000000	1.000000	147.000000	56.000000	0.000000	0.000000
0.680000	91.140000	46.200000	249.000000	0.000000	148.000000	57.000000	0.000000	0.000000
0.690000	91.140000	46.480000	310.000000	0.000000	147.000000	58.000000	0.000000	28.000000
0.700000	91.200000	46.610000	381.000000	0.000000	149.000000	58.000000	6.000000	13.000000
0.710000	91.200000	46.740000	449.000000	0.000000	149.000000	58.000000	0.000000	13.000000
0.720000	91.270000	46.870000	465.000000	0.000000	149.000000	58.000000	7.000000	13.000000
0.730000	91.330000	47.050000	504.000000	0.000000	151.000000	58.000000	6.000000	18.000000
0.740000	91.330000	47.260000	546.000000	0.000000	151.000000	58.000000	0.000000	21.000000
0.750000	91.390000	47.530000	569.000000	0.000000	151.000000	58.000000	6.000000	27.000000
0.760000	91.390000	47.840000	608.000000	0.000000	152.000000	57.000000	0.000000	31.000000
0.770000	91.310000	48.170000	631.000000	0.000000	152.000000	57.000000	-8.000000	33.000000
0.780000	91.210000	48.360000	643.000000	0.000000	152.000000	57.000000	-10.000000	19.000000
0.790000	91.100000	48.490000	666.000000	0.000000	153.000000	56.000000	-11.000000	13.000000
0.800000	91.020000	48.490000	681.000000	0.000000	153.000000	56.000000	-8.000000	0.000000
0.810000	90.970000	48.490000	676.000000	0.000000	152.000000	56.000000	-5.000000	0.000000
0.820000	90.890000	48.430000	675.000000	0.000000	152.000000	56.000000	-8.000000	-6.000000
0.830000	90.710000	48.200000	664.000000	0.000000	152.000000	56.000000	-18.000000	-23.000000
0.840000	90.480000	47.890000	671.000000	0.000000	152.000000	56.000000	-23.000000	-31.000000
0.850000	90.360000	47.570000	670.000000	0.000000	152.000000	56.000000	-12.000000	-32.000000
0.860000	90.270000	47.250000	668.000000	0.000000	152.000000	56.000000	-9.000000	-32.000000
0.870000	90.270000	46.940000	670.000000	0.000000	150.000000	55.000000	0.000000	-31.000000
0.880000	90.270000	46.610000	668.000000	0.000000	149.000000	56.000000	0.000000	-33.000000
0.890000	90.360000	46.420000	668.000000	0.000000	151.000000	56.000000	9.000000	-19.000000
0.900000	90.510000	46.320000	670.000000	0.000000	151.000000	56.000000	15.000000	-10.000000
0.910000	90.700000	46.320000	673.000000	0.000000	150.000000	57.000000	19.000000	0.000000
0.920000	90.900000	46.430000	682.000000	0.000000	150.000000	57.000000	20.000000	11.000000
0.930000	91.100000	46.640000	684.000000	0.000000	150.000000	57.000000	20.000000	21.000000
0.940000	91.300000	46.950000	687.000000	0.000000	151.000000	58.000000	20.000000	31.000000
0.950000	91.420000	47.260000	700.000000	0.000000	151.000000	58.000000	12.000000	31.000000
0.960000	91.490000	47.560000	700.000000	0.000000	151.000000	58.000000	7.000000	30.000000
0.970000	91.440000	47.760000	721.000000	0.000000	151.000000	58.000000	-5.000000	20.000000
0.980000	91.440000	47.830000	727.000000	0.000000	152.000000	57.000000	0.000000	7.000000
0.990000	91.440000	47.830000	721.000000	0.000000	152.000000	57.000000	0.000000	0.000000
1.000000	91.440000	47.830000	719.000000	0.000000	152.000000	57.000000	0.000000	0.000000
1.010000	91.440000	47.830000	717.000000	0.000000	153.000000	56.000000	0.000000	0.000000
1.020000	91.380000	47.560000	717.000000	0.000000	153.000000	56.000000	-6.000000	-27.000000
1.030000	91.380000	47.340000	716.000000	0.000000	153.000000	56.000000	0.000000	-22.000000
1.040000	91.440000	47.110000	717.000000	0.000000	153.000000	56.000000	6.000000	-23.000000
1.050000	91.440000	46.940000	717.000000	0.000000	153.000000	56.000000	0.000000	-17.000000
1.060000	91.670000	46.800000	717.000000	0.000000	153.000000	56.000000	23.000000	-14.000000
1.070000	91.800000	46.730000	714.000000	0.000000	152.000000	57.000000	13.000000	-7.000000
1.080000	91.880000	46.730000	694.000000	0.000000	152.000000	57.000000	8.000000	0.000000
1.090000	91.970000	46.730000	637.000000	0.000000	152.000000	57.000000	9.000000	0.000000
1.100000	92.080000	46.820000	509.000000	0.000000	152.000000	57.000000	11.000000	9.000000
1.110000	92.230000	46.950000	255.000000	0.000000	152.000000	57.000000	15.000000	13.000000
1.120000	92.230000	46.950000	0.000000	1.000000	152.000000	57.000000	0.000000	0.000000
1.130000	92.480000	47.270000	0.000000	0.000000	152.000000	57.000000	25.000000	32.000000
1.140000	92.480000	47.480000	0.000000	0.000000	152.000000	57.000000	0.000000	21.000000
1.150000	92.420000	47.730000	0.000000	0.000000	151.000000	56.000000	-6.000000	25.000000
1.160000	92.370000	47.970000	0.000000	0.000000	151.000000	56.000000	-5.000000	24.000000
1.170000	92.370000	48.200000	0.000000	0.000000	151.000000	56.000000	0.000000	23.000000
1.180000	92.370000	48.380000	0.000000	0.000000	149.000000	56.000000	0.000000	18.000000
1.190000	92.370000	48.470000	0.000000	0.000000	149.000000	56.000000	0.000000	9.000000
1.200000	92.370000	48.470000	0.000000	0.000000	148.000000	56.000000	0.000000	0.000000
1.210000	92.370000	48.470000	0.000000	0.000000	146.000000	55.000000	0.000000	0.000000
1.220000	92.370000	48.470000	0.000000	0.000000	146.000000	55.000000	0.000000	0.000000
1.230000	92.370000	48.470000	213.000000	1.000000	146.000000	55.000000	0.000000	0.000000
1.240000	92.370000	48.470000	259.000000	0.000000	145.000000	55.000000	0.000000	0.000000
1.250000	92.370000	48.470000	329.000000	0.000000	145.000000	55.000000	0.000000	0.000000
1.260000	92.370000	48.470000	422.000000	0.000000	146.000000	55.000000	0.000000	0.000000
1.270000	92.270000	48.050000	488.000000	0.000000	146.000000	55.000000	-10.000000	-42.000000
1.280000	92.320000	47.740000	509.000000	0.000000	148.000000	56.000000	5.000000	-31.000000
1.290000	92.320000	47.370000	512.000000	0.000000	148.000000	56.000000	0.000000	-37.000000
1.300000	92.400000	47.030000	518.000000	0.000000	149.000000	56.000000	8.000000	-34.000000
1.310000	92.450000	46.770000	521.000000	0.000000	149.000000	56.000000	5.000000	-26.000000
1.320000	92.450000	46.550000	521.000000	0.000000	151.000000	56.000000	0.000000	-22.000000
1.330000	92.570000	46.550000	533.000000	0.000000	151.000000	56.000000	12.000000	0.000000
1.340000	92.570000	46.550000	578.000000	0.000000	150.000000	57.000000	0.000000	0.000000
1.350000	92.570000	46.620000	641.000000	0.000000	150.000000	57.000000	0.000000	7.000000
1.360000	92.570000	46.760000	636.000000	0.000000	150.000000	57.000000	0.000000	14.000000
1.370000	92.680000	47.090000	644.000000	0.000000	150.000000	57.000000	11.000000	33.000000
1.380000	92.820000	47.550000	647.000000	0.000000	150.000000	57.000000	14.000000	46.000000
1.390000	92.950000	47.900000	653.000000	0.000000	150.000000	57.000000	13.000000	35.000000
1.400000	92.950000	47.900000	662.000000	0.000000	148.000000	57.000000	0.000000	0.000000
1.410000	92.950000	47.900000	665.000000	0.000000	149.000000	56.000000	0.000000	0.000000
1.420000	92.950000	47.900000	664.000000	0.000000	149.000000	56.000000	0.000000	0.000000
1.430000	92.950000	47.900000	664.000000	0.000000	149.000000	56.000000	0.000000	0.000000
1.440000	93.200000	48.140000	670.000000	0.000000	150.000000	55.000000	25.000000	24.000000
1.450000	93.330000	48.140000	664.000000	0.000000	150.000000	55.000000	13.000000	0.000000
1.460000	93.500000	48.090000	663.000000	0.000000	150.000000	55.000000	17.000000	-5.000000
1.470000	93.630000	47.990000	663.000000	0.000000	151.000000	54.000000	13.000000	-10.000000
1.480000	93.730000	47.840000	669.000000	0.000000	150.000000	55.000000	10.000000	-15.000000
1.490000	93.820000	47.610000	681.000000	0.000000	150.000000	55.000000	9.000000	-23.000000
1.500000	93.940000	47.340000	682.000000	0.000000	150.000000	55.000000	12.000000	-27.000000
1.510000	94.010000	47.080000	684.000000	0.000000	149.000000	56.000000	7.000000	-26.000000
1.520000	94.010000	46.910000	684.000000	0.000000	149.000000	56.000000	0.000000	-17.000000
1.530000	94.130000	46.780000	682.000000	0.000000	149.000000	56.000000	12.000000	-13.000000
1.540000	94.210000	46.780000	691.000000	0.000000	148.000000	57.000000	8.000000	0.000000
1.550000	94.310000	46.780000	710.000000	0.000000	148.000000	57.000000	10.000000	0.000000
1.560000	94.500000	46.930000	731.000000	0.000000	148.000000	57.000000	19.000000	15.000000
1.570000	94.740000	47.100000	754.000000	0.000000	148.000000	57.000000	24.000000	17.000000
1.580000	94.970000	47.290000	768.000000	0.000000	148.000000	57.000000	23.000000	19.000000
1.590000	95.170000	47.500000	774.000000	0.000000	148.000000	57.000000	20.000000	21.000000
1.600000	95.300000	47.730000	771.000000	0.000000	148.000000	57.000000	13.000000	23.000000
1.610000	95.390000	47.980000	774.000000	0.000000	147.000000	56.000000	9.000000	25.000000
1.620000	95.440000	48.240000	776.000000	0.000000	148.000000	56.000000	5.000000	26.000000
1.630000	95.440000	48.590000	776.000000	0.000000	148.000000	56.000000	0.000000	35.000000
1.640000	95.370000	48.770000	788.000000	0.000000	148.000000	56.000000	-7.000000	18.000000
1.650000	95.310000	48.840000	796.000000	0.000000	148.000000	56.000000	-6.000000	7.000000
1.660000	95.260000	48.840000	790.000000	0.000000	149.000000	55.000000	-5.000000	0.000000
1.670000	95.100000	48.840000	790.000000	0.000000	147.000000	55.000000	-16.000000	0.000000
1.680000	94.870000	48.650000	785.000000	0.000000	147.000000	55.000000	-23.000000	-19.000000
1.690000	94.660000	48.400000	779.000000	0.000000	147.000000	55.000000	-21.000000	-25.000000
1.700000	94.500000	48.080000	779.000000	0.000000	146.000000	54.000000	-16.000000	-32.000000
1.710000	94.360000	47.740000	777.000000	0.000000	147.000000	55.000000	-14.000000	-34.000000
1.720000	94.220000	47.420000	776.000000	0.000000	146.000000	55.000000	-14.000000	-32.000000
1.730000	94.220000	47.150000	777.000000	0.000000	146.000000	55.000000	0.000000	-27.000000
1.740000	94.220000	46.920000	771.000000	0.000000	148.000000	56.000000	0.000000	-23.000000
1.750000	94.310000	46.710000	774.000000	0.000000	147.000000	56.000000	9.000000	-21.000000
1.760000	94.460000	46.590000	770.000000	0.000000	147.000000	56.000000	15.000000	-12.000000
1.770000	94.650000	46.540000	773.000000	0.000000	147.000000	56.000000	19.000000	-5.000000
1.780000	94.860000	46.590000	767.000000	0.000000	147.000000	56.000000	21.000000	5.000000
1.790000	95.110000	46.680000	707.000000	0.000000	147.000000	56.000000	25.000000	9.000000
1.800000	95.400000	46.810000	641.000000	0.000000	148.000000	57.000000	29.000000	13.000000
1.810000	95.670000	46.970000	491.000000	0.000000	148.000000	57.000000	27.000000	16.000000
1.820000	95.850000	47.100000	255.000000	0.000000	148.000000	57.000000	18.000000	13.000000
1.830000	95.850000	47.100000	0.000000	1.000000	148.000000	57.000000	0.000000	0.000000
1.840000	96.060000	47.250000	0.000000	0.000000	148.000000	57.000000	21.000000	15.000000
1.850000	96.120000	47.310000	0.000000	0.000000	148.000000	57.000000	6.000000	6.000000
1.860000	96.120000	47.420000	0.000000	0.000000	148.000000	57.000000	0.000000	11.000000
1.870000	96.250000	47.550000	0.000000	0.000000	148.000000	57.000000	13.000000	13.000000
1.880000	96.390000	47.770000	0.000000	0.000000	148.000000	57.000000	14.000000	22.000000
1.890000	96.570000	47.980000	0.000000	0.000000	148.000000	57.000000	18.000000	21.000000
1.900000	96.750000	48.190000	0.000000	0.000000	148.000000	57.000000	18.000000	21.000000
1.910000	96.900000	48.400000	0.000000	0.000000	149.000000	56.000000	15.000000	21.000000
1.920000	97.060000	48.550000	0.000000	0.000000	149.000000	56.000000	16.000000	15.000000
1.930000	97.060000	48.550000	247.000000	1.000000	148.000000	56.000000	0.000000	0.000000
1.940000	97.060000	48.550000	367.000000	0.000000	148.000000	56.000000	0.000000	0.000000
1.950000	97.060000	48.550000	488.000000	0.000000	148.000000	56.000000	0.000000	0.000000
1.960000	96.960000	48.830000	545.000000	0.000000	148.000000	56.000000	-10.000000	28.000000
1.970000	96.890000	48.830000	570.000000	0.000000	146.000000	55.000000	-7.000000	0.000000
1.980000	96.830000	48.880000	578.000000	0.000000	146.000000	55.000000	-6.000000	5.000000
1.990000	96.690000	48.880000	584.000000	0.000000	146.000000	55.000000	-14.000000	0.000000
2.000000	96.500000	48.720000	589.000000	0.000000	147.000000	55.000000	-19.000000	-16.000000
2.010000	96.250000	48.580000	591.000000	0.000000	147.000000	55.000000	-25.000000	-14.000000
2.020000	96.020000	48.430000	588.000000	0.000000	147.000000	55.000000	-23.000000	-15.000000
2.030000	95.850000	48.280000	588.000000	0.000000	147.000000	55.000000	-17.000000	-15.000000
2.040000	95.770000	48.200000	591.000000	0.000000	147.000000	55.000000	-8.000000	-8.000000
2.050000	95.770000	48.200000	569.000000	0.000000	147.000000	55.000000	0.000000	0.000000
2.060000	95.770000	48.200000	560.000000	0.000000	149.000000	55.000000	0.000000	0.000000
2.070000	95.860000	48.120000	561.000000	0.000000	149.000000	55.000000	9.000000	-8.000000
2.080000	95.990000	48.060000	563.000000	0.000000	149.000000	55.000000	13.000000	-6.000000
2.090000	96.200000	47.980000	563.000000	0.000000	150.000000	55.000000	21.000000	-8.000000
2.100000	96.460000	47.900000	566.000000	0.000000	150.000000	55.000000	26.000000	-8.000000
2.110000	96.710000	47.820000	566.000000	0.000000	150.000000	55.000000	25.000000	-8.000000
2.120000	96.970000	47.730000	572.000000	0.000000	150.000000	55.000000	26.000000	-9.000000
2.130000	97.200000	47.630000	572.000000	0.000000	150.000000	55.000000	23.000000	-10.000000
2.140000	97.360000	47.540000	580.000000	0.000000	152.000000	56.000000	16.000000	-9.000000
2.150000	97.450000	47.450000	595.000000	0.000000	152.000000	56.000000	9.000000	-9.000000
2.160000	97.450000	47.350000	614.000000	0.000000	151.000000	56.000000	0.000000	-10.000000
2.170000	97.450000	47.240000	639.000000	0.000000	151.000000	56.000000	0.000000	-11.000000
2.180000	97.350000	47.110000	670.000000	0.000000	151.000000	56.000000	-10.000000	-13.000000
2.190000	97.100000	46.960000	716.000000	0.000000	151.000000	56.000000	-25.000000	-15.000000
2.200000	96.810000	46.770000	733.000000	0.000000	151.000000	56.000000	-29.000000	-19.000000
2.210000	96.500000	46.640000	731.000000	0.000000	150.000000	57.000000	-31.000000	-13.000000
2.220000	96.210000	46.540000	731.000000	0.000000	150.000000	57.000000	-29.000000	-10.000000
