t	x	y	pressure	penup	azimuth	inclination	v_x	v_y
0.000000	13.420000	86.740000	50.000000	1.000000	148.000000	56.000000	0.000000	0.000000
0.010000	13.420000	87.350000	132.000000	0.000000	148.000000	56.000000	0.000000	61.000000
0.020000	13.230000	87.180000	221.000000	0.000000	148.000000	56.000000	-19.000000	-17.000000
0.030000	13.030000	86.450000	314.000000	0.000000	148.000000	56.000000	-20.000000	-73.000000
0.040000	12.780000	85.350000	471.000000	0.000000	148.000000	56.000000	-25.000000	-110.000000
0.050000	12.490000	83.550000	564.000000	0.000000	146.000000	55.000000	-29.000000	-180.000000
0.060000	12.080000	81.300000	641.000000	0.000000	146.000000	55.000000	-41.000000	-225.000000
0.070000	11.480000	78.740000	684.000000	0.000000	146.000000	55.000000	-60.000000	-256.000000
0.080000	10.750000	76.460000	740.000000	0.000000	145.000000	55.000000	-73.000000	-228.000000
0.090000	10.140000	74.680000	787.000000	0.000000	145.000000	55.000000	-61.000000	-178.000000
0.100000	9.960000	73.230000	787.000000	0.000000	145.000000	55.000000	-18.000000	-145.000000
0.110000	10.060000	72.980000	814.000000	0.000000	146.000000	54.000000	10.000000	-25.000000
0.120000	10.250000	73.430000	818.000000	0.000000	144.000000	54.000000	19.000000	45.000000
0.130000	11.070000	74.350000	809.000000	0.000000	144.000000	54.000000	82.000000	92.000000
0.140000	12.310000	76.850000	802.000000	0.000000	144.000000	54.000000	124.000000	250.000000
0.150000	13.970000	79.840000	800.000000	0.000000	145.000000	55.000000	166.000000	299.000000
0.160000	16.010000	83.150000	800.000000	0.000000	145.000000	55.000000	204.000000	331.000000
0.170000	18.290000	85.560000	802.000000	0.000000	146.000000	55.000000	228.000000	241.000000
0.180000	19.760000	86.800000	797.000000	0.000000	150.000000	55.000000	147.000000	124.000000
0.190000	20.330000	87.260000	793.000000	0.000000	152.000000	56.000000	57.000000	46.000000
0.200000	20.330000	87.150000	771.000000	0.000000	154.000000	56.000000	0.000000	-11.000000
0.210000	20.230000	87.010000	754.000000	0.000000	156.000000	57.000000	-10.000000	-14.000000
0.220000	20.020000	86.800000	694.000000	0.000000	159.000000	57.000000	-21.000000	-21.000000
0.230000	19.720000	86.610000	561.000000	0.000000	161.000000	57.000000	-30.000000	-19.000000
0.240000	19.610000	86.460000	250.000000	0.000000	163.000000	57.000000	-11.000000	-15.000000
0.250000	19.610000	86.460000	0.000000	1.000000	163.000000	57.000000	0.000000	0.000000
0.260000	19.410000	86.170000	0.000000	0.000000	163.000000	57.000000	-20.000000	-29.000000
0.270000	19.220000	85.900000	0.000000	0.000000	163.000000	57.000000	-19.000000	-27.000000
0.280000	18.960000	85.410000	0.000000	0.000000	163.000000	57.000000	-26.000000	-49.000000
0.290000	18.450000	84.780000	0.000000	0.000000	163.000000	57.000000	-51.000000	-63.000000
0.300000	17.940000	84.030000	0.000000	0.000000	162.000000	56.000000	-51.000000	-75.000000
0.310000	17.420000	83.300000	0.000000	0.000000	159.000000	55.000000	-52.000000	-73.000000
0.320000	17.020000	82.580000	0.000000	0.000000	158.000000	55.000000	-40.000000	-72.000000
0.330000	16.640000	82.000000	0.000000	0.000000	156.000000	55.000000	-38.000000	-58.000000
0.340000	16.320000	81.460000	0.000000	0.000000	154.000000	55.000000	-32.000000	-54.000000
0.350000	16.090000	80.940000	0.000000	0.000000	153.000000	55.000000	-23.000000	-52.000000
0.360000	15.830000	80.240000	0.000000	0.000000	152.000000	56.000000	-26.000000	-70.000000
0.370000	15.530000	79.490000	0.000000	0.000000	152.000000	56.000000	-30.000000	-75.000000
0.380000	15.250000	78.700000	0.000000	0.000000	152.000000	57.000000	-28.000000	-79.000000
0.390000	14.850000	77.910000	0.000000	0.000000	154.000000	57.000000	-40.000000	-79.000000
0.400000	14.380000	77.100000	0.000000	0.000000	156.000000	57.000000	-47.000000	-81.000000
0.410000	14.030000	76.490000	0.000000	0.000000	157.000000	57.000000	-35.000000	-61.000000
0.420000	13.740000	76.010000	0.000000	0.000000	158.000000	56.000000	-29.000000	-48.000000
0.430000	13.550000	75.830000	0.000000	0.000000	159.000000	55.000000	-19.000000	-18.000000
0.440000	13.460000	75.880000	0.000000	0.000000	160.000000	54.000000	-9.000000	5.000000
0.450000	13.580000	76.080000	0.000000	0.000000	158.000000	54.000000	12.000000	20.000000
0.460000	13.830000	76.260000	0.000000	0.000000	159.000000	53.000000	25.000000	18.000000
0.470000	13.960000	76.370000	0.000000	0.000000	157.000000	54.000000	13.000000	11.000000
0.480000	14.100000	76.470000	0.000000	0.000000	157.000000	54.000000	14.000000	10.000000
0.490000	14.240000	76.580000	0.000000	0.000000	156.000000	53.000000	14.000000	11.000000
0.500000	14.370000	76.670000	0.000000	0.000000	156.000000	53.000000	13.000000	9.000000
0.510000	14.490000	76.790000	0.000000	0.000000	155.000000	54.000000	12.000000	12.000000
0.520000	14.620000	76.920000	0.000000	0.000000	155.000000	54.000000	13.000000	13.000000
0.530000	14.840000	77.140000	0.000000	0.000000	155.000000	54.000000	22.000000	22.000000
0.540000	15.040000	77.350000	0.000000	0.000000	155.000000	54.000000	20.000000	21.000000
0.550000	15.180000	77.550000	0.000000	0.000000	156.000000	55.000000	14.000000	20.000000
0.560000	15.280000	77.600000	0.000000	0.000000	156.000000	55.000000	10.000000	5.000000
0.570000	15.280000	77.600000	0.000000	0.000000	156.000000	55.000000	0.000000	0.000000
0.580000	15.190000	77.530000	0.000000	0.000000	156.000000	55.000000	-9.000000	-7.000000
0.590000	15.120000	77.470000	0.000000	0.000000	155.000000	55.000000	-7.000000	-6.000000
0.600000	15.120000	77.470000	0.000000	0.000000	155.000000	55.000000	0.000000	0.000000
0.610000	15.070000	77.470000	0.000000	0.000000	155.000000	55.000000	-5.000000	0.000000
0.620000	15.070000	77.540000	0.000000	0.000000	155.000000	55.000000	0.000000	7.000000
0.630000	15.150000	77.640000	0.000000	0.000000	155.000000	55.000000	8.000000	10.000000
0.640000	15.150000	77.750000	0.000000	0.000000	155.000000	55.000000	0.000000	11.000000
0.650000	15.220000	77.850000	0.000000	0.000000	155.000000	55.000000	7.000000	10.000000
0.660000	15.220000	77.920000	0.000000	0.000000	155.000000	55.000000	0.000000	7.000000
0.670000	15.160000	77.980000	0.000000	0.000000	154.000000	55.000000	-6.000000	6.000000
0.680000	15.160000	78.030000	0.000000	0.000000	154.000000	55.000000	0.000000	5.000000
0.690000	15.160000	78.030000	94.000000	1.000000	154.000000	55.000000	0.000000	0.000000
0.700000	15.160000	78.030000	195.000000	0.000000	155.000000	54.000000	0.000000	0.000000
0.710000	14.840000	78.210000	279.000000	0.000000	155.000000	54.000000	-32.000000	18.000000
0.720000	14.640000	78.330000	353.000000	0.000000	155.000000	54.000000	-20.000000	12.000000
0.730000	14.390000	78.390000	441.000000	0.000000	155.000000	54.000000	-25.000000	6.000000
0.740000	14.070000	78.390000	477.000000	0.000000	155.000000	54.000000	-32.000000	0.000000
0.750000	13.740000	78.310000	510.000000	0.000000	156.000000	53.000000	-33.000000	-8.000000
0.760000	13.410000	78.080000	516.000000	0.000000	154.000000	53.000000	-33.000000	-23.000000
0.770000	13.130000	77.760000	538.000000	0.000000	154.000000	53.000000	-28.000000	-32.000000
0.780000	12.920000	77.370000	546.000000	0.000000	152.000000	54.000000	-21.000000	-39.000000
0.790000	12.920000	76.980000	556.000000	0.000000	152.000000	54.000000	0.000000	-39.000000
0.800000	12.990000	76.680000	569.000000	0.000000	152.000000	54.000000	7.000000	-30.000000
0.810000	13.220000	76.460000	592.000000	0.000000	150.000000	54.000000	23.000000	-22.000000
0.820000	13.470000	76.360000	620.000000	0.000000	150.000000	54.000000	25.000000	-10.000000
0.830000	13.740000	76.450000	641.000000	0.000000	150.000000	54.000000	27.000000	9.000000
0.840000	14.010000	76.680000	652.000000	0.000000	150.000000	54.000000	27.000000	23.000000
0.850000	14.240000	77.050000	668.000000	0.000000	150.000000	54.000000	23.000000	37.000000
0.860000	14.450000	77.430000	666.000000	0.000000	150.000000	54.000000	21.000000	38.000000
0.870000	14.550000	77.820000	678.000000	0.000000	151.000000	54.000000	10.000000	39.000000
0.880000	14.640000	78.060000	685.000000	0.000000	151.000000	54.000000	9.000000	24.000000
0.890000	14.730000	78.260000	685.000000	0.000000	151.000000	54.000000	9.000000	20.000000
0.900000	14.730000	78.260000	682.000000	0.000000	153.000000	54.000000	0.000000	0.000000
0.910000	14.730000	78.260000	675.000000	0.000000	153.000000	54.000000	0.000000	0.000000
0.920000	14.730000	78.200000	673.000000	0.000000	154.000000	53.000000	0.000000	-6.000000
0.930000	14.730000	78.110000	675.000000	0.000000	154.000000	53.000000	0.000000	-9.000000
0.940000	14.730000	77.930000	676.000000	0.000000	154.000000	53.000000	0.000000	-18.000000
0.950000	14.730000	77.700000	678.000000	0.000000	155.000000	52.000000	0.000000	-23.000000
0.960000	14.860000	77.440000	685.000000	0.000000	154.000000	53.000000	13.000000	-26.000000
0.970000	14.980000	77.170000	687.000000	0.000000	154.000000	53.000000	12.000000	-27.000000
0.980000	15.140000	77.040000	693.000000	0.000000	156.000000	53.000000	16.000000	-13.000000
0.990000	15.320000	77.040000	697.000000	0.000000	155.000000	54.000000	18.000000	0.000000
1.000000	15.540000	77.040000	710.000000	0.000000	155.000000	54.000000	22.000000	0.000000
1.010000	15.800000	77.260000	719.000000	0.000000	154.000000	55.000000	26.000000	22.000000
1.020000	15.990000	77.540000	730.000000	0.000000	155.000000	55.000000	19.000000	28.000000
1.030000	16.150000	77.820000	722.000000	0.000000	155.000000	55.000000	16.000000	28.000000
1.040000	16.230000	78.050000	751.000000	0.000000	155.000000	55.000000	8.000000	23.000000
1.050000	16.320000	78.260000	754.000000	0.000000	158.000000	55.000000	9.000000	21.000000
1.060000	16.320000	78.260000	753.000000	0.000000	158.000000	55.000000	0.000000	0.000000
1.070000	16.320000	78.260000	763.000000	0.000000	158.000000	54.000000	0.000000	0.000000
1.080000	16.320000	78.260000	757.000000	0.000000	160.000000	54.000000	0.000000	0.000000
1.090000	16.320000	78.170000	754.000000	0.000000	160.000000	54.000000	0.000000	-9.000000
1.100000	16.320000	78.010000	758.000000	0.000000	160.000000	53.000000	0.000000	-16.000000
1.110000	16.320000	77.810000	758.000000	0.000000	160.000000	53.000000	0.000000	-20.000000
1.120000	16.320000	77.530000	760.000000	0.000000	160.000000	53.000000	0.000000	-28.000000
1.130000	16.320000	77.180000	762.000000	0.000000	160.000000	53.000000	0.000000	-35.000000
1.140000	16.320000	76.980000	768.000000	0.000000	160.000000	54.000000	0.000000	-20.000000
1.150000	16.370000	76.880000	774.000000	0.000000	160.000000	54.000000	5.000000	-10.000000
1.160000	16.370000	76.880000	797.000000	0.000000	160.000000	54.000000	0.000000	0.000000
1.170000	16.370000	76.960000	787.000000	0.000000	159.000000	55.000000	0.000000	8.000000
1.180000	16.420000	77.130000	784.000000	0.000000	158.000000	55.000000	5.000000	17.000000
1.190000	16.580000	77.500000	787.000000	0.000000	158.000000	55.000000	16.000000	37.000000
1.200000	16.850000	77.820000	787.000000	0.000000	159.000000	55.000000	27.000000	32.000000
1.210000	17.020000	78.060000	797.000000	0.000000	159.000000	55.000000	17.000000	24.000000
1.220000	17.180000	78.190000	788.000000	0.000000	159.000000	55.000000	16.000000	13.000000
1.230000	17.320000	78.240000	771.000000	0.000000	161.000000	55.000000	14.000000	5.000000
1.240000	17.320000	78.240000	760.000000	0.000000	161.000000	55.000000	0.000000	0.000000
1.250000	17.380000	78.240000	736.000000	0.000000	162.000000	54.000000	6.000000	0.000000
1.260000	17.440000	78.150000	728.000000	0.000000	163.000000	54.000000	6.000000	-9.000000
1.270000	17.440000	78.010000	721.000000	0.000000	163.000000	54.000000	0.000000	-14.000000
1.280000	17.440000	77.830000	733.000000	0.000000	165.000000	53.000000	0.000000	-18.000000
1.290000	17.440000	77.620000	733.000000	0.000000	165.000000	53.000000	0.000000	-21.000000
1.300000	17.440000	77.380000	733.000000	0.000000	164.000000	54.000000	0.000000	-24.000000
1.310000	17.490000	77.170000	731.000000	0.000000	164.000000	54.000000	5.000000	-21.000000
1.320000	17.590000	77.030000	733.000000	0.000000	164.000000	54.000000	10.000000	-14.000000
1.330000	17.740000	76.930000	721.000000	0.000000	164.000000	55.000000	15.000000	-10.000000
1.340000	17.860000	76.930000	728.000000	0.000000	164.000000	55.000000	12.000000	0.000000
1.350000	17.960000	77.040000	740.000000	0.000000	164.000000	55.000000	10.000000	11.000000
1.360000	18.150000	77.170000	740.000000	0.000000	165.000000	56.000000	19.000000	13.000000
1.370000	18.360000	77.450000	740.000000	0.000000	165.000000	56.000000	21.000000	28.000000
1.380000	18.600000	77.730000	745.000000	0.000000	165.000000	56.000000	24.000000	28.000000
1.390000	18.810000	78.020000	749.000000	0.000000	167.000000	55.000000	21.000000	29.000000
1.400000	19.050000	78.220000	749.000000	0.000000	167.000000	55.000000	24.000000	20.000000
1.410000	19.140000	78.400000	749.000000	0.000000	169.000000	54.000000	9.000000	18.000000
1.420000	19.140000	78.580000	749.000000	0.000000	169.000000	54.000000	0.000000	18.000000
1.430000	19.140000	78.730000	746.000000	0.000000	170.000000	54.000000	0.000000	15.000000
1.440000	19.140000	78.880000	721.000000	0.000000	170.000000	54.000000	0.000000	15.000000
1.450000	19.060000	78.880000	707.000000	0.000000	171.000000	53.000000	-8.000000	0.000000
1.460000	18.960000	78.820000	691.000000	0.000000	171.000000	53.000000	-10.000000	-6.000000
1.470000	18.830000	78.600000	700.000000	0.000000	171.000000	53.000000	-13.000000	-22.000000
1.480000	18.680000	78.350000	702.000000	0.000000	171.000000	52.000000	-15.000000	-25.000000
1.490000	18.680000	78.040000	694.000000	0.000000	171.000000	53.000000	0.000000	-31.000000
1.500000	18.680000	77.690000	730.000000	0.000000	171.000000	53.000000	0.000000	-35.000000
1.510000	18.760000	77.360000	742.000000	0.000000	171.000000	53.000000	8.000000	-33.000000
1.520000	18.900000	77.130000	757.000000	0.000000	170.000000	54.000000	14.000000	-23.000000
1.530000	19.110000	76.950000	751.000000	0.000000	170.000000	54.000000	21.000000	-18.000000
1.540000	19.370000	76.950000	765.000000	0.000000	170.000000	55.000000	26.000000	0.000000
1.550000	19.640000	77.040000	785.000000	0.000000	168.000000	55.000000	27.000000	9.000000
1.560000	19.830000	77.240000	788.000000	0.000000	168.000000	55.000000	19.000000	20.000000
1.570000	19.970000	77.610000	790.000000	0.000000	168.000000	55.000000	14.000000	37.000000
1.580000	20.050000	77.960000	796.000000	0.000000	168.000000	55.000000	8.000000	35.000000
1.590000	20.150000	78.250000	797.000000	0.000000	168.000000	55.000000	10.000000	29.000000
1.600000	20.150000	78.470000	783.000000	0.000000	168.000000	55.000000	0.000000	22.000000
1.610000	20.080000	78.580000	796.000000	0.000000	169.000000	54.000000	-7.000000	11.000000
1.620000	20.080000	78.580000	774.000000	0.000000	169.000000	53.000000	0.000000	0.000000
1.630000	20.080000	78.580000	750.000000	0.000000	170.000000	54.000000	0.000000	0.000000
1.640000	20.080000	78.580000	755.000000	0.000000	171.000000	53.000000	0.000000	0.000000
1.650000	20.080000	78.480000	757.000000	0.000000	171.000000	53.000000	0.000000	-10.000000
1.660000	20.130000	78.340000	757.000000	0.000000	171.000000	53.000000	5.000000	-14.000000
1.670000	20.230000	78.160000	758.000000	0.000000	171.000000	52.000000	10.000000	-18.000000
1.680000	20.420000	78.020000	761.000000	0.000000	171.000000	53.000000	19.000000	-14.000000
1.690000	20.640000	77.900000	750.000000	0.000000	169.000000	53.000000	22.000000	-12.000000
1.700000	20.750000	77.750000	753.000000	0.000000	169.000000	53.000000	11.000000	-15.000000
1.710000	20.750000	77.610000	759.000000	0.000000	169.000000	53.000000	0.000000	-14.000000
1.720000	20.750000	77.500000	773.000000	0.000000	168.000000	53.000000	0.000000	-11.000000
1.730000	20.630000	77.400000	779.000000	0.000000	167.000000	54.000000	-12.000000	-10.000000
1.740000	20.530000	77.320000	782.000000	0.000000	167.000000	54.000000	-10.000000	-8.000000
1.750000	20.300000	77.230000	785.000000	0.000000	167.000000	54.000000	-23.000000	-9.000000
1.760000	20.240000	77.230000	782.000000	0.000000	167.000000	55.000000	-6.000000	0.000000
1.770000	20.240000	77.230000	785.000000	0.000000	167.000000	55.000000	0.000000	0.000000
1.780000	20.310000	77.230000	791.000000	0.000000	167.000000	55.000000	7.000000	0.000000
1.790000	20.360000	77.290000	784.000000	0.000000	167.000000	55.000000	5.000000	6.000000
1.800000	20.440000	77.420000	783.000000	0.000000	167.000000	55.000000	8.000000	13.000000
1.810000	20.630000	77.610000	787.000000	0.000000	167.000000	55.000000	19.000000	19.000000
1.820000	20.900000	77.860000	787.000000	0.000000	167.000000	55.000000	27.000000	25.000000
1.830000	21.100000	78.140000	790.000000	0.000000	167.000000	55.000000	20.000000	28.000000
1.840000	21.300000	78.430000	787.000000	0.000000	167.000000	54.000000	20.000000	29.000000
1.850000	21.520000	78.670000	788.000000	0.000000	167.000000	54.000000	22.000000	24.000000
1.860000	21.620000	78.840000	800.000000	0.000000	168.000000	53.000000	10.000000	17.000000
1.870000	21.620000	78.840000	817.000000	0.000000	168.000000	53.000000	0.000000	0.000000
1.880000	21.620000	78.910000	814.000000	0.000000	168.000000	52.000000	0.000000	7.000000
1.890000	21.620000	78.910000	809.000000	0.000000	168.000000	52.000000	0.000000	0.000000
1.900000	21.620000	78.910000	800.000000	0.000000	168.000000	52.000000	0.000000	0.000000
1.910000	21.570000	78.910000	788.000000	0.000000	169.000000	51.000000	-5.000000	0.000000
1.920000	21.570000	78.910000	763.000000	0.000000	169.000000	51.000000	0.000000	0.000000
1.930000	21.570000	78.780000	760.000000	0.000000	169.000000	51.000000	0.000000	-13.000000
1.940000	21.780000	78.660000	767.000000	0.000000	169.000000	51.000000	21.000000	-12.000000
1.950000	22.080000	78.490000	770.000000	0.000000	169.000000	51.000000	30.000000	-17.000000
1.960000	22.240000	78.330000	771.000000	0.000000	169.000000	51.000000	16.000000	-16.000000
1.970000	22.300000	78.170000	773.000000	0.000000	168.000000	52.000000	6.000000	-16.000000
1.980000	22.300000	78.020000	777.000000	0.000000	167.000000	52.000000	0.000000	-15.000000
1.990000	22.300000	77.860000	788.000000	0.000000	167.000000	52.000000	0.000000	-16.000000
2.000000	22.230000	77.740000	793.000000	0.000000	167.000000	52.000000	-7.000000	-12.000000
2.010000	22.160000	77.660000	820.000000	0.000000	166.000000	53.000000	-7.000000	-8.000000
2.020000	22.060000	77.590000	824.000000	0.000000	168.000000	53.000000	-10.000000	-7.000000
2.030000	21.920000	77.590000	833.000000	0.000000	168.000000	53.000000	-14.000000	0.000000
2.040000	21.750000	77.590000	837.000000	0.000000	168.000000	53.000000	-17.000000	0.000000
2.050000	21.750000	77.590000	840.000000	0.000000	168.000000	53.000000	0.000000	0.000000
2.060000	21.690000	77.590000	821.000000	0.000000	168.000000	53.000000	-6.000000	0.000000
2.070000	21.690000	77.590000	787.000000	0.000000	168.000000	53.000000	0.000000	0.000000
2.080000	21.690000	77.590000	691.000000	0.000000	168.000000	53.000000	0.000000	0.000000
2.090000	21.690000	77.590000	507.000000	0.000000	168.000000	53.000000	0.000000	0.000000
2.100000	21.690000	77.590000	176.000000	0.000000	167.000000	54.000000	0.000000	0.000000
2.110000	21.690000	77.590000	0.000000	1.000000	167.000000	54.000000	0.000000	0.000000
2.120000	22.030000	77.590000	0.000000	0.000000	166.000000	54.000000	34.000000	0.000000
2.130000	22.340000	77.670000	0.000000	0.000000	166.000000	54.000000	31.000000	8.000000
2.140000	22.630000	77.760000	0.000000	0.000000	166.000000	54.000000	29.000000	9.000000
2.150000	22.900000	77.850000	0.000000	0.000000	166.000000	54.000000	27.000000	9.000000
2.160000	23.100000	77.940000	0.000000	0.000000	164.000000	54.000000	20.000000	9.000000
2.170000	23.250000	78.040000	0.000000	0.000000	164.000000	54.000000	15.000000	10.000000
2.180000	23.250000	78.040000	148.000000	1.000000	164.000000	54.000000	0.000000	0.000000
2.190000	23.250000	78.040000	398.000000	0.000000	164.000000	54.000000	0.000000	0.000000
2.200000	23.250000	78.040000	578.000000	0.000000	164.000000	54.000000	0.000000	0.000000
2.210000	23.210000	78.350000	679.000000	0.000000	164.000000	54.000000	-4.000000	31.000000
