t	x	y	pressure	penup	azimuth	inclination	v_x	v_y
0.000000	12.470000	65.960000	80.000000	1.000000	122.000000	56.000000	0.000000	0.000000
0.010000	12.470000	65.960000	120.000000	0.000000	122.000000	56.000000	0.000000	0.000000
0.020000	12.620000	65.680000	134.000000	0.000000	122.000000	56.000000	15.000000	-28.000000
0.030000	12.570000	65.600000	146.000000	0.000000	122.000000	56.000000	-5.000000	-8.000000
0.040000	12.520000	65.500000	170.000000	0.000000	122.000000	56.000000	-5.000000	-10.000000
0.050000	12.470000	65.250000	195.000000	0.000000	121.000000	55.000000	-5.000000	-25.000000
0.060000	12.410000	64.910000	218.000000	0.000000	121.000000	55.000000	-6.000000	-34.000000
0.070000	12.350000	64.390000	254.000000	0.000000	121.000000	55.000000	-6.000000	-52.000000
0.080000	12.350000	63.730000	242.000000	0.000000	121.000000	55.000000	0.000000	-66.000000
0.090000	12.270000	62.990000	262.000000	0.000000	123.000000	55.000000	-8.000000	-74.000000
0.100000	12.210000	62.230000	270.000000	0.000000	124.000000	54.000000	-6.000000	-76.000000
0.110000	12.140000	61.470000	276.000000	0.000000	124.000000	54.000000	-7.000000	-76.000000
0.120000	12.080000	60.760000	309.000000	0.000000	125.000000	54.000000	-6.000000	-71.000000
0.130000	12.080000	60.080000	320.000000	0.000000	125.000000	54.000000	0.000000	-68.000000
0.140000	12.030000	59.530000	325.000000	0.000000	125.000000	54.000000	-5.000000	-55.000000
0.150000	12.030000	59.260000	335.000000	0.000000	127.000000	53.000000	0.000000	-27.000000
0.160000	12.100000	59.170000	334.000000	0.000000	127.000000	53.000000	7.000000	-9.000000
0.170000	12.220000	59.340000	351.000000	0.000000	125.000000	54.000000	12.000000	17.000000
0.180000	12.380000	59.730000	369.000000	0.000000	125.000000	54.000000	16.000000	39.000000
0.190000	12.600000	60.270000	367.000000	0.000000	125.000000	54.000000	22.000000	54.000000
0.200000	12.840000	60.850000	367.000000	0.000000	125.000000	54.000000	24.000000	58.000000
0.210000	13.090000	61.600000	367.000000	0.000000	125.000000	54.000000	25.000000	75.000000
0.220000	13.360000	62.470000	366.000000	0.000000	125.000000	54.000000	27.000000	87.000000
0.230000	13.630000	63.430000	369.000000	0.000000	125.000000	54.000000	27.000000	96.000000
0.240000	13.910000	64.480000	369.000000	0.000000	125.000000	54.000000	28.000000	105.000000
0.250000	14.180000	65.600000	373.000000	0.000000	124.000000	54.000000	27.000000	112.000000
0.260000	14.290000	66.270000	305.000000	0.000000	124.000000	54.000000	11.000000	67.000000
0.270000	14.290000	66.460000	53.000000	0.000000	124.000000	54.000000	0.000000	19.000000
0.280000	14.290000	66.460000	0.000000	1.000000	123.000000	55.000000	0.000000	0.000000
0.290000	13.850000	65.790000	0.000000	0.000000	123.000000	55.000000	-44.000000	-67.000000
0.300000	13.440000	65.200000	0.000000	0.000000	121.000000	55.000000	-41.000000	-59.000000
0.310000	13.110000	64.570000	0.000000	0.000000	121.000000	55.000000	-33.000000	-63.000000
0.320000	12.820000	63.970000	0.000000	0.000000	121.000000	55.000000	-29.000000	-60.000000
0.330000	12.600000	63.380000	0.000000	0.000000	123.000000	55.000000	-22.000000	-59.000000
0.340000	12.600000	62.830000	0.000000	0.000000	123.000000	55.000000	0.000000	-55.000000
0.350000	12.600000	62.370000	0.000000	0.000000	124.000000	54.000000	0.000000	-46.000000
0.360000	12.790000	61.980000	0.000000	0.000000	124.000000	54.000000	19.000000	-39.000000
0.370000	12.970000	61.590000	0.000000	0.000000	125.000000	54.000000	18.000000	-39.000000
0.380000	13.160000	61.360000	0.000000	0.000000	125.000000	54.000000	19.000000	-23.000000
0.390000	13.360000	61.230000	0.000000	0.000000	125.000000	54.000000	20.000000	-13.000000
0.400000	13.600000	61.230000	0.000000	0.000000	127.000000	53.000000	24.000000	0.000000
0.410000	13.840000	61.310000	0.000000	0.000000	125.000000	54.000000	24.000000	8.000000
0.420000	14.100000	61.440000	0.000000	0.000000	125.000000	54.000000	26.000000	13.000000
0.430000	14.370000	61.550000	0.000000	0.000000	125.000000	54.000000	27.000000	11.000000
0.440000	14.370000	61.550000	91.000000	1.000000	125.000000	54.000000	0.000000	0.000000
0.450000	14.710000	61.760000	139.000000	0.000000	125.000000	54.000000	34.000000	21.000000
0.460000	14.570000	61.930000	160.000000	0.000000	125.000000	54.000000	-14.000000	17.000000
0.470000	14.440000	62.140000	173.000000	0.000000	127.000000	53.000000	-13.000000	21.000000
0.480000	14.330000	62.260000	198.000000	0.000000	127.000000	53.000000	-11.000000	12.000000
0.490000	14.230000	62.370000	225.000000	0.000000	127.000000	53.000000	-10.000000	11.000000
0.500000	14.150000	62.480000	246.000000	0.000000	128.000000	53.000000	-8.000000	11.000000
0.510000	14.080000	62.560000	274.000000	0.000000	128.000000	53.000000	-7.000000	8.000000
0.520000	14.080000	62.560000	282.000000	0.000000	128.000000	53.000000	0.000000	0.000000
0.530000	14.020000	62.560000	282.000000	0.000000	129.000000	52.000000	-6.000000	0.000000
0.540000	13.950000	62.280000	285.000000	0.000000	129.000000	52.000000	-7.000000	-28.000000
0.550000	13.840000	61.910000	273.000000	0.000000	129.000000	52.000000	-11.000000	-37.000000
0.560000	13.760000	61.490000	274.000000	0.000000	129.000000	52.000000	-8.000000	-42.000000
0.570000	13.700000	61.080000	276.000000	0.000000	129.000000	52.000000	-6.000000	-41.000000
0.580000	13.700000	60.750000	279.000000	0.000000	128.000000	53.000000	0.000000	-33.000000
0.590000	13.760000	60.470000	274.000000	0.000000	128.000000	53.000000	6.000000	-28.000000
0.600000	13.880000	60.270000	281.000000	0.000000	128.000000	53.000000	12.000000	-20.000000
0.610000	14.060000	60.150000	279.000000	0.000000	128.000000	53.000000	18.000000	-12.000000
0.620000	14.260000	60.080000	281.000000	0.000000	128.000000	53.000000	20.000000	-7.000000
0.630000	14.460000	60.080000	281.000000	0.000000	128.000000	53.000000	20.000000	0.000000
0.640000	14.620000	60.250000	286.000000	0.000000	128.000000	53.000000	16.000000	17.000000
0.650000	14.740000	60.460000	289.000000	0.000000	128.000000	53.000000	12.000000	21.000000
0.660000	14.880000	60.800000	284.000000	0.000000	128.000000	53.000000	14.000000	34.000000
0.670000	14.950000	61.150000	284.000000	0.000000	128.000000	53.000000	7.000000	35.000000
0.680000	14.950000	61.500000	291.000000	0.000000	128.000000	53.000000	0.000000	35.000000
0.690000	14.950000	61.630000	294.000000	0.000000	128.000000	53.000000	0.000000	13.000000
0.700000	15.000000	61.700000	291.000000	0.000000	128.000000	53.000000	5.000000	7.000000
0.710000	15.000000	61.700000	291.000000	0.000000	128.000000	53.000000	0.000000	0.000000
0.720000	15.000000	61.550000	291.000000	0.000000	128.000000	53.000000	0.000000	-15.000000
0.730000	15.000000	61.280000	287.000000	0.000000	128.000000	53.000000	0.000000	-27.000000
0.740000	15.000000	60.920000	282.000000	0.000000	128.000000	53.000000	0.000000	-36.000000
0.750000	14.940000	60.560000	287.000000	0.000000	128.000000	53.000000	-6.000000	-36.000000
0.760000	15.010000	60.300000	259.000000	0.000000	128.000000	53.000000	7.000000	-26.000000
0.770000	15.110000	60.120000	185.000000	0.000000	128.000000	53.000000	10.000000	-18.000000
0.780000	15.260000	60.010000	90.000000	0.000000	128.000000	53.000000	15.000000	-11.000000
0.790000	15.260000	60.010000	0.000000	1.000000	129.000000	53.000000	0.000000	0.000000
0.800000	15.640000	59.960000	0.000000	0.000000	129.000000	53.000000	38.000000	-5.000000
0.810000	15.870000	60.110000	0.000000	0.000000	128.000000	54.000000	23.000000	15.000000
0.820000	16.000000	60.420000	0.000000	0.000000	128.000000	54.000000	13.000000	31.000000
0.830000	16.060000	60.830000	0.000000	0.000000	125.000000	54.000000	6.000000	41.000000
0.840000	16.210000	61.300000	0.000000	0.000000	124.000000	53.000000	15.000000	47.000000
0.850000	16.430000	61.760000	0.000000	0.000000	123.000000	52.000000	22.000000	46.000000
0.860000	16.650000	62.210000	0.000000	0.000000	122.000000	53.000000	22.000000	45.000000
0.870000	16.860000	62.440000	0.000000	0.000000	122.000000	53.000000	21.000000	23.000000
0.880000	16.940000	62.520000	0.000000	0.000000	121.000000	52.000000	8.000000	8.000000
0.890000	16.940000	62.520000	0.000000	0.000000	121.000000	52.000000	0.000000	0.000000
0.900000	16.940000	62.520000	73.000000	1.000000	121.000000	52.000000	0.000000	0.000000
0.910000	16.940000	62.520000	107.000000	0.000000	121.000000	52.000000	0.000000	0.000000
0.920000	16.940000	62.520000	175.000000	0.000000	122.000000	53.000000	0.000000	0.000000
0.930000	16.560000	62.320000	190.000000	0.000000	122.000000	53.000000	-38.000000	-20.000000
0.940000	16.560000	62.210000	195.000000	0.000000	122.000000	53.000000	0.000000	-11.000000
0.950000	16.560000	62.100000	210.000000	0.000000	122.000000	53.000000	0.000000	-11.000000
0.960000	16.630000	61.920000	218.000000	0.000000	122.000000	53.000000	7.000000	-18.000000
0.970000	16.680000	61.660000	222.000000	0.000000	122.000000	51.000000	5.000000	-26.000000
0.980000	16.730000	61.340000	221.000000	0.000000	122.000000	51.000000	5.000000	-32.000000
0.990000	16.730000	60.980000	228.000000	0.000000	122.000000	51.000000	0.000000	-36.000000
1.000000	16.780000	60.610000	233.000000	0.000000	122.000000	51.000000	5.000000	-37.000000
1.010000	16.780000	60.310000	237.000000	0.000000	122.000000	51.000000	0.000000	-30.000000
1.020000	16.780000	60.050000	239.000000	0.000000	121.000000	52.000000	0.000000	-26.000000
1.030000	16.780000	59.970000	237.000000	0.000000	121.000000	52.000000	0.000000	-8.000000
1.040000	16.890000	60.040000	244.000000	0.000000	121.000000	52.000000	11.000000	7.000000
1.050000	16.980000	60.210000	253.000000	0.000000	121.000000	52.000000	9.000000	17.000000
1.060000	17.100000	60.570000	251.000000	0.000000	122.000000	53.000000	12.000000	36.000000
1.070000	17.240000	60.980000	251.000000	0.000000	122.000000	53.000000	14.000000	41.000000
1.080000	17.350000	61.420000	254.000000	0.000000	122.000000	53.000000	11.000000	44.000000
1.090000	17.430000	61.740000	254.000000	0.000000	122.000000	53.000000	8.000000	32.000000
1.100000	17.480000	61.990000	254.000000	0.000000	123.000000	53.000000	5.000000	25.000000
1.110000	17.480000	62.130000	256.000000	0.000000	123.000000	53.000000	0.000000	14.000000
1.120000	17.480000	62.190000	242.000000	0.000000	123.000000	53.000000	0.000000	6.000000
1.130000	17.480000	62.190000	254.000000	0.000000	123.000000	53.000000	0.000000	0.000000
1.140000	17.480000	62.190000	254.000000	0.000000	125.000000	54.000000	0.000000	0.000000
1.150000	17.480000	62.080000	254.000000	0.000000	125.000000	54.000000	0.000000	-11.000000
1.160000	17.480000	61.860000	249.000000	0.000000	125.000000	54.000000	0.000000	-22.000000
1.170000	17.480000	61.550000	253.000000	0.000000	125.000000	54.000000	0.000000	-31.000000
1.180000	17.580000	61.260000	254.000000	0.000000	125.000000	54.000000	10.000000	-29.000000
1.190000	17.690000	60.970000	253.000000	0.000000	125.000000	54.000000	11.000000	-29.000000
1.200000	17.840000	60.750000	256.000000	0.000000	125.000000	54.000000	15.000000	-22.000000
1.210000	18.030000	60.570000	256.000000	0.000000	125.000000	54.000000	19.000000	-18.000000
1.220000	18.240000	60.490000	256.000000	0.000000	125.000000	54.000000	21.000000	-8.000000
1.230000	18.450000	60.490000	256.000000	0.000000	125.000000	54.000000	21.000000	0.000000
1.240000	18.620000	60.490000	241.000000	0.000000	125.000000	54.000000	17.000000	0.000000
1.250000	18.760000	60.600000	242.000000	0.000000	125.000000	54.000000	14.000000	11.000000
1.260000	18.910000	60.820000	241.000000	0.000000	125.000000	54.000000	15.000000	22.000000
1.270000	19.000000	61.110000	245.000000	0.000000	125.000000	54.000000	9.000000	29.000000
1.280000	19.050000	61.450000	241.000000	0.000000	125.000000	54.000000	5.000000	34.000000
1.290000	19.130000	61.780000	254.000000	0.000000	125.000000	54.000000	8.000000	33.000000
1.300000	19.130000	62.100000	246.000000	0.000000	125.000000	54.000000	0.000000	32.000000
1.310000	19.130000	62.430000	244.000000	0.000000	125.000000	54.000000	0.000000	33.000000
1.320000	19.080000	62.690000	247.000000	0.000000	125.000000	54.000000	-5.000000	26.000000
1.330000	18.980000	62.850000	247.000000	0.000000	125.000000	54.000000	-10.000000	16.000000
1.340000	18.840000	62.850000	240.000000	0.000000	125.000000	54.000000	-14.000000	0.000000
1.350000	18.630000	62.710000	242.000000	0.000000	125.000000	54.000000	-21.000000	-14.000000
1.360000	18.410000	62.420000	246.000000	0.000000	125.000000	54.000000	-22.000000	-29.000000
1.370000	18.190000	62.090000	247.000000	0.000000	125.000000	54.000000	-22.000000	-33.000000
1.380000	18.060000	61.710000	254.000000	0.000000	126.000000	54.000000	-13.000000	-38.000000
1.390000	17.980000	61.360000	247.000000	0.000000	126.000000	54.000000	-8.000000	-35.000000
1.400000	17.980000	61.020000	246.000000	0.000000	126.000000	54.000000	0.000000	-34.000000
1.410000	18.120000	60.680000	225.000000	0.000000	125.000000	55.000000	14.000000	-34.000000
1.420000	18.290000	60.410000	139.000000	0.000000	125.000000	55.000000	17.000000	-27.000000
1.430000	18.550000	60.180000	12.000000	1.000000	125.000000	55.000000	0.000000	0.000000
1.440000	18.550000	60.180000	0.000000	0.000000	125.000000	55.000000	0.000000	0.000000
1.450000	19.240000	60.040000	0.000000	0.000000	124.000000	55.000000	69.000000	-14.000000
1.460000	19.540000	60.190000	0.000000	0.000000	124.000000	55.000000	30.000000	15.000000
1.470000	19.770000	60.470000	0.000000	0.000000	123.000000	55.000000	23.000000	28.000000
1.480000	19.940000	60.780000	0.000000	0.000000	121.000000	55.000000	17.000000	31.000000
1.490000	20.060000	61.100000	0.000000	0.000000	120.000000	54.000000	12.000000	32.000000
1.500000	20.190000	61.390000	0.000000	0.000000	120.000000	54.000000	13.000000	29.000000
1.510000	20.310000	61.660000	0.000000	0.000000	119.000000	53.000000	12.000000	27.000000
1.520000	20.410000	61.870000	0.000000	0.000000	119.000000	53.000000	10.000000	21.000000
1.530000	20.470000	62.050000	0.000000	0.000000	119.000000	53.000000	6.000000	18.000000
1.540000	20.520000	62.220000	0.000000	0.000000	118.000000	53.000000	5.000000	17.000000
1.550000	20.520000	62.370000	0.000000	0.000000	120.000000	52.000000	0.000000	15.000000
1.560000	20.630000	62.500000	0.000000	0.000000	120.000000	52.000000	11.000000	13.000000
1.570000	20.710000	62.600000	0.000000	0.000000	119.000000	51.000000	8.000000	10.000000
1.580000	20.810000	62.650000	0.000000	0.000000	119.000000	51.000000	10.000000	5.000000
1.590000	20.910000	62.650000	0.000000	0.000000	121.000000	52.000000	10.000000	0.000000
1.600000	21.010000	62.650000	0.000000	0.000000	121.000000	52.000000	10.000000	0.000000
1.610000	21.010000	62.650000	76.000000	1.000000	121.000000	52.000000	0.000000	0.000000
1.620000	21.010000	62.650000	132.000000	0.000000	122.000000	53.000000	0.000000	0.000000
1.630000	21.010000	62.650000	212.000000	0.000000	122.000000	53.000000	0.000000	0.000000
1.640000	20.690000	62.650000	246.000000	0.000000	122.000000	53.000000	-32.000000	0.000000
1.650000	20.520000	62.650000	254.000000	0.000000	124.000000	53.000000	-17.000000	0.000000
1.660000	20.380000	62.590000	279.000000	0.000000	124.000000	53.000000	-14.000000	-6.000000
1.670000	20.250000	62.590000	273.000000	0.000000	124.000000	53.000000	-13.000000	0.000000
1.680000	20.160000	62.590000	274.000000	0.000000	124.000000	53.000000	-9.000000	0.000000
1.690000	20.060000	62.590000	279.000000	0.000000	124.000000	53.000000	-10.000000	0.000000
1.700000	19.910000	62.590000	279.000000	0.000000	124.000000	53.000000	-15.000000	0.000000
1.710000	19.780000	62.500000	284.000000	0.000000	125.000000	54.000000	-13.000000	-9.000000
1.720000	19.660000	62.450000	301.000000	0.000000	125.000000	54.000000	-12.000000	-5.000000
1.730000	19.550000	62.370000	304.000000	0.000000	125.000000	54.000000	-11.000000	-8.000000
1.740000	19.500000	62.300000	309.000000	0.000000	125.000000	54.000000	-5.000000	-7.000000
1.750000	19.500000	62.220000	304.000000	0.000000	125.000000	54.000000	0.000000	-8.000000
1.760000	19.500000	62.160000	304.000000	0.000000	125.000000	54.000000	0.000000	-6.000000
1.770000	19.640000	62.100000	273.000000	0.000000	125.000000	54.000000	14.000000	-6.000000
1.780000	19.820000	61.990000	255.000000	0.000000	125.000000	54.000000	18.000000	-11.000000
1.790000	20.090000	61.900000	246.000000	0.000000	125.000000	54.000000	27.000000	-9.000000
1.800000	20.310000	61.830000	246.000000	0.000000	125.000000	54.000000	22.000000	-7.000000
1.810000	20.500000	61.720000	244.000000	0.000000	125.000000	54.000000	19.000000	-11.000000
1.820000	20.590000	61.590000	246.000000	0.000000	124.000000	53.000000	9.000000	-13.000000
1.830000	20.590000	61.410000	249.000000	0.000000	123.000000	53.000000	0.000000	-18.000000
1.840000	20.520000	61.200000	253.000000	0.000000	123.000000	53.000000	-7.000000	-21.000000
1.850000	20.360000	60.970000	247.000000	0.000000	123.000000	53.000000	-16.000000	-23.000000
1.860000	20.210000	60.750000	249.000000	0.000000	123.000000	53.000000	-15.000000	-22.000000
1.870000	20.030000	60.600000	250.000000	0.000000	123.000000	53.000000	-18.000000	-15.000000
1.880000	19.820000	60.510000	250.000000	0.000000	123.000000	53.000000	-21.000000	-9.000000
1.890000	19.610000	60.460000	244.000000	0.000000	123.000000	53.000000	-21.000000	-5.000000
1.900000	19.430000	60.460000	256.000000	0.000000	123.000000	53.000000	-18.000000	0.000000
1.910000	19.430000	60.460000	213.000000	0.000000	124.000000	54.000000	0.000000	0.000000
1.920000	19.430000	60.460000	91.000000	0.000000	124.000000	54.000000	0.000000	0.000000
1.930000	19.430000	60.460000	0.000000	1.000000	124.000000	54.000000	0.000000	0.000000
1.940000	19.490000	60.760000	0.000000	0.000000	124.000000	54.000000	6.000000	30.000000
1.950000	19.680000	60.930000	0.000000	0.000000	123.000000	55.000000	19.000000	17.000000
1.960000	19.880000	61.110000	0.000000	0.000000	123.000000	55.000000	20.000000	18.000000
1.970000	20.080000	61.300000	0.000000	0.000000	123.000000	55.000000	20.000000	19.000000
1.980000	20.290000	61.530000	0.000000	0.000000	123.000000	55.000000	21.000000	23.000000
1.990000	20.550000	61.760000	0.000000	0.000000	122.000000	54.000000	26.000000	23.000000
2.000000	20.860000	62.000000	0.000000	0.000000	122.000000	54.000000	31.000000	24.000000
2.010000	21.240000	62.260000	0.000000	0.000000	122.000000	54.000000	38.000000	26.000000
2.020000	21.660000	62.460000	0.000000	0.000000	121.000000	53.000000	42.000000	20.000000
2.030000	21.960000	62.620000	0.000000	0.000000	121.000000	53.000000	30.000000	16.000000
2.040000	22.190000	62.720000	0.000000	0.000000	121.000000	53.000000	23.000000	10.000000
2.050000	22.360000	62.720000	0.000000	0.000000	120.000000	52.000000	17.000000	0.000000
2.060000	22.420000	62.720000	0.000000	0.000000	121.000000	52.000000	6.000000	0.000000
2.070000	22.420000	62.720000	96.000000	1.000000	121.000000	52.000000	0.000000	0.000000
2.080000	22.420000	62.720000	129.000000	0.000000	122.000000	53.000000	0.000000	0.000000
2.090000	22.420000	62.720000	205.000000	0.000000	122.000000	53.000000	0.000000	0.000000
2.100000	22.060000	62.870000	233.000000	0.000000	122.000000	53.000000	-36.000000	15.000000
2.110000	21.920000	62.870000	251.000000	0.000000	123.000000	52.000000	-14.000000	0.000000
2.120000	21.780000	62.800000	260.000000	0.000000	123.000000	52.000000	-14.000000	-7.000000
2.130000	21.600000	62.680000	273.000000	0.000000	124.000000	53.000000	-18.000000	-12.000000
2.140000	21.390000	62.510000	287.000000	0.000000	124.000000	53.000000	-21.000000	-17.000000
2.150000	21.130000	62.310000	314.000000	0.000000	124.000000	53.000000	-26.000000	-20.000000
2.160000	20.890000	62.110000	343.000000	0.000000	124.000000	53.000000	-24.000000	-20.000000
2.170000	20.670000	61.970000	349.000000	0.000000	124.000000	53.000000	-22.000000	-14.000000
2.180000	20.530000	61.850000	363.000000	0.000000	124.000000	53.000000	-14.000000	-12.000000
2.190000	20.440000	61.720000	361.000000	0.000000	124.000000	53.000000	-9.000000	-13.000000
2.200000	20.440000	61.670000	361.000000	0.000000	124.000000	53.000000	0.000000	-5.000000
2.210000	20.500000	61.670000	361.000000	0.000000	124.000000	53.000000	6.000000	0.000000
2.220000	20.600000	61.670000	358.000000	0.000000	124.000000	53.000000	10.000000	0.000000
