t	x	y	pressure	penup	azimuth	inclination	v_x	v_y
0.000000	51.750000	18.750000	180.000000	1.000000	113.000000	51.000000	0.000000	0.000000
0.010000	52.020000	18.330000	191.000000	0.000000	113.000000	51.000000	27.000000	-42.000000
0.020000	51.970000	18.150000	143.000000	0.000000	114.000000	51.000000	-5.000000	-18.000000
0.030000	51.970000	18.150000	173.000000	0.000000	115.000000	52.000000	0.000000	0.000000
0.040000	52.110000	18.330000	210.000000	0.000000	115.000000	52.000000	14.000000	18.000000
0.050000	52.340000	18.690000	311.000000	0.000000	116.000000	53.000000	23.000000	36.000000
0.060000	52.650000	19.210000	404.000000	0.000000	116.000000	53.000000	31.000000	52.000000
0.070000	52.990000	20.260000	521.000000	0.000000	116.000000	53.000000	34.000000	105.000000
0.080000	53.380000	21.670000	563.000000	0.000000	117.000000	53.000000	39.000000	141.000000
0.090000	53.840000	23.260000	617.000000	0.000000	117.000000	53.000000	46.000000	159.000000
0.100000	54.650000	25.180000	640.000000	0.000000	117.000000	53.000000	81.000000	192.000000
0.110000	55.690000	27.330000	646.000000	0.000000	117.000000	53.000000	104.000000	215.000000
0.120000	57.080000	29.840000	653.000000	0.000000	118.000000	53.000000	139.000000	251.000000
0.130000	58.470000	32.030000	664.000000	0.000000	118.000000	53.000000	139.000000	219.000000
0.140000	59.490000	34.010000	664.000000	0.000000	121.000000	53.000000	102.000000	198.000000
0.150000	60.250000	35.080000	667.000000	0.000000	122.000000	53.000000	76.000000	107.000000
0.160000	60.470000	35.540000	670.000000	0.000000	123.000000	53.000000	22.000000	46.000000
0.170000	60.410000	35.600000	655.000000	0.000000	125.000000	54.000000	-6.000000	6.000000
0.180000	60.160000	35.510000	637.000000	0.000000	127.000000	53.000000	-25.000000	-9.000000
0.190000	59.500000	34.830000	630.000000	0.000000	128.000000	54.000000	-66.000000	-68.000000
0.200000	58.600000	33.760000	619.000000	0.000000	129.000000	53.000000	-90.000000	-107.000000
0.210000	57.530000	32.080000	613.000000	0.000000	129.000000	53.000000	-107.000000	-168.000000
0.220000	56.230000	30.220000	606.000000	0.000000	129.000000	53.000000	-130.000000	-186.000000
0.230000	55.190000	28.230000	622.000000	0.000000	128.000000	53.000000	-104.000000	-199.000000
0.240000	54.330000	26.280000	634.000000	0.000000	127.000000	52.000000	-86.000000	-195.000000
0.250000	54.000000	24.980000	631.000000	0.000000	127.000000	52.000000	-33.000000	-130.000000
0.260000	54.200000	24.110000	630.000000	0.000000	124.000000	52.000000	20.000000	-87.000000
0.270000	54.760000	23.860000	634.000000	0.000000	122.000000	51.000000	56.000000	-25.000000
0.280000	55.730000	24.510000	636.000000	0.000000	121.000000	52.000000	97.000000	65.000000
0.290000	57.360000	25.770000	640.000000	0.000000	120.000000	52.000000	163.000000	126.000000
0.300000	59.430000	27.810000	643.000000	0.000000	120.000000	52.000000	207.000000	204.000000
0.310000	61.250000	29.920000	641.000000	0.000000	120.000000	52.000000	182.000000	211.000000
0.320000	62.820000	32.090000	647.000000	0.000000	121.000000	53.000000	157.000000	217.000000
0.330000	64.230000	33.660000	645.000000	0.000000	122.000000	53.000000	141.000000	157.000000
0.340000	64.900000	34.350000	638.000000	0.000000	123.000000	52.000000	67.000000	69.000000
0.350000	64.900000	34.460000	642.000000	0.000000	125.000000	53.000000	0.000000	11.000000
0.360000	64.500000	33.990000	649.000000	0.000000	125.000000	53.000000	-40.000000	-47.000000
0.370000	63.440000	32.670000	676.000000	0.000000	127.000000	52.000000	-106.000000	-132.000000
0.380000	62.020000	30.780000	690.000000	0.000000	129.000000	52.000000	-142.000000	-189.000000
0.390000	60.360000	28.610000	697.000000	0.000000	129.000000	52.000000	-166.000000	-217.000000
0.400000	58.930000	26.180000	720.000000	0.000000	129.000000	52.000000	-143.000000	-243.000000
0.410000	57.650000	23.580000	758.000000	0.000000	130.000000	53.000000	-128.000000	-260.000000
0.420000	56.480000	21.290000	753.000000	0.000000	129.000000	53.000000	-117.000000	-229.000000
0.430000	55.980000	19.850000	751.000000	0.000000	129.000000	53.000000	-50.000000	-144.000000
0.440000	55.980000	18.990000	751.000000	0.000000	128.000000	54.000000	0.000000	-86.000000
0.450000	56.360000	18.990000	754.000000	0.000000	127.000000	53.000000	38.000000	0.000000
0.460000	57.090000	19.990000	763.000000	0.000000	125.000000	54.000000	73.000000	100.000000
0.470000	58.240000	21.720000	752.000000	0.000000	125.000000	54.000000	115.000000	173.000000
0.480000	59.670000	24.200000	740.000000	0.000000	124.000000	54.000000	143.000000	248.000000
0.490000	60.760000	26.810000	728.000000	0.000000	124.000000	54.000000	109.000000	261.000000
0.500000	61.720000	29.510000	736.000000	0.000000	124.000000	54.000000	96.000000	270.000000
0.510000	62.590000	31.710000	727.000000	0.000000	124.000000	54.000000	87.000000	220.000000
0.520000	62.970000	33.520000	724.000000	0.000000	125.000000	54.000000	38.000000	181.000000
0.530000	62.860000	35.080000	731.000000	0.000000	125.000000	54.000000	-11.000000	156.000000
0.540000	62.430000	35.680000	700.000000	0.000000	127.000000	53.000000	-43.000000	60.000000
0.550000	61.500000	35.590000	652.000000	0.000000	127.000000	53.000000	-93.000000	-9.000000
0.560000	60.200000	35.030000	641.000000	0.000000	128.000000	53.000000	-130.000000	-56.000000
0.570000	58.660000	33.840000	643.000000	0.000000	128.000000	53.000000	-154.000000	-119.000000
0.580000	57.170000	32.180000	638.000000	0.000000	128.000000	53.000000	-149.000000	-166.000000
0.590000	55.770000	30.200000	643.000000	0.000000	129.000000	52.000000	-140.000000	-198.000000
0.600000	54.420000	28.020000	659.000000	0.000000	127.000000	52.000000	-135.000000	-218.000000
0.610000	53.470000	25.830000	666.000000	0.000000	127.000000	52.000000	-95.000000	-219.000000
0.620000	52.920000	23.630000	684.000000	0.000000	126.000000	51.000000	-55.000000	-220.000000
0.630000	52.640000	22.050000	681.000000	0.000000	123.000000	51.000000	-28.000000	-158.000000
0.640000	53.030000	21.420000	697.000000	0.000000	123.000000	51.000000	39.000000	-63.000000
0.650000	53.750000	21.420000	714.000000	0.000000	121.000000	51.000000	72.000000	0.000000
0.660000	54.690000	22.330000	724.000000	0.000000	120.000000	51.000000	94.000000	91.000000
0.670000	55.920000	24.010000	727.000000	0.000000	118.000000	51.000000	123.000000	168.000000
0.680000	57.280000	26.210000	730.000000	0.000000	119.000000	51.000000	136.000000	220.000000
0.690000	58.720000	28.680000	731.000000	0.000000	119.000000	51.000000	144.000000	247.000000
0.700000	59.800000	30.700000	731.000000	0.000000	119.000000	51.000000	108.000000	202.000000
0.710000	60.450000	32.430000	730.000000	0.000000	121.000000	52.000000	65.000000	173.000000
0.720000	60.810000	33.410000	728.000000	0.000000	122.000000	53.000000	36.000000	98.000000
0.730000	60.740000	33.800000	725.000000	0.000000	124.000000	53.000000	-7.000000	39.000000
0.740000	60.480000	33.800000	690.000000	0.000000	124.000000	53.000000	-26.000000	0.000000
0.750000	60.100000	33.380000	694.000000	0.000000	127.000000	53.000000	-38.000000	-42.000000
0.760000	59.560000	32.520000	685.000000	0.000000	128.000000	53.000000	-54.000000	-86.000000
0.770000	59.040000	31.360000	679.000000	0.000000	129.000000	53.000000	-52.000000	-116.000000
0.780000	58.610000	30.160000	679.000000	0.000000	130.000000	53.000000	-43.000000	-120.000000
0.790000	58.280000	28.930000	681.000000	0.000000	129.000000	52.000000	-33.000000	-123.000000
0.800000	58.010000	27.630000	682.000000	0.000000	129.000000	52.000000	-27.000000	-130.000000
0.810000	57.790000	26.310000	681.000000	0.000000	127.000000	52.000000	-22.000000	-132.000000
0.820000	57.790000	25.460000	681.000000	0.000000	127.000000	52.000000	0.000000	-85.000000
0.830000	58.000000	24.970000	676.000000	0.000000	124.000000	52.000000	21.000000	-49.000000
0.840000	58.250000	24.720000	685.000000	0.000000	123.000000	52.000000	25.000000	-25.000000
0.850000	58.520000	24.900000	691.000000	0.000000	122.000000	53.000000	27.000000	18.000000
0.860000	58.950000	25.560000	693.000000	0.000000	121.000000	53.000000	43.000000	66.000000
0.870000	59.490000	26.540000	687.000000	0.000000	119.000000	53.000000	54.000000	98.000000
0.880000	60.000000	27.740000	690.000000	0.000000	119.000000	53.000000	51.000000	120.000000
0.890000	60.520000	28.890000	694.000000	0.000000	120.000000	54.000000	52.000000	115.000000
0.900000	61.010000	30.000000	699.000000	0.000000	122.000000	54.000000	49.000000	111.000000
0.910000	61.270000	30.550000	696.000000	0.000000	123.000000	53.000000	26.000000	55.000000
0.920000	61.390000	30.820000	699.000000	0.000000	125.000000	54.000000	12.000000	27.000000
0.930000	61.390000	30.910000	694.000000	0.000000	127.000000	53.000000	0.000000	9.000000
0.940000	61.300000	30.850000	694.000000	0.000000	128.000000	53.000000	-9.000000	-6.000000
0.950000	61.140000	30.440000	693.000000	0.000000	129.000000	52.000000	-16.000000	-41.000000
0.960000	60.920000	29.800000	690.000000	0.000000	130.000000	52.000000	-22.000000	-64.000000
0.970000	60.600000	28.990000	681.000000	0.000000	130.000000	52.000000	-32.000000	-81.000000
0.980000	60.210000	28.130000	685.000000	0.000000	130.000000	52.000000	-39.000000	-86.000000
0.990000	60.000000	27.230000	685.000000	0.000000	131.000000	52.000000	-21.000000	-90.000000
1.000000	59.820000	26.400000	687.000000	0.000000	130.000000	53.000000	-18.000000	-83.000000
1.010000	59.820000	25.910000	687.000000	0.000000	129.000000	53.000000	0.000000	-49.000000
1.020000	59.890000	25.620000	696.000000	0.000000	129.000000	53.000000	7.000000	-29.000000
1.030000	60.130000	25.570000	702.000000	0.000000	128.000000	54.000000	24.000000	-5.000000
1.040000	60.400000	25.890000	699.000000	0.000000	126.000000	54.000000	27.000000	32.000000
1.050000	60.810000	26.460000	699.000000	0.000000	125.000000	55.000000	41.000000	57.000000
1.060000	61.300000	27.290000	705.000000	0.000000	125.000000	55.000000	49.000000	83.000000
1.070000	61.750000	28.120000	703.000000	0.000000	125.000000	55.000000	45.000000	83.000000
1.080000	61.990000	28.940000	708.000000	0.000000	124.000000	54.000000	24.000000	82.000000
1.090000	62.090000	29.400000	719.000000	0.000000	125.000000	54.000000	10.000000	46.000000
1.100000	62.170000	29.640000	725.000000	0.000000	127.000000	53.000000	8.000000	24.000000
1.110000	62.170000	29.730000	721.000000	0.000000	125.000000	53.000000	0.000000	9.000000
1.120000	62.120000	29.730000	696.000000	0.000000	127.000000	52.000000	-5.000000	0.000000
1.130000	62.120000	29.730000	661.000000	0.000000	128.000000	52.000000	0.000000	0.000000
1.140000	62.120000	29.440000	622.000000	0.000000	128.000000	52.000000	0.000000	-29.000000
1.150000	62.060000	29.030000	610.000000	0.000000	128.000000	50.000000	-6.000000	-41.000000
1.160000	61.920000	28.410000	619.000000	0.000000	129.000000	51.000000	-14.000000	-62.000000
1.170000	61.740000	27.790000	620.000000	0.000000	129.000000	51.000000	-18.000000	-62.000000
1.180000	61.560000	27.280000	610.000000	0.000000	128.000000	52.000000	-18.000000	-51.000000
1.190000	61.560000	26.850000	611.000000	0.000000	128.000000	52.000000	0.000000	-43.000000
1.200000	61.560000	26.750000	614.000000	0.000000	127.000000	52.000000	0.000000	-10.000000
1.210000	61.770000	26.840000	620.000000	0.000000	127.000000	52.000000	21.000000	9.000000
1.220000	62.020000	27.050000	619.000000	0.000000	125.000000	53.000000	25.000000	21.000000
1.230000	62.390000	27.650000	614.000000	0.000000	125.000000	53.000000	37.000000	60.000000
1.240000	62.810000	28.410000	591.000000	0.000000	125.000000	53.000000	42.000000	76.000000
1.250000	63.220000	29.290000	589.000000	0.000000	125.000000	53.000000	41.000000	88.000000
1.260000	63.460000	29.950000	603.000000	0.000000	125.000000	53.000000	24.000000	66.000000
1.270000	63.600000	30.280000	641.000000	0.000000	126.000000	51.000000	14.000000	33.000000
1.280000	63.600000	30.400000	637.000000	0.000000	126.000000	51.000000	0.000000	12.000000
1.290000	63.540000	30.400000	640.000000	0.000000	126.000000	51.000000	-6.000000	0.000000
1.300000	63.480000	30.130000	638.000000	0.000000	127.000000	51.000000	-6.000000	-27.000000
1.310000	63.360000	29.740000	634.000000	0.000000	126.000000	50.000000	-12.000000	-39.000000
1.320000	63.210000	29.180000	619.000000	0.000000	126.000000	50.000000	-15.000000	-56.000000
1.330000	63.040000	28.600000	614.000000	0.000000	127.000000	51.000000	-17.000000	-58.000000
1.340000	62.990000	28.000000	608.000000	0.000000	127.000000	51.000000	-5.000000	-60.000000
1.350000	62.990000	27.560000	595.000000	0.000000	127.000000	51.000000	0.000000	-44.000000
1.360000	63.060000	27.240000	595.000000	0.000000	126.000000	51.000000	7.000000	-32.000000
1.370000	63.190000	27.140000	588.000000	0.000000	126.000000	51.000000	13.000000	-10.000000
1.380000	63.380000	27.280000	578.000000	0.000000	124.000000	52.000000	19.000000	14.000000
1.390000	63.640000	27.570000	577.000000	0.000000	124.000000	52.000000	26.000000	29.000000
1.400000	63.900000	28.020000	569.000000	0.000000	124.000000	52.000000	26.000000	45.000000
1.410000	64.150000	28.530000	568.000000	0.000000	124.000000	52.000000	25.000000	51.000000
1.420000	64.420000	29.080000	568.000000	0.000000	124.000000	52.000000	27.000000	55.000000
1.430000	64.630000	29.530000	565.000000	0.000000	124.000000	52.000000	21.000000	45.000000
1.440000	64.810000	29.940000	565.000000	0.000000	126.000000	51.000000	18.000000	41.000000
1.450000	64.900000	30.090000	565.000000	0.000000	126.000000	51.000000	9.000000	15.000000
1.460000	64.900000	30.090000	564.000000	0.000000	127.000000	51.000000	0.000000	0.000000
1.470000	64.840000	29.990000	565.000000	0.000000	127.000000	51.000000	-6.000000	-10.000000
1.480000	64.840000	29.710000	565.000000	0.000000	127.000000	51.000000	0.000000	-28.000000
1.490000	64.760000	29.310000	565.000000	0.000000	128.000000	50.000000	-8.000000	-40.000000
1.500000	64.760000	28.980000	568.000000	0.000000	127.000000	51.000000	0.000000	-33.000000
1.510000	64.760000	28.650000	570.000000	0.000000	127.000000	51.000000	0.000000	-33.000000
1.520000	64.830000	28.330000	560.000000	0.000000	127.000000	51.000000	7.000000	-32.000000
1.530000	64.830000	28.050000	570.000000	0.000000	127.000000	51.000000	0.000000	-28.000000
1.540000	64.910000	27.880000	565.000000	0.000000	126.000000	51.000000	8.000000	-17.000000
1.550000	65.020000	27.810000	562.000000	0.000000	126.000000	51.000000	11.000000	-7.000000
1.560000	65.160000	27.810000	526.000000	0.000000	126.000000	51.000000	14.000000	0.000000
1.570000	65.370000	27.980000	495.000000	0.000000	124.000000	52.000000	21.000000	17.000000
1.580000	65.610000	28.230000	420.000000	0.000000	124.000000	52.000000	24.000000	25.000000
1.590000	65.890000	28.600000	377.000000	0.000000	125.000000	53.000000	28.000000	37.000000
1.600000	66.100000	28.920000	337.000000	0.000000	125.000000	53.000000	21.000000	32.000000
1.610000	66.270000	29.150000	259.000000	0.000000	125.000000	53.000000	17.000000	23.000000
1.620000	66.270000	29.220000	143.000000	0.000000	127.000000	52.000000	0.000000	7.000000
1.630000	66.270000	29.220000	0.000000	1.000000	127.000000	52.000000	0.000000	0.000000
1.640000	66.270000	29.040000	0.000000	0.000000	127.000000	52.000000	0.000000	-18.000000
1.650000	66.270000	28.900000	0.000000	0.000000	127.000000	52.000000	0.000000	-14.000000
1.660000	66.270000	28.750000	0.000000	0.000000	129.000000	52.000000	0.000000	-15.000000
1.670000	66.330000	28.660000	0.000000	0.000000	128.000000	53.000000	6.000000	-9.000000
1.680000	66.480000	28.610000	0.000000	0.000000	128.000000	53.000000	15.000000	-5.000000
1.690000	66.630000	28.610000	0.000000	0.000000	128.000000	53.000000	15.000000	0.000000
1.700000	66.820000	28.720000	0.000000	0.000000	129.000000	53.000000	19.000000	11.000000
1.710000	67.040000	28.860000	0.000000	0.000000	129.000000	53.000000	22.000000	14.000000
1.720000	67.230000	28.990000	0.000000	0.000000	129.000000	53.000000	19.000000	13.000000
1.730000	67.380000	29.110000	0.000000	0.000000	130.000000	54.000000	15.000000	12.000000
1.740000	67.550000	29.160000	0.000000	0.000000	131.000000	55.000000	17.000000	5.000000
1.750000	67.550000	29.160000	158.000000	1.000000	131.000000	55.000000	0.000000	0.000000
1.760000	67.550000	29.160000	186.000000	0.000000	131.000000	55.000000	0.000000	0.000000
1.770000	67.550000	29.160000	220.000000	0.000000	132.000000	55.000000	0.000000	0.000000
1.780000	67.550000	29.160000	223.000000	0.000000	132.000000	55.000000	0.000000	0.000000
1.790000	67.780000	29.420000	223.000000	0.000000	134.000000	55.000000	23.000000	26.000000
1.800000	68.050000	29.580000	225.000000	0.000000	134.000000	55.000000	27.000000	16.000000
1.810000	68.190000	29.700000	246.000000	0.000000	134.000000	55.000000	14.000000	12.000000
1.820000	68.190000	29.750000	272.000000	0.000000	134.000000	55.000000	0.000000	5.000000
1.830000	68.140000	29.750000	304.000000	0.000000	134.000000	54.000000	-5.000000	0.000000
1.840000	67.920000	29.680000	340.000000	0.000000	134.000000	54.000000	-22.000000	-7.000000
1.850000	67.640000	29.550000	367.000000	0.000000	134.000000	54.000000	-28.000000	-13.000000
1.860000	67.330000	29.350000	412.000000	0.000000	134.000000	54.000000	-31.000000	-20.000000
1.870000	67.090000	29.120000	425.000000	0.000000	134.000000	54.000000	-24.000000	-23.000000
1.880000	66.870000	28.870000	438.000000	0.000000	134.000000	54.000000	-22.000000	-25.000000
1.890000	66.710000	28.630000	455.000000	0.000000	134.000000	54.000000	-16.000000	-24.000000
1.900000	66.600000	28.410000	467.000000	0.000000	134.000000	54.000000	-11.000000	-22.000000
1.910000	66.600000	28.220000	478.000000	0.000000	133.000000	54.000000	0.000000	-19.000000
1.920000	66.600000	28.050000	480.000000	0.000000	131.000000	54.000000	0.000000	-17.000000
1.930000	66.690000	28.000000	485.000000	0.000000	131.000000	54.000000	9.000000	-5.000000
1.940000	66.840000	27.940000	494.000000	0.000000	130.000000	54.000000	15.000000	-6.000000
1.950000	67.070000	28.040000	538.000000	0.000000	130.000000	54.000000	23.000000	10.000000
1.960000	67.450000	28.240000	562.000000	0.000000	130.000000	54.000000	38.000000	20.000000
1.970000	67.940000	28.570000	588.000000	0.000000	130.000000	54.000000	49.000000	33.000000
1.980000	68.430000	28.960000	595.000000	0.000000	131.000000	55.000000	49.000000	39.000000
1.990000	68.740000	29.380000	589.000000	0.000000	131.000000	55.000000	31.000000	42.000000
2.000000	68.920000	29.550000	589.000000	0.000000	131.000000	55.000000	18.000000	17.000000
2.010000	68.980000	29.680000	570.000000	0.000000	132.000000	55.000000	6.000000	13.000000
2.020000	68.980000	29.750000	545.000000	0.000000	134.000000	55.000000	0.000000	7.000000
2.030000	68.920000	29.750000	546.000000	0.000000	134.000000	55.000000	-6.000000	0.000000
2.040000	68.820000	29.750000	535.000000	0.000000	134.000000	55.000000	-10.000000	0.000000
2.050000	68.710000	29.670000	513.000000	0.000000	134.000000	55.000000	-11.000000	-8.000000
2.060000	68.580000	29.570000	446.000000	0.000000	135.000000	54.000000	-13.000000	-10.000000
2.070000	68.580000	29.490000	309.000000	0.000000	134.000000	55.000000	0.000000	-8.000000
2.080000	68.580000	29.490000	0.000000	1.000000	134.000000	55.000000	0.000000	0.000000
2.090000	68.760000	29.270000	0.000000	0.000000	134.000000	55.000000	18.000000	-22.000000
2.100000	69.020000	29.270000	0.000000	0.000000	134.000000	55.000000	26.000000	0.000000
2.110000	69.210000	29.420000	0.000000	0.000000	132.000000	55.000000	19.000000	15.000000
2.120000	69.410000	29.570000	0.000000	0.000000	132.000000	55.000000	20.000000	15.000000
2.130000	69.640000	29.750000	0.000000	0.000000	132.000000	55.000000	23.000000	18.000000
2.140000	70.020000	29.950000	0.000000	0.000000	131.000000	56.000000	38.000000	20.000000
2.150000	70.500000	30.050000	0.000000	0.000000	130.000000	55.000000	48.000000	10.000000
2.160000	70.990000	30.050000	0.000000	0.000000	130.000000	55.000000	49.000000	0.000000
2.170000	71.390000	30.050000	0.000000	0.000000	130.000000	55.000000	40.000000	0.000000
2.180000	71.720000	29.840000	0.000000	0.000000	129.000000	55.000000	33.000000	-21.000000
2.190000	71.720000	29.840000	728.000000	1.000000	129.000000	55.000000	0.000000	0.000000
