t	x	y	pressure	penup	azimuth	inclination	v_x	v_y
0.000000	54.360000	30.690000	12.000000	1.000000	124.000000	57.000000	0.000000	0.000000
0.010000	54.430000	31.730000	27.000000	1.000000	124.000000	57.000000	0.000000	0.000000
0.020000	54.340000	32.160000	93.000000	0.000000	126.000000	57.000000	-9.000000	43.000000
0.030000	54.200000	32.570000	134.000000	0.000000	126.000000	57.000000	-14.000000	41.000000
0.040000	54.040000	32.930000	195.000000	0.000000	126.000000	57.000000	-16.000000	36.000000
0.050000	53.830000	33.180000	242.000000	0.000000	127.000000	56.000000	-21.000000	25.000000
0.060000	53.590000	33.350000	281.000000	0.000000	127.000000	56.000000	-24.000000	17.000000
0.070000	53.340000	33.350000	317.000000	0.000000	127.000000	56.000000	-25.000000	0.000000
0.080000	53.030000	33.260000	329.000000	0.000000	127.000000	56.000000	-31.000000	-9.000000
0.090000	52.730000	32.840000	344.000000	0.000000	127.000000	56.000000	-30.000000	-42.000000
0.100000	52.300000	32.120000	361.000000	0.000000	127.000000	56.000000	-43.000000	-72.000000
0.110000	51.770000	31.210000	388.000000	0.000000	127.000000	56.000000	-53.000000	-91.000000
0.120000	51.420000	30.150000	402.000000	0.000000	127.000000	56.000000	-35.000000	-106.000000
0.130000	51.130000	29.060000	407.000000	0.000000	127.000000	56.000000	-29.000000	-109.000000
0.140000	51.130000	27.870000	413.000000	0.000000	126.000000	57.000000	0.000000	-119.000000
0.150000	51.220000	26.640000	410.000000	0.000000	126.000000	57.000000	9.000000	-123.000000
0.160000	51.490000	25.880000	407.000000	0.000000	124.000000	57.000000	27.000000	-76.000000
0.170000	51.820000	25.420000	397.000000	0.000000	123.000000	58.000000	33.000000	-46.000000
0.180000	52.260000	25.170000	402.000000	0.000000	121.000000	58.000000	44.000000	-25.000000
0.190000	52.750000	25.290000	402.000000	0.000000	120.000000	58.000000	49.000000	12.000000
0.200000	53.280000	25.750000	399.000000	0.000000	117.000000	59.000000	53.000000	46.000000
0.210000	53.830000	26.440000	369.000000	0.000000	115.000000	60.000000	55.000000	69.000000
0.220000	54.220000	27.300000	353.000000	0.000000	115.000000	60.000000	39.000000	86.000000
0.230000	54.480000	28.270000	309.000000	0.000000	115.000000	60.000000	26.000000	97.000000
0.240000	54.660000	29.320000	301.000000	0.000000	117.000000	59.000000	18.000000	105.000000
0.250000	54.600000	30.300000	273.000000	0.000000	118.000000	59.000000	-6.000000	98.000000
0.260000	54.420000	31.280000	279.000000	0.000000	120.000000	58.000000	-18.000000	98.000000
0.270000	54.160000	32.200000	287.000000	0.000000	121.000000	58.000000	-26.000000	92.000000
0.280000	53.900000	32.960000	309.000000	0.000000	123.000000	58.000000	-26.000000	76.000000
0.290000	53.660000	33.290000	351.000000	0.000000	124.000000	57.000000	-24.000000	33.000000
0.300000	53.480000	33.290000	371.000000	0.000000	126.000000	57.000000	-18.000000	0.000000
0.310000	53.410000	33.230000	379.000000	0.000000	126.000000	57.000000	-7.000000	-6.000000
0.320000	53.410000	32.910000	388.000000	0.000000	127.000000	56.000000	0.000000	-32.000000
0.330000	53.410000	32.440000	423.000000	0.000000	127.000000	56.000000	0.000000	-47.000000
0.340000	53.410000	31.640000	418.000000	0.000000	127.000000	56.000000	0.000000	-80.000000
0.350000	53.410000	30.820000	430.000000	0.000000	129.000000	56.000000	0.000000	-82.000000
0.360000	53.510000	29.990000	438.000000	0.000000	127.000000	56.000000	10.000000	-83.000000
0.370000	53.600000	28.960000	441.000000	0.000000	127.000000	56.000000	9.000000	-103.000000
0.380000	53.820000	28.000000	441.000000	0.000000	126.000000	56.000000	22.000000	-96.000000
0.390000	54.040000	27.080000	444.000000	0.000000	125.000000	56.000000	22.000000	-92.000000
0.400000	54.390000	26.530000	448.000000	0.000000	124.000000	57.000000	35.000000	-55.000000
0.410000	54.820000	26.230000	441.000000	0.000000	123.000000	58.000000	43.000000	-30.000000
0.420000	55.260000	26.110000	441.000000	0.000000	121.000000	58.000000	44.000000	-12.000000
0.430000	55.740000	26.190000	441.000000	0.000000	120.000000	58.000000	48.000000	8.000000
0.440000	56.280000	26.540000	443.000000	0.000000	119.000000	60.000000	54.000000	35.000000
0.450000	56.800000	27.060000	438.000000	0.000000	118.000000	60.000000	52.000000	52.000000
0.460000	57.280000	27.820000	430.000000	0.000000	119.000000	61.000000	48.000000	76.000000
0.470000	57.740000	28.660000	422.000000	0.000000	119.000000	61.000000	46.000000	84.000000
0.480000	58.000000	29.560000	412.000000	0.000000	122.000000	61.000000	26.000000	90.000000
0.490000	58.140000	30.540000	386.000000	0.000000	123.000000	61.000000	14.000000	98.000000
0.500000	58.200000	31.620000	374.000000	0.000000	125.000000	60.000000	6.000000	108.000000
0.510000	58.070000	32.780000	368.000000	0.000000	126.000000	60.000000	-13.000000	116.000000
0.520000	57.910000	33.740000	368.000000	0.000000	128.000000	59.000000	-16.000000	96.000000
0.530000	57.730000	34.380000	371.000000	0.000000	129.000000	59.000000	-18.000000	64.000000
0.540000	57.460000	34.810000	391.000000	0.000000	129.000000	59.000000	-27.000000	43.000000
0.550000	57.190000	34.990000	400.000000	0.000000	131.000000	58.000000	-27.000000	18.000000
0.560000	56.930000	34.990000	423.000000	0.000000	131.000000	58.000000	-26.000000	0.000000
0.570000	56.670000	34.940000	418.000000	0.000000	131.000000	58.000000	-26.000000	-5.000000
0.580000	56.420000	34.660000	444.000000	0.000000	129.000000	59.000000	-25.000000	-28.000000
0.590000	56.140000	34.150000	452.000000	0.000000	129.000000	59.000000	-28.000000	-51.000000
0.600000	55.850000	33.500000	465.000000	0.000000	129.000000	59.000000	-29.000000	-65.000000
0.610000	55.710000	32.500000	473.000000	0.000000	129.000000	59.000000	-14.000000	-100.000000
0.620000	55.640000	31.390000	488.000000	0.000000	130.000000	58.000000	-7.000000	-111.000000
0.630000	55.640000	30.210000	488.000000	0.000000	130.000000	58.000000	0.000000	-118.000000
0.640000	55.780000	29.070000	496.000000	0.000000	130.000000	58.000000	14.000000	-114.000000
0.650000	55.950000	28.040000	501.000000	0.000000	128.000000	58.000000	17.000000	-103.000000
0.660000	56.170000	27.080000	504.000000	0.000000	128.000000	58.000000	22.000000	-96.000000
0.670000	56.420000	26.380000	514.000000	0.000000	127.000000	59.000000	25.000000	-70.000000
0.680000	56.700000	25.910000	505.000000	0.000000	125.000000	59.000000	28.000000	-47.000000
0.690000	57.010000	25.590000	510.000000	0.000000	124.000000	60.000000	31.000000	-32.000000
0.700000	57.370000	25.470000	510.000000	0.000000	122.000000	60.000000	36.000000	-12.000000
0.710000	57.730000	25.590000	507.000000	0.000000	122.000000	61.000000	36.000000	12.000000
0.720000	58.090000	25.870000	504.000000	0.000000	120.000000	62.000000	36.000000	28.000000
0.730000	58.450000	26.390000	502.000000	0.000000	118.000000	62.000000	36.000000	52.000000
0.740000	58.840000	27.100000	496.000000	0.000000	118.000000	62.000000	39.000000	71.000000
0.750000	59.210000	27.930000	477.000000	0.000000	119.000000	63.000000	37.000000	83.000000
0.760000	59.440000	28.720000	468.000000	0.000000	121.000000	63.000000	23.000000	79.000000
0.770000	59.590000	29.490000	460.000000	0.000000	123.000000	62.000000	15.000000	77.000000
0.780000	59.590000	30.050000	458.000000	0.000000	126.000000	62.000000	0.000000	56.000000
0.790000	59.590000	30.480000	465.000000	0.000000	127.000000	62.000000	0.000000	43.000000
0.800000	59.590000	30.790000	468.000000	0.000000	130.000000	62.000000	0.000000	31.000000
0.810000	59.490000	30.960000	470.000000	0.000000	132.000000	61.000000	-10.000000	17.000000
0.820000	59.410000	31.040000	491.000000	0.000000	134.000000	61.000000	-8.000000	8.000000
0.830000	59.360000	31.040000	494.000000	0.000000	136.000000	61.000000	-5.000000	0.000000
0.840000	59.360000	31.040000	496.000000	0.000000	136.000000	61.000000	0.000000	0.000000
0.850000	59.360000	30.980000	497.000000	0.000000	136.000000	61.000000	0.000000	-6.000000
0.860000	59.310000	30.890000	499.000000	0.000000	138.000000	60.000000	-5.000000	-9.000000
0.870000	59.220000	30.430000	501.000000	0.000000	138.000000	60.000000	-9.000000	-46.000000
0.880000	59.080000	29.930000	501.000000	0.000000	138.000000	60.000000	-14.000000	-50.000000
0.890000	59.080000	29.360000	502.000000	0.000000	136.000000	61.000000	0.000000	-57.000000
0.900000	59.080000	28.780000	502.000000	0.000000	136.000000	61.000000	0.000000	-58.000000
0.910000	59.180000	28.240000	504.000000	0.000000	136.000000	61.000000	10.000000	-54.000000
0.920000	59.330000	27.800000	502.000000	0.000000	134.000000	61.000000	15.000000	-44.000000
0.930000	59.530000	27.410000	504.000000	0.000000	134.000000	61.000000	20.000000	-39.000000
0.940000	59.790000	27.140000	502.000000	0.000000	132.000000	61.000000	26.000000	-27.000000
0.950000	60.110000	27.140000	501.000000	0.000000	130.000000	62.000000	32.000000	0.000000
0.960000	60.450000	27.240000	501.000000	0.000000	129.000000	61.000000	34.000000	10.000000
0.970000	60.810000	27.530000	492.000000	0.000000	129.000000	61.000000	36.000000	29.000000
0.980000	61.180000	27.950000	485.000000	0.000000	129.000000	61.000000	37.000000	42.000000
0.990000	61.550000	28.460000	468.000000	0.000000	128.000000	61.000000	37.000000	51.000000
1.000000	61.920000	29.100000	440.000000	0.000000	128.000000	61.000000	37.000000	64.000000
1.010000	62.130000	29.710000	433.000000	0.000000	128.000000	61.000000	21.000000	61.000000
1.020000	62.230000	30.250000	430.000000	0.000000	128.000000	61.000000	10.000000	54.000000
1.030000	62.230000	30.730000	430.000000	0.000000	129.000000	60.000000	0.000000	48.000000
1.040000	62.230000	31.120000	435.000000	0.000000	131.000000	60.000000	0.000000	39.000000
1.050000	62.170000	31.310000	449.000000	0.000000	131.000000	60.000000	-6.000000	19.000000
1.060000	62.120000	31.380000	456.000000	0.000000	132.000000	59.000000	-5.000000	7.000000
1.070000	62.120000	31.380000	464.000000	0.000000	132.000000	59.000000	0.000000	0.000000
1.080000	62.120000	31.120000	473.000000	0.000000	134.000000	58.000000	0.000000	-26.000000
1.090000	62.060000	30.750000	485.000000	0.000000	134.000000	58.000000	-6.000000	-37.000000
1.100000	62.060000	30.280000	493.000000	0.000000	134.000000	58.000000	0.000000	-47.000000
1.110000	62.060000	29.820000	488.000000	0.000000	134.000000	58.000000	0.000000	-46.000000
1.120000	62.060000	29.360000	492.000000	0.000000	132.000000	59.000000	0.000000	-46.000000
1.130000	62.060000	29.020000	494.000000	0.000000	131.000000	58.000000	0.000000	-34.000000
1.140000	62.310000	28.780000	494.000000	0.000000	131.000000	58.000000	25.000000	-24.000000
1.150000	62.610000	28.600000	494.000000	0.000000	129.000000	59.000000	30.000000	-18.000000
1.160000	62.880000	28.600000	499.000000	0.000000	129.000000	59.000000	27.000000	0.000000
1.170000	63.200000	28.700000	497.000000	0.000000	129.000000	59.000000	32.000000	10.000000
1.180000	63.580000	28.950000	492.000000	0.000000	129.000000	59.000000	38.000000	25.000000
1.190000	63.950000	29.340000	493.000000	0.000000	129.000000	59.000000	37.000000	39.000000
1.200000	64.210000	29.790000	483.000000	0.000000	129.000000	59.000000	26.000000	45.000000
1.210000	64.410000	30.280000	475.000000	0.000000	129.000000	59.000000	20.000000	49.000000
1.220000	64.490000	30.730000	468.000000	0.000000	129.000000	59.000000	8.000000	45.000000
1.230000	64.490000	31.160000	467.000000	0.000000	129.000000	59.000000	0.000000	43.000000
1.240000	64.340000	31.520000	473.000000	0.000000	131.000000	58.000000	-15.000000	36.000000
1.250000	64.280000	31.690000	485.000000	0.000000	131.000000	58.000000	-6.000000	17.000000
1.260000	64.280000	31.690000	495.000000	0.000000	131.000000	58.000000	0.000000	0.000000
1.270000	64.280000	31.690000	492.000000	0.000000	132.000000	58.000000	0.000000	0.000000
1.280000	64.280000	31.690000	510.000000	0.000000	132.000000	58.000000	0.000000	0.000000
1.290000	64.280000	31.400000	516.000000	0.000000	132.000000	58.000000	0.000000	-29.000000
1.300000	64.280000	31.010000	529.000000	0.000000	132.000000	58.000000	0.000000	-39.000000
1.310000	64.280000	30.600000	529.000000	0.000000	132.000000	58.000000	0.000000	-41.000000
1.320000	64.370000	30.230000	530.000000	0.000000	132.000000	58.000000	9.000000	-37.000000
1.330000	64.490000	29.900000	535.000000	0.000000	132.000000	58.000000	12.000000	-33.000000
1.340000	64.650000	29.670000	533.000000	0.000000	131.000000	58.000000	16.000000	-23.000000
1.350000	64.870000	29.510000	535.000000	0.000000	131.000000	58.000000	22.000000	-16.000000
1.360000	65.150000	29.510000	540.000000	0.000000	131.000000	58.000000	28.000000	0.000000
1.370000	65.480000	29.700000	540.000000	0.000000	131.000000	58.000000	33.000000	19.000000
1.380000	65.850000	29.960000	540.000000	0.000000	131.000000	58.000000	37.000000	26.000000
1.390000	66.260000	30.360000	540.000000	0.000000	132.000000	59.000000	41.000000	40.000000
1.400000	66.660000	30.830000	533.000000	0.000000	132.000000	59.000000	40.000000	47.000000
1.410000	66.870000	31.350000	530.000000	0.000000	132.000000	59.000000	21.000000	52.000000
1.420000	66.970000	31.740000	530.000000	0.000000	132.000000	59.000000	10.000000	39.000000
1.430000	66.970000	32.120000	532.000000	0.000000	134.000000	60.000000	0.000000	38.000000
1.440000	66.970000	32.310000	538.000000	0.000000	135.000000	59.000000	0.000000	19.000000
1.450000	66.970000	32.370000	538.000000	0.000000	135.000000	59.000000	0.000000	6.000000
1.460000	66.970000	32.370000	541.000000	0.000000	135.000000	59.000000	0.000000	0.000000
1.470000	66.970000	32.260000	536.000000	0.000000	135.000000	59.000000	0.000000	-11.000000
1.480000	66.900000	31.990000	542.000000	0.000000	135.000000	59.000000	-7.000000	-27.000000
1.490000	66.900000	31.620000	545.000000	0.000000	135.000000	59.000000	0.000000	-37.000000
1.500000	66.900000	31.310000	545.000000	0.000000	135.000000	59.000000	0.000000	-31.000000
1.510000	67.000000	31.020000	542.000000	0.000000	135.000000	59.000000	10.000000	-29.000000
1.520000	67.180000	30.750000	540.000000	0.000000	135.000000	59.000000	18.000000	-27.000000
1.530000	67.460000	30.610000	540.000000	0.000000	136.000000	60.000000	28.000000	-14.000000
1.540000	67.910000	30.610000	536.000000	0.000000	136.000000	60.000000	45.000000	0.000000
1.550000	68.470000	30.610000	536.000000	0.000000	136.000000	60.000000	56.000000	0.000000
1.560000	68.940000	30.900000	540.000000	0.000000	138.000000	60.000000	47.000000	29.000000
1.570000	69.420000	31.240000	537.000000	0.000000	138.000000	60.000000	48.000000	34.000000
1.580000	69.790000	31.640000	537.000000	0.000000	138.000000	60.000000	37.000000	40.000000
1.590000	70.070000	32.090000	540.000000	0.000000	139.000000	61.000000	28.000000	45.000000
1.600000	70.240000	32.540000	540.000000	0.000000	139.000000	61.000000	17.000000	45.000000
1.610000	70.240000	32.990000	542.000000	0.000000	141.000000	61.000000	0.000000	45.000000
1.620000	70.170000	33.280000	553.000000	0.000000	141.000000	61.000000	-7.000000	29.000000
1.630000	69.940000	33.560000	556.000000	0.000000	143.000000	62.000000	-23.000000	28.000000
1.640000	69.620000	33.650000	560.000000	0.000000	143.000000	62.000000	-32.000000	9.000000
1.650000	69.250000	33.650000	560.000000	0.000000	143.000000	62.000000	-37.000000	0.000000
1.660000	68.760000	33.400000	561.000000	0.000000	143.000000	62.000000	-49.000000	-25.000000
1.670000	68.250000	33.000000	584.000000	0.000000	143.000000	62.000000	-51.000000	-40.000000
1.680000	67.730000	32.470000	595.000000	0.000000	143.000000	62.000000	-52.000000	-53.000000
1.690000	67.470000	31.970000	588.000000	0.000000	141.000000	61.000000	-26.000000	-50.000000
1.700000	67.470000	31.620000	586.000000	0.000000	141.000000	61.000000	0.000000	-35.000000
1.710000	67.530000	31.370000	592.000000	0.000000	139.000000	61.000000	6.000000	-25.000000
1.720000	67.770000	31.210000	592.000000	0.000000	139.000000	61.000000	24.000000	-16.000000
1.730000	68.250000	31.290000	592.000000	0.000000	139.000000	61.000000	48.000000	8.000000
1.740000	68.880000	31.530000	589.000000	0.000000	138.000000	60.000000	63.000000	24.000000
1.750000	69.620000	32.030000	559.000000	0.000000	138.000000	60.000000	74.000000	50.000000
1.760000	70.210000	32.530000	475.000000	0.000000	139.000000	61.000000	59.000000	50.000000
1.770000	70.690000	33.040000	216.000000	0.000000	139.000000	61.000000	48.000000	51.000000
1.780000	70.690000	33.040000	0.000000	1.000000	139.000000	61.000000	0.000000	0.000000
1.790000	70.350000	33.490000	0.000000	0.000000	141.000000	61.000000	-34.000000	45.000000
1.800000	69.660000	33.560000	0.000000	0.000000	143.000000	62.000000	-69.000000	7.000000
1.810000	68.860000	33.560000	0.000000	0.000000	143.000000	62.000000	-80.000000	0.000000
1.820000	68.000000	33.400000	0.000000	0.000000	143.000000	62.000000	-86.000000	-16.000000
1.830000	67.090000	33.200000	0.000000	0.000000	143.000000	62.000000	-91.000000	-20.000000
1.840000	66.050000	32.960000	0.000000	0.000000	144.000000	61.000000	-104.000000	-24.000000
1.850000	64.920000	32.650000	0.000000	0.000000	144.000000	61.000000	-113.000000	-31.000000
1.860000	63.740000	32.290000	0.000000	0.000000	144.000000	60.000000	-118.000000	-36.000000
1.870000	62.530000	31.990000	0.000000	0.000000	141.000000	59.000000	-121.000000	-30.000000
1.880000	61.260000	31.700000	0.000000	0.000000	139.000000	58.000000	-127.000000	-29.000000
1.890000	59.960000	31.460000	0.000000	0.000000	138.000000	57.000000	-130.000000	-24.000000
1.900000	58.940000	31.240000	0.000000	0.000000	134.000000	56.000000	-102.000000	-22.000000
1.910000	57.920000	31.090000	0.000000	0.000000	132.000000	55.000000	-102.000000	-15.000000
1.920000	56.900000	30.980000	0.000000	0.000000	131.000000	55.000000	-102.000000	-11.000000
1.930000	56.160000	30.890000	0.000000	0.000000	130.000000	55.000000	-74.000000	-9.000000
1.940000	55.640000	30.750000	0.000000	0.000000	130.000000	55.000000	-52.000000	-14.000000
1.950000	55.270000	30.610000	0.000000	0.000000	130.000000	55.000000	-37.000000	-14.000000
1.960000	54.970000	30.460000	0.000000	0.000000	130.000000	56.000000	-30.000000	-15.000000
1.970000	54.680000	30.320000	0.000000	0.000000	130.000000	56.000000	-29.000000	-14.000000
1.980000	54.430000	30.160000	0.000000	0.000000	131.000000	57.000000	-25.000000	-16.000000
1.990000	54.200000	29.980000	0.000000	0.000000	131.000000	57.000000	-23.000000	-18.000000
2.000000	53.990000	29.640000	0.000000	0.000000	130.000000	58.000000	-21.000000	-34.000000
2.010000	53.820000	29.210000	0.000000	0.000000	128.000000	57.000000	-17.000000	-43.000000
2.020000	53.720000	28.780000	0.000000	0.000000	128.000000	57.000000	-10.000000	-43.000000
2.030000	53.720000	28.330000	0.000000	0.000000	127.000000	57.000000	0.000000	-45.000000
2.040000	53.810000	27.820000	0.000000	0.000000	126.000000	57.000000	9.000000	-51.000000
2.050000	54.020000	27.390000	0.000000	0.000000	124.000000	57.000000	21.000000	-43.000000
2.060000	54.310000	27.020000	0.000000	0.000000	123.000000	58.000000	29.000000	-37.000000
2.070000	54.660000	26.740000	0.000000	0.000000	123.000000	58.000000	35.000000	-28.000000
2.080000	55.050000	26.620000	0.000000	0.000000	123.000000	59.000000	39.000000	-12.000000
2.090000	55.470000	26.620000	0.000000	0.000000	121.000000	59.000000	42.000000	0.000000
2.100000	55.890000	26.810000	0.000000	0.000000	121.000000	59.000000	42.000000	19.000000
2.110000	56.320000	27.180000	0.000000	0.000000	122.000000	60.000000	43.000000	37.000000
2.120000	56.710000	27.660000	0.000000	0.000000	122.000000	60.000000	39.000000	48.000000
2.130000	57.090000	28.240000	0.000000	0.000000	123.000000	61.000000	38.000000	58.000000
2.140000	57.490000	28.910000	0.000000	0.000000	123.000000	61.000000	40.000000	67.000000
2.150000	57.900000	29.650000	0.000000	0.000000	126.000000	61.000000	41.000000	74.000000
2.160000	58.320000	30.490000	0.000000	0.000000	126.000000	61.000000	42.000000	84.000000
2.170000	58.320000	30.490000	17.000000	1.000000	128.000000	61.000000	0.000000	0.000000
2.180000	58.820000	32.470000	83.000000	0.000000	131.000000	61.000000	50.000000	198.000000
2.190000	58.820000	33.500000	98.000000	0.000000	132.000000	60.000000	0.000000	103.000000
2.200000	58.700000	34.440000	141.000000	0.000000	132.000000	60.000000	-12.000000	94.000000
