t	x	y	pressure	penup	azimuth	inclination	v_x	v_y
0.000000	37.100000	53.150000	68.000000	1.000000	143.000000	51.000000	0.000000	0.000000
0.010000	37.310000	53.480000	151.000000	0.000000	144.000000	51.000000	21.000000	33.000000
0.020000	37.310000	53.670000	190.000000	0.000000	144.000000	51.000000	0.000000	19.000000
0.030000	37.310000	53.670000	223.000000	0.000000	144.000000	51.000000	0.000000	0.000000
0.040000	37.310000	53.670000	275.000000	0.000000	144.000000	51.000000	0.000000	0.000000
0.050000	37.310000	53.330000	324.000000	0.000000	144.000000	51.000000	0.000000	-34.000000
0.060000	37.220000	52.840000	361.000000	0.000000	146.000000	52.000000	-9.000000	-49.000000
0.070000	37.090000	52.060000	420.000000	0.000000	146.000000	52.000000	-13.000000	-78.000000
0.080000	37.040000	51.010000	445.000000	0.000000	146.000000	52.000000	-5.000000	-105.000000
0.090000	37.230000	49.780000	477.000000	0.000000	146.000000	52.000000	19.000000	-123.000000
0.100000	37.590000	48.380000	512.000000	0.000000	146.000000	53.000000	36.000000	-140.000000
0.110000	38.330000	47.110000	551.000000	0.000000	146.000000	53.000000	74.000000	-127.000000
0.120000	39.600000	45.930000	591.000000	0.000000	145.000000	54.000000	127.000000	-118.000000
0.130000	41.230000	45.120000	616.000000	0.000000	144.000000	54.000000	163.000000	-81.000000
0.140000	43.330000	44.530000	619.000000	0.000000	143.000000	55.000000	210.000000	-59.000000
0.150000	45.270000	44.100000	620.000000	0.000000	141.000000	56.000000	194.000000	-43.000000
0.160000	47.110000	44.050000	628.000000	0.000000	142.000000	57.000000	184.000000	-5.000000
0.170000	48.450000	44.240000	636.000000	0.000000	142.000000	57.000000	134.000000	19.000000
0.180000	48.900000	44.590000	669.000000	0.000000	143.000000	57.000000	45.000000	35.000000
0.190000	48.750000	44.830000	681.000000	0.000000	143.000000	57.000000	-15.000000	24.000000
0.200000	47.840000	45.180000	667.000000	0.000000	144.000000	58.000000	-91.000000	35.000000
0.210000	45.960000	45.330000	653.000000	0.000000	144.000000	58.000000	-188.000000	15.000000
0.220000	43.420000	45.330000	647.000000	0.000000	144.000000	58.000000	-254.000000	0.000000
0.230000	39.900000	45.040000	639.000000	0.000000	143.000000	59.000000	-352.000000	-29.000000
0.240000	35.680000	44.360000	637.000000	0.000000	143.000000	59.000000	-422.000000	-68.000000
0.250000	30.990000	43.400000	673.000000	0.000000	143.000000	59.000000	-469.000000	-96.000000
0.260000	26.200000	42.970000	721.000000	0.000000	142.000000	58.000000	-479.000000	-43.000000
0.270000	21.980000	42.540000	791.000000	0.000000	140.000000	58.000000	-422.000000	-43.000000
0.280000	18.150000	42.120000	858.000000	0.000000	140.000000	58.000000	-383.000000	-42.000000
0.290000	15.790000	42.120000	903.000000	0.000000	140.000000	58.000000	-236.000000	0.000000
0.300000	14.800000	42.180000	897.000000	0.000000	140.000000	58.000000	-99.000000	6.000000
0.310000	14.710000	42.300000	909.000000	0.000000	140.000000	58.000000	-9.000000	12.000000
0.320000	15.190000	42.170000	892.000000	0.000000	142.000000	58.000000	48.000000	-13.000000
0.330000	16.820000	42.040000	896.000000	0.000000	143.000000	57.000000	163.000000	-13.000000
0.340000	19.220000	41.940000	906.000000	0.000000	143.000000	57.000000	240.000000	-10.000000
0.350000	22.830000	42.230000	944.000000	0.000000	143.000000	57.000000	361.000000	29.000000
0.360000	27.700000	42.760000	995.000000	0.000000	143.000000	57.000000	487.000000	53.000000
0.370000	33.410000	44.200000	1023.000000	0.000000	143.000000	57.000000	571.000000	144.000000
0.380000	40.780000	45.680000	1023.000000	0.000000	143.000000	57.000000	737.000000	148.000000
0.390000	47.720000	47.190000	1023.000000	0.000000	144.000000	58.000000	694.000000	151.000000
0.400000	54.370000	48.130000	974.000000	0.000000	144.000000	58.000000	665.000000	94.000000
0.410000	59.750000	48.560000	670.000000	0.000000	147.000000	58.000000	538.000000	43.000000
0.420000	59.750000	48.560000	0.000000	1.000000	149.000000	58.000000	0.000000	0.000000
0.430000	66.410000	48.850000	0.000000	0.000000	150.000000	58.000000	666.000000	29.000000
0.440000	68.120000	49.550000	0.000000	0.000000	154.000000	58.000000	171.000000	70.000000
0.450000	68.790000	50.580000	0.000000	0.000000	156.000000	59.000000	67.000000	103.000000
0.460000	68.790000	51.420000	0.000000	0.000000	156.000000	59.000000	0.000000	84.000000
0.470000	67.980000	51.880000	0.000000	0.000000	158.000000	58.000000	-81.000000	46.000000
0.480000	66.690000	52.100000	0.000000	0.000000	158.000000	58.000000	-129.000000	22.000000
0.490000	65.060000	52.100000	0.000000	0.000000	159.000000	57.000000	-163.000000	0.000000
0.500000	63.620000	51.870000	0.000000	0.000000	160.000000	56.000000	-144.000000	-23.000000
0.510000	62.090000	51.590000	0.000000	0.000000	160.000000	56.000000	-153.000000	-28.000000
0.520000	60.490000	51.430000	0.000000	0.000000	159.000000	55.000000	-160.000000	-16.000000
0.530000	58.890000	51.220000	0.000000	0.000000	158.000000	55.000000	-160.000000	-21.000000
0.540000	57.300000	50.940000	0.000000	0.000000	157.000000	56.000000	-159.000000	-28.000000
0.550000	56.190000	50.610000	0.000000	0.000000	155.000000	55.000000	-111.000000	-33.000000
0.560000	55.410000	50.160000	0.000000	0.000000	154.000000	56.000000	-78.000000	-45.000000
0.570000	54.740000	49.650000	0.000000	0.000000	153.000000	58.000000	-67.000000	-51.000000
0.580000	54.230000	49.050000	0.000000	0.000000	150.000000	58.000000	-51.000000	-60.000000
0.590000	53.820000	48.430000	0.000000	0.000000	149.000000	59.000000	-41.000000	-62.000000
0.600000	53.340000	47.790000	0.000000	0.000000	150.000000	58.000000	-48.000000	-64.000000
0.610000	52.800000	47.120000	0.000000	0.000000	151.000000	58.000000	-54.000000	-67.000000
0.620000	52.230000	46.470000	0.000000	0.000000	154.000000	55.000000	-57.000000	-65.000000
0.630000	51.540000	45.840000	0.000000	0.000000	155.000000	51.000000	-69.000000	-63.000000
0.640000	50.750000	45.200000	0.000000	0.000000	154.000000	49.000000	-79.000000	-64.000000
0.650000	49.880000	44.500000	0.000000	0.000000	155.000000	45.000000	-87.000000	-70.000000
0.660000	49.390000	44.000000	0.000000	0.000000	153.000000	44.000000	-49.000000	-50.000000
0.670000	48.780000	43.630000	0.000000	0.000000	153.000000	43.000000	-61.000000	-37.000000
0.680000	48.080000	43.120000	0.000000	0.000000	150.000000	44.000000	-70.000000	-51.000000
0.690000	47.720000	42.580000	0.000000	0.000000	148.000000	45.000000	-36.000000	-54.000000
0.700000	47.330000	42.030000	0.000000	0.000000	145.000000	47.000000	-39.000000	-55.000000
0.710000	46.930000	42.420000	0.000000	0.000000	143.000000	50.000000	-40.000000	39.000000
0.720000	46.750000	42.520000	0.000000	0.000000	141.000000	51.000000	-18.000000	10.000000
0.730000	46.630000	42.440000	0.000000	0.000000	142.000000	53.000000	-12.000000	-8.000000
0.740000	46.470000	42.630000	0.000000	0.000000	144.000000	54.000000	-16.000000	19.000000
0.750000	46.250000	42.990000	0.000000	0.000000	145.000000	55.000000	-22.000000	36.000000
0.760000	46.250000	43.470000	0.000000	0.000000	148.000000	56.000000	0.000000	48.000000
0.770000	46.250000	43.990000	0.000000	0.000000	149.000000	56.000000	0.000000	52.000000
0.780000	46.300000	44.500000	0.000000	0.000000	151.000000	56.000000	5.000000	51.000000
0.790000	46.410000	45.010000	0.000000	0.000000	151.000000	56.000000	11.000000	51.000000
0.800000	46.580000	45.460000	0.000000	0.000000	151.000000	56.000000	17.000000	45.000000
0.810000	46.820000	45.880000	0.000000	0.000000	151.000000	56.000000	24.000000	42.000000
0.820000	47.070000	46.230000	0.000000	0.000000	152.000000	56.000000	25.000000	35.000000
0.830000	47.160000	46.530000	0.000000	0.000000	153.000000	55.000000	9.000000	30.000000
0.840000	47.160000	46.720000	0.000000	0.000000	153.000000	55.000000	0.000000	19.000000
0.850000	46.910000	46.840000	0.000000	0.000000	153.000000	55.000000	-25.000000	12.000000
0.860000	46.630000	46.940000	0.000000	0.000000	153.000000	54.000000	-28.000000	10.000000
0.870000	46.320000	47.030000	0.000000	0.000000	153.000000	54.000000	-31.000000	9.000000
0.880000	46.040000	47.100000	0.000000	0.000000	153.000000	54.000000	-28.000000	7.000000
0.890000	45.760000	47.150000	0.000000	0.000000	153.000000	54.000000	-28.000000	5.000000
0.900000	45.480000	47.150000	0.000000	0.000000	152.000000	54.000000	-28.000000	0.000000
0.910000	45.200000	47.150000	0.000000	0.000000	151.000000	54.000000	-28.000000	0.000000
0.920000	44.900000	47.100000	0.000000	0.000000	150.000000	54.000000	-30.000000	-5.000000
0.930000	44.630000	47.040000	0.000000	0.000000	148.000000	54.000000	-27.000000	-6.000000
0.940000	44.380000	46.960000	0.000000	0.000000	148.000000	54.000000	-25.000000	-8.000000
0.950000	44.130000	46.840000	0.000000	0.000000	147.000000	53.000000	-25.000000	-12.000000
0.960000	43.910000	46.680000	0.000000	0.000000	146.000000	53.000000	-22.000000	-16.000000
0.970000	43.730000	46.510000	0.000000	0.000000	146.000000	53.000000	-18.000000	-17.000000
0.980000	43.550000	46.370000	0.000000	0.000000	145.000000	53.000000	-18.000000	-14.000000
0.990000	43.440000	46.240000	0.000000	0.000000	145.000000	53.000000	-11.000000	-13.000000
1.000000	43.370000	46.160000	0.000000	0.000000	143.000000	52.000000	-7.000000	-8.000000
1.010000	43.310000	46.090000	0.000000	0.000000	143.000000	52.000000	-6.000000	-7.000000
1.020000	43.250000	46.040000	0.000000	0.000000	142.000000	53.000000	-6.000000	-5.000000
1.030000	43.200000	46.100000	0.000000	0.000000	141.000000	52.000000	-5.000000	6.000000
1.040000	43.150000	46.220000	0.000000	0.000000	141.000000	52.000000	-5.000000	12.000000
1.050000	43.150000	46.380000	0.000000	0.000000	141.000000	52.000000	0.000000	16.000000
1.060000	43.030000	46.560000	0.000000	0.000000	141.000000	52.000000	-12.000000	18.000000
1.070000	42.980000	46.820000	0.000000	0.000000	141.000000	52.000000	-5.000000	26.000000
1.080000	42.880000	47.140000	0.000000	0.000000	140.000000	52.000000	-10.000000	32.000000
1.090000	42.750000	47.490000	0.000000	0.000000	140.000000	52.000000	-13.000000	35.000000
1.100000	42.590000	47.850000	0.000000	0.000000	140.000000	52.000000	-16.000000	36.000000
1.110000	42.430000	48.170000	0.000000	0.000000	140.000000	52.000000	-16.000000	32.000000
1.120000	42.250000	48.430000	0.000000	0.000000	140.000000	52.000000	-18.000000	26.000000
1.130000	42.060000	48.560000	0.000000	0.000000	139.000000	52.000000	-19.000000	13.000000
1.140000	41.900000	48.650000	0.000000	0.000000	139.000000	52.000000	-16.000000	9.000000
1.150000	41.770000	48.650000	0.000000	0.000000	137.000000	53.000000	-13.000000	0.000000
1.160000	41.690000	48.650000	0.000000	0.000000	137.000000	53.000000	-8.000000	0.000000
1.170000	41.640000	48.650000	0.000000	0.000000	137.000000	54.000000	-5.000000	0.000000
1.180000	41.640000	48.540000	0.000000	0.000000	136.000000	55.000000	0.000000	-11.000000
1.190000	41.640000	48.460000	0.000000	0.000000	136.000000	55.000000	0.000000	-8.000000
1.200000	41.740000	48.320000	0.000000	0.000000	135.000000	55.000000	10.000000	-14.000000
1.210000	41.790000	48.130000	0.000000	0.000000	135.000000	55.000000	5.000000	-19.000000
1.220000	41.860000	47.870000	0.000000	0.000000	136.000000	55.000000	7.000000	-26.000000
1.230000	41.920000	47.610000	0.000000	0.000000	135.000000	54.000000	6.000000	-26.000000
1.240000	41.980000	47.450000	0.000000	0.000000	136.000000	54.000000	6.000000	-16.000000
1.250000	41.980000	47.370000	0.000000	0.000000	136.000000	54.000000	0.000000	-8.000000
1.260000	42.070000	47.370000	0.000000	0.000000	137.000000	53.000000	9.000000	0.000000
1.270000	42.070000	47.370000	0.000000	0.000000	137.000000	53.000000	0.000000	0.000000
1.280000	42.140000	47.370000	0.000000	0.000000	136.000000	52.000000	7.000000	0.000000
1.290000	42.140000	47.470000	0.000000	0.000000	136.000000	52.000000	0.000000	10.000000
1.300000	42.140000	47.620000	0.000000	0.000000	136.000000	52.000000	0.000000	15.000000
1.310000	42.140000	47.800000	0.000000	0.000000	136.000000	52.000000	0.000000	18.000000
1.320000	42.140000	47.800000	0.000000	0.000000	136.000000	52.000000	0.000000	0.000000
1.330000	42.000000	48.230000	0.000000	0.000000	136.000000	52.000000	-14.000000	43.000000
1.340000	41.920000	48.400000	0.000000	0.000000	136.000000	52.000000	-8.000000	17.000000
1.350000	41.850000	48.590000	0.000000	0.000000	137.000000	53.000000	-7.000000	19.000000
1.360000	41.850000	48.840000	0.000000	0.000000	136.000000	54.000000	0.000000	25.000000
1.370000	41.800000	49.020000	0.000000	0.000000	136.000000	54.000000	-5.000000	18.000000
1.380000	41.800000	49.180000	0.000000	0.000000	136.000000	54.000000	0.000000	16.000000
1.390000	41.730000	49.300000	0.000000	0.000000	136.000000	54.000000	-7.000000	12.000000
1.400000	41.660000	49.400000	0.000000	0.000000	136.000000	54.000000	-7.000000	10.000000
1.410000	41.660000	49.460000	0.000000	0.000000	136.000000	54.000000	0.000000	6.000000
1.420000	41.610000	49.460000	0.000000	0.000000	136.000000	54.000000	-5.000000	0.000000
1.430000	41.610000	49.460000	0.000000	0.000000	136.000000	54.000000	0.000000	0.000000
1.440000	41.610000	49.460000	0.000000	0.000000	136.000000	54.000000	0.000000	0.000000
1.450000	41.530000	49.400000	0.000000	0.000000	136.000000	54.000000	-8.000000	-6.000000
1.460000	41.530000	49.350000	0.000000	0.000000	136.000000	54.000000	0.000000	-5.000000
1.470000	41.530000	49.350000	0.000000	0.000000	137.000000	53.000000	0.000000	0.000000
1.480000	41.530000	49.280000	0.000000	0.000000	137.000000	53.000000	0.000000	-7.000000
1.490000	41.530000	49.280000	0.000000	0.000000	137.000000	53.000000	0.000000	0.000000
1.500000	41.530000	49.220000	0.000000	0.000000	137.000000	53.000000	0.000000	-6.000000
1.510000	41.530000	49.220000	0.000000	0.000000	137.000000	53.000000	0.000000	0.000000
1.520000	41.530000	49.220000	0.000000	0.000000	137.000000	53.000000	0.000000	0.000000
1.530000	41.480000	49.220000	0.000000	0.000000	137.000000	53.000000	-5.000000	0.000000
1.540000	41.410000	49.220000	0.000000	0.000000	137.000000	53.000000	-7.000000	0.000000
1.550000	41.320000	49.220000	0.000000	0.000000	137.000000	53.000000	-9.000000	0.000000
1.560000	41.260000	49.220000	0.000000	0.000000	137.000000	53.000000	-6.000000	0.000000
1.570000	41.200000	49.220000	0.000000	0.000000	137.000000	53.000000	-6.000000	0.000000
1.580000	41.150000	49.280000	0.000000	0.000000	137.000000	53.000000	-5.000000	6.000000
1.590000	41.150000	49.280000	0.000000	0.000000	137.000000	53.000000	0.000000	0.000000
1.600000	41.100000	49.280000	0.000000	0.000000	137.000000	53.000000	-5.000000	0.000000
1.610000	41.100000	49.280000	0.000000	0.000000	137.000000	53.000000	0.000000	0.000000
1.620000	41.100000	49.280000	0.000000	0.000000	137.000000	53.000000	0.000000	0.000000
1.630000	41.160000	49.180000	0.000000	0.000000	137.000000	53.000000	6.000000	-10.000000
1.640000	41.160000	49.120000	0.000000	0.000000	137.000000	53.000000	0.000000	-6.000000
1.650000	41.160000	49.040000	0.000000	0.000000	137.000000	53.000000	0.000000	-8.000000
1.660000	41.160000	48.990000	0.000000	0.000000	137.000000	53.000000	0.000000	-5.000000
1.670000	41.160000	48.990000	0.000000	0.000000	137.000000	53.000000	0.000000	0.000000
1.680000	41.160000	48.990000	0.000000	0.000000	137.000000	53.000000	0.000000	0.000000
1.690000	41.160000	48.990000	0.000000	0.000000	137.000000	53.000000	0.000000	0.000000
1.700000	41.160000	48.990000	0.000000	0.000000	137.000000	53.000000	0.000000	0.000000
1.710000	41.110000	48.990000	0.000000	0.000000	137.000000	53.000000	-5.000000	0.000000
1.720000	41.110000	48.990000	0.000000	0.000000	137.000000	53.000000	0.000000	0.000000
1.730000	41.160000	48.990000	0.000000	0.000000	137.000000	53.000000	5.000000	0.000000
1.740000	41.160000	48.990000	0.000000	0.000000	137.000000	53.000000	0.000000	0.000000
1.750000	41.160000	48.990000	0.000000	0.000000	137.000000	53.000000	0.000000	0.000000
1.760000	41.160000	49.040000	0.000000	0.000000	137.000000	53.000000	0.000000	5.000000
1.770000	41.160000	49.110000	0.000000	0.000000	137.000000	53.000000	0.000000	7.000000
1.780000	41.160000	49.200000	0.000000	0.000000	137.000000	53.000000	0.000000	9.000000
1.790000	41.160000	49.300000	0.000000	0.000000	137.000000	53.000000	0.000000	10.000000
1.800000	41.160000	49.390000	0.000000	0.000000	137.000000	53.000000	0.000000	9.000000
1.810000	41.210000	49.470000	0.000000	0.000000	137.000000	53.000000	5.000000	8.000000
1.820000	41.210000	49.470000	0.000000	0.000000	139.000000	54.000000	0.000000	0.000000
1.830000	41.210000	49.520000	0.000000	0.000000	139.000000	54.000000	0.000000	5.000000
1.840000	41.210000	49.520000	0.000000	0.000000	139.000000	54.000000	0.000000	0.000000
1.850000	41.210000	49.420000	0.000000	0.000000	139.000000	54.000000	0.000000	-10.000000
1.860000	41.210000	49.370000	0.000000	0.000000	139.000000	54.000000	0.000000	-5.000000
1.870000	41.210000	49.370000	91.000000	1.000000	140.000000	54.000000	0.000000	0.000000
1.880000	41.210000	49.370000	175.000000	0.000000	140.000000	54.000000	0.000000	0.000000
1.890000	41.210000	49.370000	212.000000	0.000000	141.000000	53.000000	0.000000	0.000000
1.900000	41.210000	49.370000	250.000000	0.000000	141.000000	53.000000	0.000000	0.000000
1.910000	41.210000	49.370000	304.000000	0.000000	141.000000	53.000000	0.000000	0.000000
1.920000	41.320000	48.990000	358.000000	0.000000	142.000000	54.000000	11.000000	-38.000000
1.930000	41.400000	48.690000	381.000000	0.000000	142.000000	54.000000	8.000000	-30.000000
1.940000	41.490000	48.230000	405.000000	0.000000	142.000000	54.000000	9.000000	-46.000000
1.950000	41.490000	47.660000	418.000000	0.000000	141.000000	55.000000	0.000000	-57.000000
1.960000	41.430000	47.210000	417.000000	0.000000	141.000000	55.000000	-6.000000	-45.000000
1.970000	41.430000	46.880000	404.000000	0.000000	141.000000	55.000000	0.000000	-33.000000
1.980000	41.430000	46.640000	309.000000	0.000000	140.000000	55.000000	0.000000	-24.000000
1.990000	41.430000	46.640000	80.000000	0.000000	139.000000	55.000000	0.000000	0.000000
2.000000	41.430000	46.640000	0.000000	1.000000	138.000000	55.000000	0.000000	0.000000
2.010000	41.620000	47.270000	0.000000	0.000000	138.000000	55.000000	19.000000	63.000000
2.020000	41.770000	48.010000	0.000000	0.000000	138.000000	55.000000	15.000000	74.000000
2.030000	41.870000	48.820000	0.000000	0.000000	138.000000	55.000000	10.000000	81.000000
2.040000	41.940000	49.680000	0.000000	0.000000	136.000000	55.000000	7.000000	86.000000
2.050000	41.940000	50.450000	0.000000	0.000000	137.000000	54.000000	0.000000	77.000000
2.060000	41.940000	50.970000	0.000000	0.000000	139.000000	54.000000	0.000000	52.000000
2.070000	42.010000	51.330000	0.000000	0.000000	139.000000	54.000000	7.000000	36.000000
2.080000	42.010000	51.330000	170.000000	1.000000	141.000000	53.000000	0.000000	0.000000
2.090000	41.890000	50.880000	247.000000	0.000000	141.000000	53.000000	-12.000000	-45.000000
2.100000	41.770000	51.110000	255.000000	0.000000	142.000000	53.000000	-12.000000	23.000000
2.110000	41.600000	51.060000	260.000000	0.000000	142.000000	53.000000	-17.000000	-5.000000
2.120000	41.600000	51.000000	259.000000	0.000000	143.000000	53.000000	0.000000	-6.000000
2.130000	41.600000	50.890000	173.000000	0.000000	145.000000	53.000000	0.000000	-11.000000
2.140000	41.600000	50.890000	0.000000	1.000000	145.000000	53.000000	0.000000	0.000000
2.150000	41.840000	50.400000	0.000000	0.000000	145.000000	53.000000	24.000000	-49.000000
2.160000	42.080000	50.260000	0.000000	0.000000	145.000000	53.000000	24.000000	-14.000000
2.170000	42.300000	50.260000	0.000000	0.000000	145.000000	53.000000	22.000000	0.000000
2.180000	42.500000	50.130000	0.000000	0.000000	143.000000	53.000000	20.000000	-13.000000
2.190000	42.680000	50.080000	0.000000	0.000000	142.000000	53.000000	18.000000	-5.000000
2.200000	42.850000	50.080000	0.000000	0.000000	142.000000	53.000000	17.000000	0.000000
2.210000	42.990000	50.000000	0.000000	0.000000	142.000000	53.000000	14.000000	-8.000000
2.220000	43.120000	50.000000	0.000000	0.000000	140.000000	53.000000	13.000000	0.000000
2.230000	43.200000	49.940000	0.000000	0.000000	140.000000	53.000000	8.000000	-6.000000
2.240000	43.200000	49.940000	0.000000	0.000000	140.000000	53.000000	0.000000	0.000000
