t	x	y	pressure	penup	azimuth	inclination	v_x	v_y
0.000000	20.350000	35.080000	55.000000	1.000000	124.000000	60.000000	0.000000	0.000000
0.010000	20.180000	35.700000	80.000000	0.000000	124.000000	60.000000	-17.000000	62.000000
0.020000	20.090000	35.800000	144.000000	0.000000	124.000000	60.000000	-9.000000	10.000000
0.030000	20.090000	35.860000	171.000000	0.000000	124.000000	60.000000	0.000000	6.000000
0.040000	20.030000	35.860000	198.000000	0.000000	122.000000	60.000000	-6.000000	0.000000
0.050000	20.030000	35.860000	228.000000	0.000000	122.000000	60.000000	0.000000	0.000000
0.060000	20.030000	35.740000	270.000000	0.000000	123.000000	61.000000	0.000000	-12.000000
0.070000	20.080000	35.550000	309.000000	0.000000	123.000000	61.000000	5.000000	-19.000000
0.080000	20.180000	35.190000	320.000000	0.000000	123.000000	61.000000	10.000000	-36.000000
0.090000	20.300000	34.740000	334.000000	0.000000	123.000000	61.000000	12.000000	-45.000000
0.100000	20.400000	34.150000	393.000000	0.000000	123.000000	61.000000	10.000000	-59.000000
0.110000	20.500000	33.350000	410.000000	0.000000	124.000000	60.000000	10.000000	-80.000000
0.120000	20.600000	32.410000	440.000000	0.000000	124.000000	60.000000	10.000000	-94.000000
0.130000	20.730000	31.380000	460.000000	0.000000	124.000000	60.000000	13.000000	-103.000000
0.140000	20.790000	30.300000	495.000000	0.000000	124.000000	60.000000	6.000000	-108.000000
0.150000	20.790000	29.060000	505.000000	0.000000	124.000000	60.000000	0.000000	-124.000000
0.160000	20.900000	27.740000	514.000000	0.000000	124.000000	60.000000	11.000000	-132.000000
0.170000	21.000000	26.350000	520.000000	0.000000	122.000000	60.000000	10.000000	-139.000000
0.180000	21.000000	25.190000	512.000000	0.000000	123.000000	61.000000	0.000000	-116.000000
0.190000	21.000000	24.180000	509.000000	0.000000	122.000000	61.000000	0.000000	-101.000000
0.200000	21.110000	23.450000	499.000000	0.000000	120.000000	62.000000	11.000000	-73.000000
0.210000	21.190000	23.040000	490.000000	0.000000	119.000000	63.000000	8.000000	-41.000000
0.220000	21.280000	22.850000	467.000000	0.000000	117.000000	63.000000	9.000000	-19.000000
0.230000	21.410000	22.850000	474.000000	0.000000	116.000000	64.000000	13.000000	0.000000
0.240000	21.530000	23.130000	469.000000	0.000000	117.000000	65.000000	12.000000	28.000000
0.250000	21.820000	23.500000	439.000000	0.000000	117.000000	65.000000	29.000000	37.000000
0.260000	22.210000	24.090000	415.000000	0.000000	117.000000	65.000000	39.000000	59.000000
0.270000	22.480000	24.690000	374.000000	0.000000	117.000000	65.000000	27.000000	60.000000
0.280000	22.700000	25.310000	356.000000	0.000000	117.000000	65.000000	22.000000	62.000000
0.290000	22.890000	25.880000	354.000000	0.000000	117.000000	65.000000	19.000000	57.000000
0.300000	22.890000	26.430000	363.000000	0.000000	117.000000	65.000000	0.000000	55.000000
0.310000	22.890000	26.950000	359.000000	0.000000	117.000000	65.000000	0.000000	52.000000
0.320000	22.690000	27.370000	361.000000	0.000000	116.000000	64.000000	-20.000000	42.000000
0.330000	22.360000	27.750000	372.000000	0.000000	116.000000	64.000000	-33.000000	38.000000
0.340000	21.960000	28.090000	379.000000	0.000000	116.000000	64.000000	-40.000000	34.000000
0.350000	21.520000	28.270000	394.000000	0.000000	117.000000	63.000000	-44.000000	18.000000
0.360000	20.890000	28.340000	417.000000	0.000000	118.000000	62.000000	-63.000000	7.000000
0.370000	20.220000	28.340000	417.000000	0.000000	118.000000	62.000000	-67.000000	0.000000
0.380000	19.520000	28.090000	441.000000	0.000000	118.000000	62.000000	-70.000000	-25.000000
0.390000	18.690000	27.710000	448.000000	0.000000	121.000000	63.000000	-83.000000	-38.000000
0.400000	17.820000	27.260000	440.000000	0.000000	121.000000	63.000000	-87.000000	-45.000000
0.410000	16.920000	26.790000	450.000000	0.000000	121.000000	63.000000	-90.000000	-47.000000
0.420000	16.070000	26.310000	455.000000	0.000000	122.000000	63.000000	-85.000000	-48.000000
0.430000	15.400000	25.930000	458.000000	0.000000	124.000000	64.000000	-67.000000	-38.000000
0.440000	14.850000	25.600000	460.000000	0.000000	125.000000	65.000000	-55.000000	-33.000000
0.450000	14.380000	25.290000	461.000000	0.000000	124.000000	66.000000	-47.000000	-31.000000
0.460000	13.970000	24.980000	458.000000	0.000000	124.000000	66.000000	-41.000000	-31.000000
0.470000	13.670000	24.770000	453.000000	0.000000	126.000000	67.000000	-30.000000	-21.000000
0.480000	13.580000	24.640000	438.000000	0.000000	126.000000	67.000000	-9.000000	-13.000000
0.490000	13.580000	24.640000	422.000000	0.000000	126.000000	67.000000	0.000000	0.000000
0.500000	13.710000	24.700000	430.000000	0.000000	126.000000	67.000000	13.000000	6.000000
0.510000	14.030000	24.860000	440.000000	0.000000	126.000000	67.000000	32.000000	16.000000
0.520000	14.490000	25.240000	440.000000	0.000000	126.000000	67.000000	46.000000	38.000000
0.530000	15.230000	25.740000	463.000000	0.000000	126.000000	67.000000	74.000000	50.000000
0.540000	16.230000	26.310000	480.000000	0.000000	126.000000	67.000000	100.000000	57.000000
0.550000	17.410000	27.010000	515.000000	0.000000	126.000000	67.000000	118.000000	70.000000
0.560000	18.720000	27.780000	524.000000	0.000000	124.000000	66.000000	131.000000	77.000000
0.570000	20.270000	28.600000	545.000000	0.000000	124.000000	66.000000	155.000000	82.000000
0.580000	21.990000	29.450000	564.000000	0.000000	125.000000	65.000000	172.000000	85.000000
0.590000	23.690000	30.260000	570.000000	0.000000	125.000000	65.000000	170.000000	81.000000
0.600000	25.400000	30.990000	560.000000	0.000000	125.000000	64.000000	171.000000	73.000000
0.610000	27.120000	31.690000	561.000000	0.000000	125.000000	64.000000	172.000000	70.000000
0.620000	28.520000	32.370000	566.000000	0.000000	126.000000	62.000000	140.000000	68.000000
0.630000	29.890000	33.040000	567.000000	0.000000	126.000000	62.000000	137.000000	67.000000
0.640000	31.230000	33.710000	580.000000	0.000000	127.000000	62.000000	134.000000	67.000000
0.650000	32.550000	34.350000	595.000000	0.000000	126.000000	62.000000	132.000000	64.000000
0.660000	33.760000	34.980000	606.000000	0.000000	124.000000	62.000000	121.000000	63.000000
0.670000	34.890000	35.600000	614.000000	0.000000	124.000000	62.000000	113.000000	62.000000
0.680000	36.020000	36.220000	620.000000	0.000000	124.000000	62.000000	113.000000	62.000000
0.690000	36.910000	36.660000	625.000000	0.000000	124.000000	62.000000	89.000000	44.000000
0.700000	37.640000	36.990000	610.000000	0.000000	126.000000	62.000000	73.000000	33.000000
0.710000	38.040000	37.270000	588.000000	0.000000	126.000000	62.000000	40.000000	28.000000
0.720000	38.200000	37.370000	538.000000	0.000000	126.000000	62.000000	16.000000	10.000000
0.730000	38.200000	37.370000	428.000000	0.000000	127.000000	62.000000	0.000000	0.000000
0.740000	38.060000	37.270000	109.000000	0.000000	129.000000	61.000000	-14.000000	-10.000000
0.750000	38.060000	37.270000	0.000000	1.000000	129.000000	61.000000	0.000000	0.000000
0.760000	36.890000	36.860000	0.000000	0.000000	129.000000	61.000000	-117.000000	-41.000000
0.770000	35.790000	36.470000	0.000000	0.000000	129.000000	61.000000	-110.000000	-39.000000
0.780000	34.630000	36.100000	0.000000	0.000000	129.000000	61.000000	-116.000000	-37.000000
0.790000	33.420000	35.720000	0.000000	0.000000	129.000000	61.000000	-121.000000	-38.000000
0.800000	32.080000	35.300000	0.000000	0.000000	129.000000	61.000000	-134.000000	-42.000000
0.810000	30.700000	34.780000	0.000000	0.000000	128.000000	61.000000	-138.000000	-52.000000
0.820000	29.290000	34.210000	0.000000	0.000000	128.000000	61.000000	-141.000000	-57.000000
0.830000	28.240000	33.630000	0.000000	0.000000	126.000000	60.000000	-105.000000	-58.000000
0.840000	27.340000	33.120000	0.000000	0.000000	127.000000	59.000000	-90.000000	-51.000000
0.850000	26.540000	32.650000	0.000000	0.000000	127.000000	59.000000	-80.000000	-47.000000
0.860000	25.760000	32.250000	0.000000	0.000000	127.000000	57.000000	-78.000000	-40.000000
0.870000	25.000000	31.860000	0.000000	0.000000	128.000000	58.000000	-76.000000	-39.000000
0.880000	24.310000	31.470000	0.000000	0.000000	128.000000	58.000000	-69.000000	-39.000000
0.890000	23.730000	31.200000	0.000000	0.000000	128.000000	58.000000	-58.000000	-27.000000
0.900000	23.370000	31.010000	0.000000	0.000000	129.000000	59.000000	-36.000000	-19.000000
0.910000	23.140000	30.840000	0.000000	0.000000	128.000000	59.000000	-23.000000	-17.000000
0.920000	23.020000	30.770000	0.000000	0.000000	129.000000	60.000000	-12.000000	-7.000000
0.930000	23.020000	30.770000	0.000000	0.000000	129.000000	60.000000	0.000000	0.000000
0.940000	23.150000	30.770000	0.000000	0.000000	131.000000	61.000000	13.000000	0.000000
0.950000	23.200000	30.860000	0.000000	0.000000	128.000000	61.000000	5.000000	9.000000
0.960000	23.200000	30.860000	0.000000	0.000000	128.000000	61.000000	0.000000	0.000000
0.970000	23.120000	30.860000	0.000000	0.000000	128.000000	61.000000	-8.000000	0.000000
0.980000	23.020000	30.860000	0.000000	0.000000	126.000000	60.000000	-10.000000	0.000000
0.990000	22.950000	30.750000	0.000000	0.000000	126.000000	60.000000	-7.000000	-11.000000
1.000000	22.950000	30.670000	0.000000	0.000000	125.000000	60.000000	0.000000	-8.000000
1.010000	22.950000	30.610000	0.000000	0.000000	125.000000	60.000000	0.000000	-6.000000
1.020000	22.950000	30.610000	0.000000	0.000000	125.000000	60.000000	0.000000	0.000000
1.030000	22.950000	30.550000	0.000000	0.000000	125.000000	60.000000	0.000000	-6.000000
1.040000	22.950000	30.550000	0.000000	0.000000	125.000000	60.000000	0.000000	0.000000
1.050000	22.950000	30.460000	0.000000	0.000000	125.000000	60.000000	0.000000	-9.000000
1.060000	22.880000	30.390000	0.000000	0.000000	125.000000	60.000000	-7.000000	-7.000000
1.070000	22.880000	30.330000	0.000000	0.000000	125.000000	60.000000	0.000000	-6.000000
1.080000	22.880000	30.260000	0.000000	0.000000	123.000000	61.000000	0.000000	-7.000000
1.090000	22.880000	30.260000	0.000000	0.000000	123.000000	61.000000	0.000000	0.000000
1.100000	22.930000	30.260000	0.000000	0.000000	123.000000	61.000000	5.000000	0.000000
1.110000	22.930000	30.260000	0.000000	0.000000	123.000000	61.000000	0.000000	0.000000
1.120000	22.930000	30.260000	0.000000	0.000000	123.000000	61.000000	0.000000	0.000000
1.130000	22.930000	30.260000	0.000000	0.000000	123.000000	61.000000	0.000000	0.000000
1.140000	22.980000	30.350000	0.000000	0.000000	123.000000	61.000000	5.000000	9.000000
1.150000	22.980000	30.350000	0.000000	0.000000	123.000000	61.000000	0.000000	0.000000
1.160000	22.980000	30.420000	0.000000	0.000000	123.000000	61.000000	0.000000	7.000000
1.170000	23.030000	30.500000	0.000000	0.000000	123.000000	61.000000	5.000000	8.000000
1.180000	23.030000	30.580000	0.000000	0.000000	123.000000	61.000000	0.000000	8.000000
1.190000	23.030000	30.580000	0.000000	0.000000	125.000000	60.000000	0.000000	0.000000
1.200000	23.030000	30.730000	0.000000	0.000000	125.000000	60.000000	0.000000	15.000000
1.210000	23.030000	30.890000	0.000000	0.000000	125.000000	60.000000	0.000000	16.000000
1.220000	23.030000	31.030000	0.000000	0.000000	125.000000	60.000000	0.000000	14.000000
1.230000	23.030000	31.150000	0.000000	0.000000	125.000000	60.000000	0.000000	12.000000
1.240000	22.970000	31.260000	0.000000	0.000000	125.000000	60.000000	-6.000000	11.000000
1.250000	22.970000	31.400000	0.000000	0.000000	125.000000	60.000000	0.000000	14.000000
1.260000	22.970000	31.560000	0.000000	0.000000	125.000000	60.000000	0.000000	16.000000
1.270000	22.970000	31.610000	0.000000	0.000000	125.000000	60.000000	0.000000	5.000000
1.280000	22.970000	31.610000	0.000000	0.000000	126.000000	60.000000	0.000000	0.000000
1.290000	22.970000	31.610000	112.000000	1.000000	126.000000	60.000000	0.000000	0.000000
1.300000	23.060000	31.560000	137.000000	0.000000	126.000000	60.000000	9.000000	-5.000000
1.310000	23.060000	31.560000	244.000000	0.000000	126.000000	60.000000	0.000000	0.000000
1.320000	23.060000	31.400000	301.000000	0.000000	126.000000	60.000000	0.000000	-16.000000
1.330000	23.060000	31.250000	324.000000	0.000000	126.000000	60.000000	0.000000	-15.000000
1.340000	23.160000	31.060000	349.000000	0.000000	126.000000	60.000000	10.000000	-19.000000
1.350000	23.260000	30.870000	361.000000	0.000000	126.000000	60.000000	10.000000	-19.000000
1.360000	23.340000	30.720000	371.000000	0.000000	126.000000	60.000000	8.000000	-15.000000
1.370000	23.400000	30.590000	363.000000	0.000000	126.000000	60.000000	6.000000	-13.000000
1.380000	23.450000	30.510000	334.000000	0.000000	125.000000	60.000000	5.000000	-8.000000
1.390000	23.510000	30.460000	257.000000	0.000000	125.000000	60.000000	6.000000	-5.000000
1.400000	23.510000	30.460000	156.000000	0.000000	125.000000	60.000000	0.000000	0.000000
1.410000	23.510000	30.360000	34.000000	0.000000	125.000000	60.000000	0.000000	-10.000000
1.420000	23.510000	30.360000	0.000000	1.000000	125.000000	60.000000	0.000000	0.000000
1.430000	23.510000	30.360000	0.000000	0.000000	125.000000	60.000000	0.000000	0.000000
1.440000	23.400000	30.460000	0.000000	0.000000	126.000000	61.000000	-11.000000	10.000000
1.450000	23.300000	30.630000	0.000000	0.000000	126.000000	61.000000	-10.000000	17.000000
1.460000	23.240000	30.860000	0.000000	0.000000	126.000000	61.000000	-6.000000	23.000000
1.470000	23.170000	31.110000	0.000000	0.000000	126.000000	61.000000	-7.000000	25.000000
1.480000	23.080000	31.370000	0.000000	0.000000	126.000000	61.000000	-9.000000	26.000000
1.490000	23.030000	31.640000	0.000000	0.000000	126.000000	61.000000	-5.000000	27.000000
1.500000	22.980000	31.890000	0.000000	0.000000	125.000000	60.000000	-5.000000	25.000000
1.510000	22.890000	32.140000	0.000000	0.000000	125.000000	60.000000	-9.000000	25.000000
1.520000	22.780000	32.400000	0.000000	0.000000	126.000000	60.000000	-11.000000	26.000000
1.530000	22.650000	32.650000	0.000000	0.000000	126.000000	60.000000	-13.000000	25.000000
1.540000	22.510000	32.780000	0.000000	0.000000	126.000000	60.000000	-14.000000	13.000000
1.550000	22.350000	32.840000	0.000000	0.000000	128.000000	59.000000	-16.000000	6.000000
1.560000	22.220000	32.840000	0.000000	0.000000	128.000000	59.000000	-13.000000	0.000000
1.570000	22.220000	32.840000	99.000000	1.000000	126.000000	60.000000	0.000000	0.000000
1.580000	22.220000	32.840000	99.000000	0.000000	126.000000	60.000000	0.000000	0.000000
1.590000	22.220000	32.840000	109.000000	0.000000	126.000000	60.000000	0.000000	0.000000
1.600000	22.220000	32.840000	109.000000	0.000000	126.000000	60.000000	0.000000	0.000000
1.610000	22.220000	32.840000	96.000000	0.000000	126.000000	60.000000	0.000000	0.000000
1.620000	22.220000	32.840000	32.000000	0.000000	126.000000	60.000000	0.000000	0.000000
1.630000	22.220000	32.840000	0.000000	1.000000	126.000000	60.000000	0.000000	0.000000
1.640000	22.220000	32.840000	0.000000	0.000000	126.000000	60.000000	0.000000	0.000000
1.650000	22.480000	32.700000	0.000000	0.000000	126.000000	60.000000	26.000000	-14.000000
1.660000	22.570000	32.760000	0.000000	0.000000	126.000000	60.000000	9.000000	6.000000
1.670000	22.680000	32.820000	0.000000	0.000000	126.000000	60.000000	11.000000	6.000000
1.680000	22.800000	32.820000	0.000000	0.000000	126.000000	60.000000	12.000000	0.000000
1.690000	22.930000	32.770000	0.000000	0.000000	126.000000	60.000000	13.000000	-5.000000
1.700000	23.090000	32.700000	0.000000	0.000000	126.000000	60.000000	16.000000	-7.000000
1.710000	23.260000	32.700000	0.000000	0.000000	128.000000	61.000000	17.000000	0.000000
1.720000	23.450000	32.700000	0.000000	0.000000	128.000000	61.000000	19.000000	0.000000
1.730000	23.580000	32.700000	0.000000	0.000000	128.000000	61.000000	13.000000	0.000000
1.740000	23.670000	32.650000	0.000000	0.000000	129.000000	60.000000	9.000000	-5.000000
1.750000	23.670000	32.650000	0.000000	0.000000	129.000000	60.000000	0.000000	0.000000
1.760000	23.730000	32.550000	0.000000	0.000000	129.000000	60.000000	6.000000	-10.000000
1.770000	23.730000	32.490000	0.000000	0.000000	129.000000	60.000000	0.000000	-6.000000
1.780000	23.730000	32.420000	0.000000	0.000000	128.000000	61.000000	0.000000	-7.000000
1.790000	23.780000	32.310000	0.000000	0.000000	128.000000	61.000000	5.000000	-11.000000
1.800000	23.830000	32.170000	0.000000	0.000000	128.000000	61.000000	5.000000	-14.000000
1.810000	23.830000	32.170000	22.000000	1.000000	128.000000	61.000000	0.000000	0.000000
1.820000	23.910000	31.870000	80.000000	0.000000	126.000000	60.000000	8.000000	-30.000000
1.830000	23.960000	31.680000	98.000000	0.000000	126.000000	60.000000	5.000000	-19.000000
1.840000	24.020000	31.470000	146.000000	0.000000	125.000000	60.000000	6.000000	-21.000000
1.850000	24.090000	31.250000	160.000000	0.000000	125.000000	60.000000	7.000000	-22.000000
1.860000	24.190000	31.030000	183.000000	0.000000	125.000000	60.000000	10.000000	-22.000000
1.870000	24.280000	30.890000	206.000000	0.000000	125.000000	60.000000	9.000000	-14.000000
1.880000	24.330000	30.790000	237.000000	0.000000	125.000000	60.000000	5.000000	-10.000000
1.890000	24.330000	30.790000	255.000000	0.000000	125.000000	60.000000	0.000000	0.000000
1.900000	24.330000	30.790000	279.000000	0.000000	125.000000	60.000000	0.000000	0.000000
1.910000	24.330000	30.790000	302.000000	0.000000	125.000000	60.000000	0.000000	0.000000
1.920000	24.330000	30.790000	325.000000	0.000000	125.000000	60.000000	0.000000	0.000000
1.930000	24.330000	30.790000	343.000000	0.000000	125.000000	60.000000	0.000000	0.000000
1.940000	24.230000	30.890000	387.000000	0.000000	125.000000	60.000000	-10.000000	10.000000
1.950000	24.230000	30.970000	392.000000	0.000000	125.000000	60.000000	0.000000	8.000000
1.960000	24.160000	31.100000	422.000000	0.000000	125.000000	60.000000	-7.000000	13.000000
1.970000	24.160000	31.250000	436.000000	0.000000	125.000000	60.000000	0.000000	15.000000
1.980000	24.160000	31.440000	443.000000	0.000000	125.000000	60.000000	0.000000	19.000000
1.990000	24.160000	31.620000	447.000000	0.000000	125.000000	60.000000	0.000000	18.000000
2.000000	24.220000	31.880000	443.000000	0.000000	125.000000	60.000000	6.000000	26.000000
2.010000	24.350000	32.190000	414.000000	0.000000	125.000000	60.000000	13.000000	31.000000
2.020000	24.520000	32.370000	377.000000	0.000000	125.000000	60.000000	17.000000	18.000000
2.030000	24.600000	32.540000	282.000000	0.000000	125.000000	60.000000	8.000000	17.000000
2.040000	24.600000	32.540000	132.000000	0.000000	126.000000	61.000000	0.000000	0.000000
2.050000	24.600000	32.540000	0.000000	1.000000	126.000000	61.000000	0.000000	0.000000
2.060000	24.660000	32.480000	0.000000	0.000000	126.000000	61.000000	6.000000	-6.000000
2.070000	24.660000	32.360000	0.000000	0.000000	126.000000	61.000000	0.000000	-12.000000
2.080000	24.660000	32.260000	0.000000	0.000000	126.000000	61.000000	0.000000	-10.000000
2.090000	24.810000	32.190000	0.000000	0.000000	127.000000	62.000000	15.000000	-7.000000
2.100000	24.970000	32.190000	0.000000	0.000000	127.000000	62.000000	16.000000	0.000000
2.110000	25.260000	32.140000	0.000000	0.000000	129.000000	61.000000	29.000000	-5.000000
2.120000	25.640000	32.140000	0.000000	0.000000	129.000000	61.000000	38.000000	0.000000
2.130000	26.010000	32.140000	0.000000	0.000000	129.000000	61.000000	37.000000	0.000000
2.140000	26.320000	32.140000	0.000000	0.000000	130.000000	62.000000	31.000000	0.000000
2.150000	26.580000	32.230000	0.000000	0.000000	130.000000	62.000000	26.000000	9.000000
2.160000	26.580000	32.350000	0.000000	0.000000	130.000000	62.000000	0.000000	12.000000
2.170000	26.630000	32.430000	0.000000	0.000000	130.000000	62.000000	5.000000	8.000000
2.180000	26.630000	32.580000	0.000000	0.000000	130.000000	62.000000	0.000000	15.000000
2.190000	26.700000	32.790000	0.000000	0.000000	129.000000	61.000000	7.000000	21.000000
2.200000	26.700000	32.790000	90.000000	1.000000	129.000000	61.000000	0.000000	0.000000
2.210000	26.630000	33.210000	149.000000	0.000000	127.000000	62.000000	-7.000000	42.000000
2.220000	26.500000	33.370000	255.000000	0.000000	126.000000	61.000000	-13.000000	16.000000
2.230000	26.370000	33.500000	324.000000	0.000000	126.000000	61.000000	-13.000000	13.000000
