t	x	y	pressure	penup	azimuth	inclination	v_x	v_y
0.000000	94.730000	13.130000	81.000000	1.000000	138.000000	64.000000	0.000000	0.000000
0.010000	95.570000	16.540000	129.000000	0.000000	140.000000	63.000000	84.000000	341.000000
0.020000	95.930000	17.360000	186.000000	0.000000	141.000000	63.000000	36.000000	82.000000
0.030000	96.040000	17.640000	282.000000	0.000000	141.000000	63.000000	11.000000	28.000000
0.040000	96.040000	17.250000	407.000000	0.000000	143.000000	62.000000	0.000000	-39.000000
0.050000	95.990000	15.840000	522.000000	0.000000	144.000000	61.000000	-5.000000	-141.000000
0.060000	95.450000	13.740000	589.000000	0.000000	145.000000	60.000000	-54.000000	-210.000000
0.070000	94.760000	11.360000	669.000000	0.000000	145.000000	60.000000	-69.000000	-238.000000
0.080000	93.960000	9.290000	711.000000	0.000000	146.000000	62.000000	-80.000000	-207.000000
0.090000	93.300000	7.870000	731.000000	0.000000	143.000000	63.000000	-66.000000	-142.000000
0.100000	92.640000	6.790000	748.000000	0.000000	141.000000	64.000000	-66.000000	-108.000000
0.110000	92.380000	6.000000	733.000000	0.000000	140.000000	65.000000	-26.000000	-79.000000
0.120000	92.380000	5.570000	684.000000	0.000000	137.000000	66.000000	0.000000	-43.000000
0.130000	92.590000	5.390000	643.000000	0.000000	135.000000	68.000000	21.000000	-18.000000
0.140000	92.830000	5.390000	616.000000	0.000000	133.000000	69.000000	24.000000	0.000000
0.150000	93.370000	5.950000	606.000000	0.000000	131.000000	69.000000	54.000000	56.000000
0.160000	94.100000	6.790000	600.000000	0.000000	131.000000	69.000000	73.000000	84.000000
0.170000	94.410000	7.720000	606.000000	0.000000	131.000000	69.000000	31.000000	93.000000
0.180000	94.410000	8.690000	609.000000	0.000000	131.000000	69.000000	0.000000	97.000000
0.190000	94.190000	9.680000	611.000000	0.000000	129.000000	68.000000	-22.000000	99.000000
0.200000	93.670000	10.590000	613.000000	0.000000	131.000000	69.000000	-52.000000	91.000000
0.210000	92.780000	11.010000	620.000000	0.000000	131.000000	69.000000	-89.000000	42.000000
0.220000	91.650000	11.110000	622.000000	0.000000	131.000000	69.000000	-113.000000	10.000000
0.230000	90.070000	10.920000	642.000000	0.000000	133.000000	69.000000	-158.000000	-19.000000
0.240000	88.260000	10.530000	673.000000	0.000000	131.000000	69.000000	-181.000000	-39.000000
0.250000	86.290000	10.000000	690.000000	0.000000	131.000000	69.000000	-197.000000	-53.000000
0.260000	84.580000	9.550000	728.000000	0.000000	131.000000	69.000000	-171.000000	-45.000000
0.270000	83.760000	9.350000	733.000000	0.000000	129.000000	70.000000	-82.000000	-20.000000
0.280000	83.540000	9.350000	722.000000	0.000000	129.000000	70.000000	-22.000000	0.000000
0.290000	83.850000	9.350000	725.000000	0.000000	125.000000	70.000000	31.000000	0.000000
0.300000	85.080000	9.480000	751.000000	0.000000	125.000000	70.000000	123.000000	13.000000
0.310000	86.920000	9.730000	771.000000	0.000000	125.000000	70.000000	184.000000	25.000000
0.320000	89.820000	10.060000	787.000000	0.000000	125.000000	70.000000	290.000000	33.000000
0.330000	93.180000	10.640000	814.000000	0.000000	125.000000	70.000000	336.000000	58.000000
0.340000	96.840000	11.450000	825.000000	0.000000	127.000000	70.000000	366.000000	81.000000
0.350000	101.110000	12.420000	845.000000	0.000000	133.000000	70.000000	427.000000	97.000000
0.360000	105.140000	13.530000	863.000000	0.000000	137.000000	70.000000	403.000000	111.000000
0.370000	109.020000	14.610000	869.000000	0.000000	142.000000	68.000000	388.000000	108.000000
0.380000	112.830000	15.380000	864.000000	0.000000	147.000000	65.000000	381.000000	77.000000
0.390000	115.650000	15.940000	825.000000	0.000000	150.000000	62.000000	282.000000	56.000000
0.400000	117.820000	16.240000	763.000000	0.000000	154.000000	58.000000	217.000000	30.000000
0.410000	119.150000	16.320000	638.000000	0.000000	156.000000	55.000000	133.000000	8.000000
0.420000	119.860000	16.260000	448.000000	0.000000	156.000000	51.000000	71.000000	-6.000000
0.430000	120.160000	16.170000	272.000000	0.000000	158.000000	48.000000	30.000000	-9.000000
0.440000	120.040000	16.070000	125.000000	0.000000	157.000000	46.000000	-12.000000	-10.000000
0.450000	120.040000	16.070000	0.000000	1.000000	157.000000	44.000000	0.000000	0.000000
0.460000	119.230000	15.740000	0.000000	0.000000	157.000000	43.000000	-81.000000	-33.000000
0.470000	118.610000	15.680000	0.000000	0.000000	156.000000	42.000000	-62.000000	-6.000000
0.480000	117.700000	15.680000	0.000000	0.000000	155.000000	42.000000	-91.000000	0.000000
0.490000	116.590000	15.680000	0.000000	0.000000	155.000000	42.000000	-111.000000	0.000000
0.500000	115.150000	15.680000	0.000000	0.000000	153.000000	43.000000	-144.000000	0.000000
0.510000	113.430000	15.630000	0.000000	0.000000	152.000000	42.000000	-172.000000	-5.000000
0.520000	111.530000	15.500000	0.000000	0.000000	150.000000	43.000000	-190.000000	-13.000000
0.530000	109.630000	15.330000	0.000000	0.000000	150.000000	43.000000	-190.000000	-17.000000
0.540000	108.000000	15.190000	0.000000	0.000000	151.000000	43.000000	-163.000000	-14.000000
0.550000	106.540000	15.060000	0.000000	0.000000	152.000000	44.000000	-146.000000	-13.000000
0.560000	105.150000	15.060000	0.000000	0.000000	152.000000	44.000000	-139.000000	0.000000
0.570000	103.760000	14.980000	0.000000	0.000000	153.000000	44.000000	-139.000000	-8.000000
0.580000	102.400000	14.980000	0.000000	0.000000	153.000000	45.000000	-136.000000	0.000000
0.590000	101.060000	14.980000	0.000000	0.000000	152.000000	44.000000	-134.000000	0.000000
0.600000	99.780000	14.800000	0.000000	0.000000	152.000000	44.000000	-128.000000	-18.000000
0.610000	98.690000	14.510000	0.000000	0.000000	150.000000	45.000000	-109.000000	-29.000000
0.620000	97.720000	14.130000	0.000000	0.000000	148.000000	45.000000	-97.000000	-38.000000
0.630000	97.140000	13.800000	0.000000	0.000000	147.000000	46.000000	-58.000000	-33.000000
0.640000	96.800000	13.600000	0.000000	0.000000	145.000000	47.000000	-34.000000	-20.000000
0.650000	96.630000	13.500000	0.000000	0.000000	144.000000	48.000000	-17.000000	-10.000000
0.660000	96.630000	13.740000	0.000000	0.000000	144.000000	50.000000	0.000000	24.000000
0.670000	96.690000	13.970000	0.000000	0.000000	145.000000	53.000000	6.000000	23.000000
0.680000	96.690000	13.970000	0.000000	0.000000	145.000000	55.000000	0.000000	0.000000
0.690000	96.690000	13.970000	0.000000	0.000000	146.000000	57.000000	0.000000	0.000000
0.700000	96.340000	13.600000	0.000000	0.000000	143.000000	59.000000	-35.000000	-37.000000
0.710000	96.340000	13.310000	0.000000	0.000000	141.000000	60.000000	0.000000	-29.000000
0.720000	96.340000	12.960000	0.000000	0.000000	139.000000	61.000000	0.000000	-35.000000
0.730000	96.340000	12.650000	0.000000	0.000000	135.000000	62.000000	0.000000	-31.000000
0.740000	96.430000	12.470000	0.000000	0.000000	132.000000	63.000000	9.000000	-18.000000
0.750000	96.600000	12.370000	0.000000	0.000000	130.000000	63.000000	17.000000	-10.000000
0.760000	96.740000	12.300000	0.000000	0.000000	129.000000	64.000000	14.000000	-7.000000
0.770000	96.840000	12.230000	0.000000	0.000000	127.000000	64.000000	10.000000	-7.000000
0.780000	96.840000	12.230000	0.000000	0.000000	128.000000	65.000000	0.000000	0.000000
0.790000	96.840000	12.180000	0.000000	0.000000	126.000000	66.000000	0.000000	-5.000000
0.800000	96.790000	12.180000	0.000000	0.000000	126.000000	66.000000	-5.000000	0.000000
0.810000	96.790000	12.280000	0.000000	0.000000	126.000000	66.000000	0.000000	10.000000
0.820000	96.740000	12.390000	0.000000	0.000000	126.000000	66.000000	-5.000000	11.000000
0.830000	96.740000	12.560000	0.000000	0.000000	126.000000	66.000000	0.000000	17.000000
0.840000	96.740000	12.740000	0.000000	0.000000	126.000000	66.000000	0.000000	18.000000
0.850000	96.740000	12.940000	0.000000	0.000000	126.000000	66.000000	0.000000	20.000000
0.860000	96.740000	13.180000	0.000000	0.000000	126.000000	66.000000	0.000000	24.000000
0.870000	96.740000	13.450000	0.000000	0.000000	126.000000	66.000000	0.000000	27.000000
0.880000	96.690000	13.740000	0.000000	0.000000	126.000000	66.000000	-5.000000	29.000000
0.890000	96.690000	14.000000	0.000000	0.000000	128.000000	65.000000	0.000000	26.000000
0.900000	96.630000	14.210000	0.000000	0.000000	130.000000	65.000000	-6.000000	21.000000
0.910000	96.630000	14.330000	0.000000	0.000000	130.000000	63.000000	0.000000	12.000000
0.920000	96.630000	14.330000	0.000000	0.000000	130.000000	63.000000	0.000000	0.000000
0.930000	96.630000	14.160000	0.000000	0.000000	130.000000	63.000000	0.000000	-17.000000
0.940000	96.630000	14.160000	218.000000	1.000000	130.000000	63.000000	0.000000	0.000000
0.950000	96.460000	13.580000	441.000000	0.000000	130.000000	63.000000	-17.000000	-58.000000
0.960000	96.410000	13.310000	519.000000	0.000000	129.000000	64.000000	-5.000000	-27.000000
0.970000	96.410000	13.050000	591.000000	0.000000	127.000000	64.000000	0.000000	-26.000000
0.980000	96.410000	12.870000	639.000000	0.000000	125.000000	65.000000	0.000000	-18.000000
0.990000	96.460000	12.700000	647.000000	0.000000	123.000000	65.000000	5.000000	-17.000000
1.000000	96.460000	12.540000	638.000000	0.000000	121.000000	66.000000	0.000000	-16.000000
1.010000	96.550000	12.440000	564.000000	0.000000	119.000000	66.000000	9.000000	-10.000000
1.020000	96.600000	12.350000	205.000000	0.000000	118.000000	68.000000	5.000000	-9.000000
1.030000	96.600000	12.350000	0.000000	1.000000	118.000000	68.000000	0.000000	0.000000
1.040000	96.600000	12.270000	0.000000	0.000000	118.000000	68.000000	0.000000	-8.000000
1.050000	96.600000	12.270000	0.000000	0.000000	118.000000	68.000000	0.000000	0.000000
1.060000	96.670000	12.560000	0.000000	0.000000	118.000000	68.000000	7.000000	29.000000
1.070000	96.670000	12.810000	0.000000	0.000000	118.000000	68.000000	0.000000	25.000000
1.080000	96.670000	13.080000	0.000000	0.000000	119.000000	66.000000	0.000000	27.000000
1.090000	96.670000	13.370000	0.000000	0.000000	121.000000	66.000000	0.000000	29.000000
1.100000	96.550000	13.650000	0.000000	0.000000	123.000000	65.000000	-12.000000	28.000000
1.110000	96.450000	13.920000	0.000000	0.000000	125.000000	65.000000	-10.000000	27.000000
1.120000	96.350000	14.170000	0.000000	0.000000	127.000000	64.000000	-10.000000	25.000000
1.130000	96.350000	14.170000	371.000000	1.000000	127.000000	64.000000	0.000000	0.000000
1.140000	96.130000	14.510000	460.000000	0.000000	127.000000	63.000000	-22.000000	34.000000
1.150000	96.030000	14.610000	529.000000	0.000000	127.000000	63.000000	-10.000000	10.000000
1.160000	96.030000	14.710000	567.000000	0.000000	127.000000	63.000000	0.000000	10.000000
1.170000	96.030000	14.710000	567.000000	0.000000	127.000000	63.000000	0.000000	0.000000
1.180000	96.030000	14.710000	498.000000	0.000000	127.000000	63.000000	0.000000	0.000000
1.190000	96.110000	14.650000	242.000000	0.000000	125.000000	64.000000	8.000000	-6.000000
1.200000	96.110000	14.650000	0.000000	1.000000	127.000000	64.000000	0.000000	0.000000
1.210000	96.400000	13.970000	0.000000	0.000000	127.000000	64.000000	29.000000	-68.000000
1.220000	96.640000	13.700000	0.000000	0.000000	127.000000	64.000000	24.000000	-27.000000
1.230000	96.920000	13.540000	0.000000	0.000000	127.000000	64.000000	28.000000	-16.000000
1.240000	97.250000	13.450000	0.000000	0.000000	130.000000	65.000000	33.000000	-9.000000
1.250000	97.660000	13.400000	0.000000	0.000000	130.000000	65.000000	41.000000	-5.000000
1.260000	97.980000	13.340000	0.000000	0.000000	132.000000	64.000000	32.000000	-6.000000
1.270000	98.230000	13.240000	0.000000	0.000000	133.000000	65.000000	25.000000	-10.000000
1.280000	98.230000	13.000000	0.000000	0.000000	133.000000	65.000000	0.000000	-24.000000
1.290000	98.310000	12.680000	0.000000	0.000000	137.000000	65.000000	8.000000	-32.000000
1.300000	98.360000	12.440000	0.000000	0.000000	137.000000	65.000000	5.000000	-24.000000
1.310000	98.360000	12.440000	392.000000	1.000000	135.000000	65.000000	0.000000	0.000000
1.320000	98.360000	12.180000	580.000000	0.000000	137.000000	66.000000	0.000000	-26.000000
1.330000	98.220000	12.180000	684.000000	0.000000	135.000000	67.000000	-14.000000	0.000000
1.340000	98.220000	12.180000	788.000000	0.000000	131.000000	68.000000	0.000000	0.000000
1.350000	98.170000	12.250000	833.000000	0.000000	129.000000	68.000000	-5.000000	7.000000
1.360000	98.110000	12.390000	837.000000	0.000000	127.000000	69.000000	-6.000000	14.000000
1.370000	98.020000	12.650000	820.000000	0.000000	127.000000	69.000000	-9.000000	26.000000
1.380000	97.940000	12.990000	730.000000	0.000000	127.000000	69.000000	-8.000000	34.000000
1.390000	97.940000	13.350000	613.000000	0.000000	127.000000	69.000000	0.000000	36.000000
1.400000	98.100000	13.680000	513.000000	0.000000	127.000000	69.000000	16.000000	33.000000
1.410000	98.410000	13.970000	485.000000	0.000000	127.000000	69.000000	31.000000	29.000000
1.420000	98.830000	14.240000	488.000000	0.000000	127.000000	69.000000	42.000000	27.000000
1.430000	99.420000	14.450000	488.000000	0.000000	128.000000	68.000000	59.000000	21.000000
1.440000	99.850000	14.640000	494.000000	0.000000	130.000000	67.000000	43.000000	19.000000
1.450000	100.180000	14.710000	517.000000	0.000000	131.000000	67.000000	33.000000	7.000000
1.460000	100.380000	14.710000	519.000000	0.000000	133.000000	66.000000	20.000000	0.000000
1.470000	100.500000	14.710000	529.000000	0.000000	137.000000	66.000000	12.000000	0.000000
1.480000	100.560000	14.760000	567.000000	0.000000	138.000000	65.000000	6.000000	5.000000
1.490000	100.560000	14.760000	608.000000	0.000000	140.000000	65.000000	0.000000	0.000000
1.500000	100.480000	14.760000	638.000000	0.000000	140.000000	65.000000	-8.000000	0.000000
1.510000	100.290000	14.710000	639.000000	0.000000	140.000000	63.000000	-19.000000	-5.000000
1.520000	100.010000	14.480000	652.000000	0.000000	138.000000	64.000000	-28.000000	-23.000000
1.530000	99.690000	14.150000	661.000000	0.000000	138.000000	64.000000	-32.000000	-33.000000
1.540000	99.540000	13.910000	662.000000	0.000000	137.000000	65.000000	-15.000000	-24.000000
1.550000	99.540000	13.660000	664.000000	0.000000	135.000000	64.000000	0.000000	-25.000000
1.560000	99.540000	13.520000	664.000000	0.000000	133.000000	65.000000	0.000000	-14.000000
1.570000	99.680000	13.460000	661.000000	0.000000	132.000000	65.000000	14.000000	-6.000000
1.580000	99.870000	13.460000	661.000000	0.000000	128.000000	65.000000	19.000000	0.000000
1.590000	100.070000	13.590000	650.000000	0.000000	128.000000	65.000000	20.000000	13.000000
1.600000	100.280000	13.820000	643.000000	0.000000	126.000000	66.000000	21.000000	23.000000
1.610000	100.450000	14.030000	637.000000	0.000000	128.000000	66.000000	17.000000	21.000000
1.620000	100.600000	14.230000	641.000000	0.000000	128.000000	66.000000	15.000000	20.000000
1.630000	100.690000	14.230000	652.000000	0.000000	130.000000	66.000000	9.000000	0.000000
1.640000	100.800000	14.080000	685.000000	0.000000	131.000000	67.000000	11.000000	-15.000000
1.650000	100.940000	13.670000	734.000000	0.000000	131.000000	67.000000	14.000000	-41.000000
1.660000	101.000000	13.040000	773.000000	0.000000	131.000000	67.000000	6.000000	-63.000000
1.670000	101.000000	12.270000	783.000000	0.000000	131.000000	67.000000	0.000000	-77.000000
1.680000	101.000000	11.820000	783.000000	0.000000	131.000000	67.000000	0.000000	-45.000000
1.690000	101.000000	11.310000	783.000000	0.000000	130.000000	67.000000	0.000000	-51.000000
1.700000	101.000000	11.170000	784.000000	0.000000	128.000000	68.000000	0.000000	-14.000000
1.710000	101.000000	11.310000	757.000000	0.000000	125.000000	68.000000	0.000000	14.000000
1.720000	101.000000	11.310000	737.000000	0.000000	123.000000	69.000000	0.000000	0.000000
1.730000	101.050000	11.620000	702.000000	0.000000	121.000000	69.000000	5.000000	31.000000
1.740000	101.050000	12.040000	671.000000	0.000000	121.000000	69.000000	0.000000	42.000000
1.750000	101.170000	12.640000	644.000000	0.000000	121.000000	69.000000	12.000000	60.000000
1.760000	101.300000	13.290000	614.000000	0.000000	121.000000	69.000000	13.000000	65.000000
1.770000	101.480000	13.980000	595.000000	0.000000	123.000000	69.000000	18.000000	69.000000
1.780000	101.720000	14.530000	589.000000	0.000000	125.000000	68.000000	24.000000	55.000000
1.790000	101.990000	14.890000	595.000000	0.000000	128.000000	68.000000	27.000000	36.000000
1.800000	102.270000	15.120000	620.000000	0.000000	131.000000	67.000000	28.000000	23.000000
1.810000	102.270000	15.120000	700.000000	0.000000	133.000000	66.000000	0.000000	0.000000
1.820000	102.270000	15.120000	793.000000	0.000000	138.000000	65.000000	0.000000	0.000000
1.830000	102.600000	14.890000	855.000000	0.000000	140.000000	65.000000	33.000000	-23.000000
1.840000	102.720000	14.670000	900.000000	0.000000	140.000000	65.000000	12.000000	-22.000000
1.850000	102.830000	14.390000	897.000000	0.000000	141.000000	64.000000	11.000000	-28.000000
1.860000	102.830000	13.990000	894.000000	0.000000	140.000000	65.000000	0.000000	-40.000000
1.870000	102.830000	13.790000	860.000000	0.000000	140.000000	65.000000	0.000000	-20.000000
1.880000	102.960000	13.740000	658.000000	0.000000	138.000000	65.000000	13.000000	-5.000000
1.890000	103.030000	13.740000	252.000000	0.000000	140.000000	66.000000	7.000000	0.000000
1.900000	103.030000	13.740000	0.000000	1.000000	139.000000	67.000000	0.000000	0.000000
1.910000	103.030000	14.040000	0.000000	0.000000	139.000000	67.000000	0.000000	30.000000
1.920000	103.030000	14.240000	0.000000	0.000000	139.000000	67.000000	0.000000	20.000000
1.930000	102.960000	14.480000	0.000000	0.000000	137.000000	66.000000	-7.000000	24.000000
1.940000	102.860000	14.820000	0.000000	0.000000	138.000000	65.000000	-10.000000	34.000000
1.950000	102.790000	15.210000	0.000000	0.000000	141.000000	64.000000	-7.000000	39.000000
1.960000	102.710000	15.730000	0.000000	0.000000	144.000000	62.000000	-8.000000	52.000000
1.970000	102.640000	16.260000	0.000000	0.000000	146.000000	62.000000	-7.000000	53.000000
1.980000	102.590000	16.800000	0.000000	0.000000	144.000000	61.000000	-5.000000	54.000000
1.990000	102.590000	17.130000	0.000000	0.000000	144.000000	61.000000	0.000000	33.000000
2.000000	102.590000	17.130000	108.000000	1.000000	144.000000	62.000000	0.000000	0.000000
2.010000	102.590000	17.130000	310.000000	0.000000	143.000000	63.000000	0.000000	0.000000
2.020000	102.590000	17.130000	324.000000	0.000000	141.000000	64.000000	0.000000	0.000000
2.030000	102.570000	16.600000	335.000000	0.000000	142.000000	65.000000	-2.000000	-53.000000
2.040000	102.730000	16.080000	371.000000	0.000000	142.000000	65.000000	16.000000	-52.000000
2.050000	102.920000	15.620000	398.000000	0.000000	142.000000	65.000000	19.000000	-46.000000
2.060000	103.180000	15.310000	396.000000	0.000000	143.000000	64.000000	26.000000	-31.000000
2.070000	103.520000	15.110000	389.000000	0.000000	145.000000	64.000000	34.000000	-20.000000
2.080000	103.910000	15.030000	384.000000	0.000000	147.000000	62.000000	39.000000	-8.000000
2.090000	104.110000	14.950000	381.000000	0.000000	148.000000	61.000000	20.000000	-8.000000
2.100000	104.170000	14.950000	430.000000	0.000000	150.000000	60.000000	6.000000	0.000000
2.110000	104.170000	14.950000	509.000000	0.000000	150.000000	60.000000	0.000000	0.000000
2.120000	104.170000	14.950000	530.000000	0.000000	148.000000	60.000000	0.000000	0.000000
2.130000	104.320000	14.950000	611.000000	0.000000	150.000000	60.000000	15.000000	0.000000
2.140000	104.520000	15.100000	661.000000	0.000000	150.000000	60.000000	20.000000	15.000000
2.150000	104.880000	15.420000	693.000000	0.000000	150.000000	60.000000	36.000000	32.000000
2.160000	105.340000	15.610000	724.000000	0.000000	151.000000	61.000000	46.000000	19.000000
2.170000	105.700000	15.720000	743.000000	0.000000	152.000000	60.000000	36.000000	11.000000
2.180000	105.970000	15.780000	767.000000	0.000000	154.000000	60.000000	27.000000	6.000000
2.190000	106.190000	15.690000	830.000000	0.000000	155.000000	60.000000	22.000000	-9.000000
2.200000	106.410000	15.500000	866.000000	0.000000	157.000000	59.000000	22.000000	-19.000000
2.210000	106.650000	15.290000	870.000000	0.000000	160.000000	58.000000	24.000000	-21.000000
