t	x	y	pressure	penup	azimuth	inclination	v_x	v_y
0.000000	20.510000	35.370000	71.000000	1.000000	119.000000	64.000000	0.000000	0.000000
0.010000	21.590000	37.750000	218.000000	0.000000	122.000000	65.000000	108.000000	238.000000
0.020000	21.790000	38.110000	255.000000	0.000000	124.000000	64.000000	20.000000	36.000000
0.030000	21.790000	37.920000	363.000000	0.000000	124.000000	64.000000	0.000000	-19.000000
0.040000	21.570000	37.370000	498.000000	0.000000	127.000000	64.000000	-22.000000	-55.000000
0.050000	21.170000	36.090000	567.000000	0.000000	127.000000	64.000000	-40.000000	-128.000000
0.060000	20.230000	34.300000	697.000000	0.000000	127.000000	64.000000	-94.000000	-179.000000
0.070000	19.270000	32.170000	773.000000	0.000000	125.000000	65.000000	-96.000000	-213.000000
0.080000	18.300000	30.220000	806.000000	0.000000	125.000000	65.000000	-97.000000	-195.000000
0.090000	17.610000	28.680000	827.000000	0.000000	123.000000	65.000000	-69.000000	-154.000000
0.100000	17.210000	27.410000	824.000000	0.000000	122.000000	67.000000	-40.000000	-127.000000
0.110000	16.990000	26.750000	806.000000	0.000000	120.000000	67.000000	-22.000000	-66.000000
0.120000	17.090000	26.460000	763.000000	0.000000	116.000000	68.000000	10.000000	-29.000000
0.130000	17.170000	26.460000	716.000000	0.000000	114.000000	68.000000	8.000000	0.000000
0.140000	17.240000	26.460000	697.000000	0.000000	111.000000	69.000000	7.000000	0.000000
0.150000	17.240000	26.740000	696.000000	0.000000	109.000000	69.000000	0.000000	28.000000
0.160000	17.320000	27.160000	690.000000	0.000000	106.000000	69.000000	8.000000	42.000000
0.170000	17.230000	28.110000	694.000000	0.000000	106.000000	69.000000	-9.000000	95.000000
0.180000	17.060000	29.250000	630.000000	0.000000	106.000000	69.000000	-17.000000	114.000000
0.190000	16.510000	30.530000	592.000000	0.000000	109.000000	69.000000	-55.000000	128.000000
0.200000	15.700000	32.040000	624.000000	0.000000	109.000000	69.000000	-81.000000	151.000000
0.210000	14.720000	32.850000	622.000000	0.000000	111.000000	69.000000	-98.000000	81.000000
0.220000	13.640000	33.190000	620.000000	0.000000	116.000000	68.000000	-108.000000	34.000000
0.230000	12.300000	33.110000	647.000000	0.000000	118.000000	68.000000	-134.000000	-8.000000
0.240000	10.780000	32.670000	681.000000	0.000000	120.000000	67.000000	-152.000000	-44.000000
0.250000	9.150000	31.990000	699.000000	0.000000	122.000000	68.000000	-163.000000	-68.000000
0.260000	7.710000	31.510000	728.000000	0.000000	124.000000	67.000000	-144.000000	-48.000000
0.270000	6.940000	31.150000	748.000000	0.000000	125.000000	68.000000	-77.000000	-36.000000
0.280000	6.560000	30.860000	728.000000	0.000000	125.000000	70.000000	-38.000000	-29.000000
0.290000	6.800000	30.860000	731.000000	0.000000	125.000000	70.000000	24.000000	0.000000
0.300000	7.920000	30.770000	746.000000	0.000000	127.000000	70.000000	112.000000	-9.000000
0.310000	9.630000	30.900000	760.000000	0.000000	124.000000	71.000000	171.000000	13.000000
0.320000	12.550000	31.170000	767.000000	0.000000	124.000000	71.000000	292.000000	27.000000
0.330000	15.910000	31.570000	783.000000	0.000000	124.000000	71.000000	336.000000	40.000000
0.340000	19.570000	32.200000	799.000000	0.000000	124.000000	71.000000	366.000000	63.000000
0.350000	23.750000	32.990000	808.000000	0.000000	122.000000	70.000000	418.000000	79.000000
0.360000	27.810000	33.700000	806.000000	0.000000	121.000000	69.000000	406.000000	71.000000
0.370000	31.780000	34.560000	797.000000	0.000000	119.000000	68.000000	397.000000	86.000000
0.380000	34.910000	35.260000	748.000000	0.000000	119.000000	68.000000	313.000000	70.000000
0.390000	37.140000	35.800000	670.000000	0.000000	118.000000	68.000000	223.000000	54.000000
0.400000	38.760000	36.060000	381.000000	0.000000	117.000000	67.000000	162.000000	26.000000
0.410000	38.760000	36.060000	0.000000	1.000000	117.000000	67.000000	0.000000	0.000000
0.420000	39.320000	36.160000	0.000000	0.000000	114.000000	66.000000	56.000000	10.000000
0.430000	39.040000	36.060000	0.000000	0.000000	113.000000	65.000000	-28.000000	-10.000000
0.440000	38.670000	35.930000	0.000000	0.000000	113.000000	65.000000	-37.000000	-13.000000
0.450000	38.170000	36.000000	0.000000	0.000000	112.000000	64.000000	-50.000000	7.000000
0.460000	37.590000	36.220000	0.000000	0.000000	112.000000	64.000000	-58.000000	22.000000
0.470000	36.740000	36.290000	0.000000	0.000000	112.000000	64.000000	-85.000000	7.000000
0.480000	35.460000	36.160000	0.000000	0.000000	113.000000	63.000000	-128.000000	-13.000000
0.490000	33.890000	35.890000	0.000000	0.000000	113.000000	63.000000	-157.000000	-27.000000
0.500000	32.260000	35.540000	0.000000	0.000000	114.000000	62.000000	-163.000000	-35.000000
0.510000	30.750000	35.450000	0.000000	0.000000	114.000000	61.000000	-151.000000	-9.000000
0.520000	29.320000	35.530000	0.000000	0.000000	115.000000	60.000000	-143.000000	8.000000
0.530000	28.510000	35.690000	0.000000	0.000000	116.000000	57.000000	-81.000000	16.000000
0.540000	27.690000	35.890000	0.000000	0.000000	116.000000	55.000000	-82.000000	20.000000
0.550000	26.860000	36.120000	0.000000	0.000000	117.000000	53.000000	-83.000000	23.000000
0.560000	26.190000	36.340000	0.000000	0.000000	118.000000	51.000000	-67.000000	22.000000
0.570000	25.400000	36.220000	0.000000	0.000000	118.000000	49.000000	-79.000000	-12.000000
0.580000	24.530000	35.880000	0.000000	0.000000	119.000000	49.000000	-87.000000	-34.000000
0.590000	23.630000	35.500000	0.000000	0.000000	120.000000	50.000000	-90.000000	-38.000000
0.600000	22.850000	35.080000	0.000000	0.000000	122.000000	50.000000	-78.000000	-42.000000
0.610000	22.420000	34.720000	0.000000	0.000000	123.000000	52.000000	-43.000000	-36.000000
0.620000	22.180000	34.420000	0.000000	0.000000	124.000000	53.000000	-24.000000	-30.000000
0.630000	22.720000	34.270000	0.000000	0.000000	125.000000	56.000000	54.000000	-15.000000
0.640000	22.970000	34.070000	0.000000	0.000000	126.000000	58.000000	25.000000	-20.000000
0.650000	23.030000	33.830000	0.000000	0.000000	123.000000	59.000000	6.000000	-24.000000
0.660000	22.460000	33.620000	0.000000	0.000000	120.000000	60.000000	-57.000000	-21.000000
0.670000	22.340000	33.390000	0.000000	0.000000	116.000000	60.000000	-12.000000	-23.000000
0.680000	22.530000	33.150000	0.000000	0.000000	113.000000	61.000000	19.000000	-24.000000
0.690000	22.530000	32.950000	0.000000	0.000000	111.000000	61.000000	0.000000	-20.000000
0.700000	22.530000	32.780000	0.000000	0.000000	109.000000	62.000000	0.000000	-17.000000
0.710000	22.370000	32.650000	0.000000	0.000000	107.000000	62.000000	-16.000000	-13.000000
0.720000	22.660000	32.540000	0.000000	0.000000	105.000000	62.000000	29.000000	-11.000000
0.730000	22.490000	32.430000	0.000000	0.000000	104.000000	63.000000	-17.000000	-11.000000
0.740000	22.000000	32.430000	0.000000	0.000000	104.000000	63.000000	-49.000000	0.000000
0.750000	21.910000	32.430000	0.000000	0.000000	104.000000	63.000000	-9.000000	0.000000
0.760000	21.910000	32.570000	0.000000	0.000000	104.000000	63.000000	0.000000	14.000000
0.770000	21.910000	32.710000	0.000000	0.000000	104.000000	63.000000	0.000000	14.000000
0.780000	21.910000	32.870000	0.000000	0.000000	104.000000	63.000000	0.000000	16.000000
0.790000	21.910000	33.070000	0.000000	0.000000	104.000000	63.000000	0.000000	20.000000
0.800000	21.910000	33.300000	0.000000	0.000000	104.000000	63.000000	0.000000	23.000000
0.810000	21.910000	33.550000	0.000000	0.000000	104.000000	63.000000	0.000000	25.000000
0.820000	21.910000	33.790000	0.000000	0.000000	104.000000	63.000000	0.000000	24.000000
0.830000	21.790000	34.050000	0.000000	0.000000	104.000000	63.000000	-12.000000	26.000000
0.840000	21.710000	34.320000	0.000000	0.000000	104.000000	63.000000	-8.000000	27.000000
0.850000	21.660000	34.600000	0.000000	0.000000	106.000000	63.000000	-5.000000	28.000000
0.860000	21.610000	34.900000	0.000000	0.000000	105.000000	62.000000	-5.000000	30.000000
0.870000	21.610000	35.220000	0.000000	0.000000	105.000000	62.000000	0.000000	32.000000
0.880000	21.610000	35.430000	0.000000	0.000000	105.000000	62.000000	0.000000	21.000000
0.890000	21.610000	35.430000	0.000000	0.000000	105.000000	62.000000	0.000000	0.000000
0.900000	21.510000	35.310000	0.000000	0.000000	105.000000	61.000000	-10.000000	-12.000000
0.910000	21.510000	35.310000	51.000000	1.000000	105.000000	61.000000	0.000000	0.000000
0.920000	21.390000	34.550000	430.000000	0.000000	105.000000	61.000000	-12.000000	-76.000000
0.930000	21.390000	34.090000	556.000000	0.000000	104.000000	62.000000	0.000000	-46.000000
0.940000	21.390000	33.740000	667.000000	0.000000	104.000000	62.000000	0.000000	-35.000000
0.950000	21.450000	33.520000	727.000000	0.000000	104.000000	62.000000	6.000000	-22.000000
0.960000	21.500000	33.390000	730.000000	0.000000	104.000000	63.000000	5.000000	-13.000000
0.970000	21.500000	33.310000	724.000000	0.000000	104.000000	63.000000	0.000000	-8.000000
0.980000	21.500000	33.310000	682.000000	0.000000	102.000000	63.000000	0.000000	0.000000
0.990000	21.500000	33.310000	562.000000	0.000000	102.000000	63.000000	0.000000	0.000000
1.000000	21.500000	33.310000	260.000000	0.000000	102.000000	63.000000	0.000000	0.000000
1.010000	21.500000	33.310000	0.000000	1.000000	102.000000	63.000000	0.000000	0.000000
1.020000	21.500000	33.540000	0.000000	0.000000	102.000000	63.000000	0.000000	23.000000
1.030000	21.500000	33.820000	0.000000	0.000000	102.000000	63.000000	0.000000	28.000000
1.040000	21.500000	34.130000	0.000000	0.000000	102.000000	63.000000	0.000000	31.000000
1.050000	21.430000	34.430000	0.000000	0.000000	102.000000	63.000000	-7.000000	30.000000
1.060000	21.380000	34.730000	0.000000	0.000000	102.000000	63.000000	-5.000000	30.000000
1.070000	21.270000	34.910000	0.000000	0.000000	102.000000	63.000000	-11.000000	18.000000
1.080000	21.130000	35.090000	0.000000	0.000000	102.000000	63.000000	-14.000000	18.000000
1.090000	20.950000	35.090000	0.000000	0.000000	104.000000	63.000000	-18.000000	0.000000
1.100000	20.800000	34.990000	0.000000	0.000000	104.000000	63.000000	-15.000000	-10.000000
1.110000	20.750000	34.910000	0.000000	0.000000	104.000000	62.000000	-5.000000	-8.000000
1.120000	20.900000	34.820000	0.000000	0.000000	104.000000	62.000000	15.000000	-9.000000
1.130000	21.180000	34.750000	0.000000	0.000000	104.000000	62.000000	28.000000	-7.000000
1.140000	21.380000	34.690000	0.000000	0.000000	105.000000	61.000000	20.000000	-6.000000
1.150000	21.630000	34.690000	0.000000	0.000000	105.000000	61.000000	25.000000	0.000000
1.160000	21.910000	34.690000	0.000000	0.000000	106.000000	60.000000	28.000000	0.000000
1.170000	22.180000	34.560000	0.000000	0.000000	106.000000	60.000000	27.000000	-13.000000
1.180000	22.180000	34.560000	0.000000	0.000000	106.000000	60.000000	0.000000	0.000000
1.190000	22.540000	34.390000	0.000000	0.000000	107.000000	59.000000	36.000000	-17.000000
1.200000	22.760000	34.270000	0.000000	0.000000	108.000000	60.000000	22.000000	-12.000000
1.210000	22.830000	34.080000	0.000000	0.000000	108.000000	60.000000	7.000000	-19.000000
1.220000	22.830000	33.890000	0.000000	0.000000	108.000000	60.000000	0.000000	-19.000000
1.230000	22.760000	33.720000	0.000000	0.000000	108.000000	61.000000	-7.000000	-17.000000
1.240000	22.760000	33.670000	0.000000	0.000000	108.000000	61.000000	0.000000	-5.000000
1.250000	22.680000	33.670000	0.000000	0.000000	107.000000	61.000000	-8.000000	0.000000
1.260000	22.680000	33.800000	0.000000	0.000000	107.000000	62.000000	0.000000	13.000000
1.270000	22.590000	33.900000	0.000000	0.000000	107.000000	62.000000	-9.000000	10.000000
1.280000	22.590000	33.850000	0.000000	0.000000	105.000000	62.000000	0.000000	-5.000000
1.290000	22.640000	33.710000	0.000000	0.000000	105.000000	62.000000	5.000000	-14.000000
1.300000	22.730000	33.540000	0.000000	0.000000	105.000000	62.000000	9.000000	-17.000000
1.310000	22.800000	33.370000	0.000000	0.000000	104.000000	62.000000	7.000000	-17.000000
1.320000	22.800000	33.370000	565.000000	1.000000	104.000000	62.000000	0.000000	0.000000
1.330000	22.800000	33.370000	697.000000	0.000000	104.000000	63.000000	0.000000	0.000000
1.340000	22.800000	33.370000	771.000000	0.000000	102.000000	63.000000	0.000000	0.000000
1.350000	22.800000	33.370000	812.000000	0.000000	102.000000	63.000000	0.000000	0.000000
1.360000	22.800000	33.370000	785.000000	0.000000	102.000000	63.000000	0.000000	0.000000
1.370000	22.800000	33.370000	748.000000	0.000000	102.000000	63.000000	0.000000	0.000000
1.380000	22.650000	33.830000	616.000000	0.000000	102.000000	63.000000	-15.000000	46.000000
1.390000	22.750000	34.190000	400.000000	0.000000	103.000000	64.000000	10.000000	36.000000
1.400000	23.050000	34.620000	211.000000	0.000000	103.000000	64.000000	30.000000	43.000000
1.410000	23.450000	35.110000	225.000000	0.000000	103.000000	64.000000	40.000000	49.000000
1.420000	23.840000	35.380000	247.000000	0.000000	103.000000	64.000000	39.000000	27.000000
1.430000	24.190000	35.520000	291.000000	0.000000	103.000000	64.000000	35.000000	14.000000
1.440000	24.510000	35.580000	329.000000	0.000000	103.000000	64.000000	32.000000	6.000000
1.450000	24.690000	35.580000	386.000000	0.000000	105.000000	64.000000	18.000000	0.000000
1.460000	24.740000	35.520000	464.000000	0.000000	105.000000	65.000000	5.000000	-6.000000
1.470000	24.740000	35.450000	546.000000	0.000000	105.000000	65.000000	0.000000	-7.000000
1.480000	24.590000	35.370000	566.000000	0.000000	105.000000	65.000000	-15.000000	-8.000000
1.490000	24.400000	35.260000	597.000000	0.000000	105.000000	65.000000	-19.000000	-11.000000
1.500000	24.150000	35.020000	616.000000	0.000000	105.000000	65.000000	-25.000000	-24.000000
1.510000	23.920000	34.700000	619.000000	0.000000	105.000000	65.000000	-23.000000	-32.000000
1.520000	23.840000	34.480000	617.000000	0.000000	105.000000	65.000000	-8.000000	-22.000000
1.530000	23.840000	34.340000	600.000000	0.000000	103.000000	65.000000	0.000000	-14.000000
1.540000	23.980000	34.260000	580.000000	0.000000	103.000000	65.000000	14.000000	-8.000000
1.550000	24.090000	34.260000	567.000000	0.000000	103.000000	65.000000	11.000000	0.000000
1.560000	24.210000	34.360000	561.000000	0.000000	103.000000	65.000000	12.000000	10.000000
1.570000	24.330000	34.540000	561.000000	0.000000	103.000000	65.000000	12.000000	18.000000
1.580000	24.450000	34.730000	560.000000	0.000000	103.000000	65.000000	12.000000	19.000000
1.590000	24.570000	34.910000	563.000000	0.000000	103.000000	65.000000	12.000000	18.000000
1.600000	24.710000	35.090000	577.000000	0.000000	103.000000	65.000000	14.000000	18.000000
1.610000	24.860000	35.030000	600.000000	0.000000	103.000000	65.000000	15.000000	-6.000000
1.620000	25.000000	34.710000	636.000000	0.000000	103.000000	65.000000	14.000000	-32.000000
1.630000	25.160000	34.220000	690.000000	0.000000	102.000000	67.000000	16.000000	-49.000000
1.640000	25.210000	33.450000	757.000000	0.000000	102.000000	67.000000	5.000000	-77.000000
1.650000	25.210000	32.680000	806.000000	0.000000	102.000000	67.000000	0.000000	-77.000000
1.660000	25.100000	32.090000	833.000000	0.000000	102.000000	67.000000	-11.000000	-59.000000
1.670000	25.100000	31.620000	834.000000	0.000000	99.000000	67.000000	0.000000	-47.000000
1.680000	25.040000	31.390000	805.000000	0.000000	99.000000	67.000000	-6.000000	-23.000000
1.690000	25.040000	31.390000	731.000000	0.000000	99.000000	67.000000	0.000000	0.000000
1.700000	25.040000	31.560000	602.000000	0.000000	99.000000	67.000000	0.000000	17.000000
1.710000	25.190000	32.240000	519.000000	0.000000	99.000000	67.000000	15.000000	68.000000
1.720000	25.400000	32.910000	436.000000	0.000000	99.000000	67.000000	21.000000	67.000000
1.730000	25.670000	33.580000	409.000000	0.000000	99.000000	67.000000	27.000000	67.000000
1.740000	25.930000	34.310000	418.000000	0.000000	99.000000	67.000000	26.000000	73.000000
1.750000	26.180000	34.970000	486.000000	0.000000	100.000000	68.000000	25.000000	66.000000
1.760000	26.320000	35.330000	542.000000	0.000000	100.000000	68.000000	14.000000	36.000000
1.770000	26.480000	35.510000	661.000000	0.000000	100.000000	69.000000	16.000000	18.000000
1.780000	26.560000	35.430000	768.000000	0.000000	100.000000	69.000000	8.000000	-8.000000
1.790000	26.620000	35.170000	817.000000	0.000000	103.000000	69.000000	6.000000	-26.000000
1.800000	26.710000	34.780000	854.000000	0.000000	103.000000	69.000000	9.000000	-39.000000
1.810000	26.800000	34.460000	879.000000	0.000000	103.000000	69.000000	9.000000	-32.000000
1.820000	26.800000	34.460000	890.000000	0.000000	102.000000	68.000000	0.000000	0.000000
1.830000	26.740000	34.040000	861.000000	0.000000	102.000000	68.000000	-6.000000	-42.000000
1.840000	26.740000	33.940000	670.000000	0.000000	102.000000	67.000000	0.000000	-10.000000
1.850000	26.740000	33.940000	106.000000	0.000000	102.000000	67.000000	0.000000	0.000000
1.860000	26.740000	33.940000	0.000000	1.000000	101.000000	66.000000	0.000000	0.000000
1.870000	26.830000	34.290000	0.000000	0.000000	101.000000	66.000000	9.000000	35.000000
1.880000	26.910000	34.550000	0.000000	0.000000	101.000000	65.000000	8.000000	26.000000
1.890000	27.000000	34.920000	0.000000	0.000000	101.000000	65.000000	9.000000	37.000000
1.900000	27.070000	35.360000	0.000000	0.000000	101.000000	65.000000	7.000000	44.000000
1.910000	27.070000	35.860000	0.000000	0.000000	103.000000	64.000000	0.000000	50.000000
1.920000	27.140000	36.400000	0.000000	0.000000	103.000000	64.000000	7.000000	54.000000
1.930000	27.140000	36.980000	0.000000	0.000000	105.000000	64.000000	0.000000	58.000000
1.940000	27.040000	37.350000	0.000000	0.000000	105.000000	64.000000	-10.000000	37.000000
1.950000	26.880000	37.550000	0.000000	0.000000	104.000000	63.000000	-16.000000	20.000000
1.960000	26.880000	37.550000	304.000000	1.000000	106.000000	63.000000	0.000000	0.000000
1.970000	26.880000	37.550000	282.000000	0.000000	107.000000	64.000000	0.000000	0.000000
1.980000	26.880000	37.550000	232.000000	0.000000	107.000000	64.000000	0.000000	0.000000
1.990000	26.880000	37.550000	122.000000	0.000000	107.000000	64.000000	0.000000	0.000000
2.000000	26.880000	37.550000	88.000000	0.000000	108.000000	65.000000	0.000000	0.000000
2.010000	27.050000	37.150000	103.000000	0.000000	105.000000	65.000000	17.000000	-40.000000
2.020000	27.310000	36.570000	170.000000	0.000000	106.000000	66.000000	26.000000	-58.000000
2.030000	27.570000	36.000000	305.000000	0.000000	106.000000	66.000000	26.000000	-57.000000
2.040000	27.670000	35.430000	466.000000	0.000000	106.000000	66.000000	10.000000	-57.000000
2.050000	27.670000	35.040000	542.000000	0.000000	107.000000	67.000000	0.000000	-39.000000
2.060000	27.670000	34.840000	589.000000	0.000000	105.000000	67.000000	0.000000	-20.000000
2.070000	27.670000	34.770000	617.000000	0.000000	105.000000	67.000000	0.000000	-7.000000
2.080000	27.670000	34.770000	663.000000	0.000000	105.000000	67.000000	0.000000	0.000000
2.090000	27.670000	34.770000	690.000000	0.000000	102.000000	68.000000	0.000000	0.000000
2.100000	27.670000	34.820000	690.000000	0.000000	102.000000	68.000000	0.000000	5.000000
2.110000	27.670000	34.890000	699.000000	0.000000	102.000000	68.000000	0.000000	7.000000
2.120000	27.780000	35.030000	700.000000	0.000000	102.000000	68.000000	11.000000	14.000000
2.130000	27.980000	35.220000	710.000000	0.000000	103.000000	69.000000	20.000000	19.000000
2.140000	28.280000	35.160000	733.000000	0.000000	105.000000	68.000000	30.000000	-6.000000
2.150000	28.600000	35.090000	751.000000	0.000000	105.000000	68.000000	32.000000	-7.000000
2.160000	28.940000	34.990000	765.000000	0.000000	105.000000	68.000000	34.000000	-10.000000
2.170000	29.160000	34.890000	777.000000	0.000000	105.000000	68.000000	22.000000	-10.000000
2.180000	29.390000	34.890000	757.000000	0.000000	105.000000	68.000000	23.000000	0.000000
2.190000	29.630000	34.890000	725.000000	0.000000	105.000000	68.000000	24.000000	0.000000
2.200000	29.870000	35.030000	673.000000	0.000000	105.000000	68.000000	24.000000	14.000000
2.210000	30.110000	35.170000	622.000000	0.000000	105.000000	67.000000	24.000000	14.000000
2.220000	30.290000	35.320000	613.000000	0.000000	105.000000	67.000000	18.000000	15.000000
