t	x	y	pressure	penup	azimuth	inclination	v_x	v_y
0.000000	19.180000	70.150000	63.000000	1.000000	123.000000	65.000000	0.000000	0.000000
0.010000	19.810000	71.710000	136.000000	0.000000	125.000000	65.000000	63.000000	156.000000
0.020000	19.870000	71.710000	226.000000	0.000000	127.000000	64.000000	6.000000	0.000000
0.030000	19.750000	71.290000	312.000000	0.000000	129.000000	64.000000	-12.000000	-42.000000
0.040000	19.390000	70.600000	449.000000	0.000000	132.000000	64.000000	-36.000000	-69.000000
0.050000	18.880000	68.830000	530.000000	0.000000	132.000000	64.000000	-51.000000	-177.000000
0.060000	17.940000	66.750000	640.000000	0.000000	132.000000	64.000000	-94.000000	-208.000000
0.070000	16.960000	64.460000	705.000000	0.000000	132.000000	64.000000	-98.000000	-229.000000
0.080000	15.960000	62.520000	728.000000	0.000000	130.000000	65.000000	-100.000000	-194.000000
0.090000	15.350000	61.240000	720.000000	0.000000	128.000000	65.000000	-61.000000	-128.000000
0.100000	15.120000	60.410000	714.000000	0.000000	126.000000	66.000000	-23.000000	-83.000000
0.110000	15.120000	60.060000	668.000000	0.000000	124.000000	66.000000	0.000000	-35.000000
0.120000	15.210000	59.920000	614.000000	0.000000	122.000000	67.000000	9.000000	-14.000000
0.130000	15.290000	59.920000	577.000000	0.000000	120.000000	67.000000	8.000000	0.000000
0.140000	15.400000	60.130000	553.000000	0.000000	118.000000	68.000000	11.000000	21.000000
0.150000	15.550000	60.740000	535.000000	0.000000	118.000000	68.000000	15.000000	61.000000
0.160000	15.550000	61.620000	545.000000	0.000000	118.000000	68.000000	0.000000	88.000000
0.170000	15.430000	62.570000	557.000000	0.000000	118.000000	68.000000	-12.000000	95.000000
0.180000	15.100000	63.610000	551.000000	0.000000	118.000000	68.000000	-33.000000	104.000000
0.190000	14.480000	64.710000	570.000000	0.000000	118.000000	68.000000	-62.000000	110.000000
0.200000	13.670000	65.190000	562.000000	0.000000	118.000000	68.000000	-81.000000	48.000000
0.210000	12.570000	65.130000	575.000000	0.000000	120.000000	67.000000	-110.000000	-6.000000
0.220000	11.140000	64.700000	597.000000	0.000000	120.000000	67.000000	-143.000000	-43.000000
0.230000	9.500000	64.070000	644.000000	0.000000	120.000000	67.000000	-164.000000	-63.000000
0.240000	8.110000	63.420000	678.000000	0.000000	120.000000	67.000000	-139.000000	-65.000000
0.250000	7.330000	63.060000	678.000000	0.000000	122.000000	67.000000	-78.000000	-36.000000
0.260000	6.960000	62.910000	666.000000	0.000000	124.000000	67.000000	-37.000000	-15.000000
0.270000	7.120000	62.910000	662.000000	0.000000	124.000000	67.000000	16.000000	0.000000
0.280000	8.000000	63.110000	664.000000	0.000000	124.000000	67.000000	88.000000	20.000000
0.290000	9.360000	63.360000	664.000000	0.000000	124.000000	67.000000	136.000000	25.000000
0.300000	11.680000	63.940000	685.000000	0.000000	124.000000	67.000000	232.000000	58.000000
0.310000	14.390000	64.650000	705.000000	0.000000	124.000000	67.000000	271.000000	71.000000
0.320000	17.360000	65.450000	720.000000	0.000000	122.000000	68.000000	297.000000	80.000000
0.330000	21.110000	66.450000	725.000000	0.000000	122.000000	68.000000	375.000000	100.000000
0.340000	25.150000	67.660000	733.000000	0.000000	122.000000	68.000000	404.000000	121.000000
0.350000	29.370000	69.010000	728.000000	0.000000	122.000000	68.000000	422.000000	135.000000
0.360000	33.050000	70.280000	730.000000	0.000000	122.000000	68.000000	368.000000	127.000000
0.370000	35.900000	71.140000	691.000000	0.000000	124.000000	67.000000	285.000000	86.000000
0.380000	38.200000	71.740000	643.000000	0.000000	126.000000	67.000000	230.000000	60.000000
0.390000	39.360000	71.920000	488.000000	0.000000	128.000000	66.000000	116.000000	18.000000
0.400000	39.770000	71.970000	343.000000	0.000000	128.000000	65.000000	41.000000	5.000000
0.410000	39.690000	71.970000	281.000000	0.000000	130.000000	65.000000	-8.000000	0.000000
0.420000	39.560000	71.890000	108.000000	0.000000	130.000000	63.000000	-13.000000	-8.000000
0.430000	39.560000	71.890000	0.000000	1.000000	130.000000	63.000000	0.000000	0.000000
0.440000	39.420000	71.890000	0.000000	0.000000	130.000000	63.000000	-14.000000	0.000000
0.450000	39.340000	72.030000	0.000000	0.000000	129.000000	63.000000	-8.000000	14.000000
0.460000	38.930000	72.030000	0.000000	0.000000	129.000000	63.000000	-41.000000	0.000000
0.470000	38.300000	71.830000	0.000000	0.000000	127.000000	63.000000	-63.000000	-20.000000
0.480000	37.130000	71.410000	0.000000	0.000000	127.000000	63.000000	-117.000000	-42.000000
0.490000	35.740000	70.920000	0.000000	0.000000	127.000000	63.000000	-139.000000	-49.000000
0.500000	34.210000	70.470000	0.000000	0.000000	125.000000	64.000000	-153.000000	-45.000000
0.510000	32.860000	70.190000	0.000000	0.000000	124.000000	64.000000	-135.000000	-28.000000
0.520000	31.630000	70.020000	0.000000	0.000000	122.000000	65.000000	-123.000000	-17.000000
0.530000	30.470000	70.020000	0.000000	0.000000	117.000000	65.000000	-116.000000	0.000000
0.540000	29.340000	69.920000	0.000000	0.000000	114.000000	64.000000	-113.000000	-10.000000
0.550000	28.080000	69.850000	0.000000	0.000000	109.000000	64.000000	-126.000000	-7.000000
0.560000	26.740000	69.600000	0.000000	0.000000	104.000000	63.000000	-134.000000	-25.000000
0.570000	25.480000	69.240000	0.000000	0.000000	100.000000	63.000000	-126.000000	-36.000000
0.580000	24.420000	68.980000	0.000000	0.000000	96.000000	62.000000	-106.000000	-26.000000
0.590000	23.480000	68.740000	0.000000	0.000000	96.000000	63.000000	-94.000000	-24.000000
0.600000	22.770000	68.520000	0.000000	0.000000	98.000000	63.000000	-71.000000	-22.000000
0.610000	22.270000	68.400000	0.000000	0.000000	100.000000	64.000000	-50.000000	-12.000000
0.620000	21.900000	68.290000	0.000000	0.000000	107.000000	64.000000	-37.000000	-11.000000
0.630000	21.830000	68.180000	0.000000	0.000000	112.000000	64.000000	-7.000000	-11.000000
0.640000	21.340000	68.040000	0.000000	0.000000	116.000000	64.000000	-49.000000	-14.000000
0.650000	20.910000	67.890000	0.000000	0.000000	119.000000	63.000000	-43.000000	-15.000000
0.660000	20.660000	67.770000	0.000000	0.000000	121.000000	63.000000	-25.000000	-12.000000
0.670000	20.540000	67.690000	0.000000	0.000000	122.000000	61.000000	-12.000000	-8.000000
0.680000	20.340000	67.530000	0.000000	0.000000	120.000000	62.000000	-20.000000	-16.000000
0.690000	20.090000	67.370000	0.000000	0.000000	118.000000	62.000000	-25.000000	-16.000000
0.700000	19.770000	67.180000	0.000000	0.000000	115.000000	62.000000	-32.000000	-19.000000
0.710000	19.530000	67.070000	0.000000	0.000000	113.000000	63.000000	-24.000000	-11.000000
0.720000	19.440000	67.010000	0.000000	0.000000	111.000000	64.000000	-9.000000	-6.000000
0.730000	19.370000	66.930000	0.000000	0.000000	109.000000	64.000000	-7.000000	-8.000000
0.740000	19.370000	66.800000	0.000000	0.000000	107.000000	64.000000	0.000000	-13.000000
0.750000	19.370000	66.660000	0.000000	0.000000	107.000000	64.000000	0.000000	-14.000000
0.760000	19.370000	66.530000	0.000000	0.000000	107.000000	64.000000	0.000000	-13.000000
0.770000	19.430000	66.530000	0.000000	0.000000	107.000000	64.000000	6.000000	0.000000
0.780000	19.430000	66.530000	0.000000	0.000000	105.000000	64.000000	0.000000	0.000000
0.790000	19.430000	66.610000	0.000000	0.000000	105.000000	64.000000	0.000000	8.000000
0.800000	19.430000	66.780000	0.000000	0.000000	105.000000	64.000000	0.000000	17.000000
0.810000	19.500000	67.010000	0.000000	0.000000	105.000000	64.000000	7.000000	23.000000
0.820000	19.500000	67.290000	0.000000	0.000000	105.000000	64.000000	0.000000	28.000000
0.830000	19.600000	67.640000	0.000000	0.000000	105.000000	64.000000	10.000000	35.000000
0.840000	19.650000	67.960000	0.000000	0.000000	105.000000	64.000000	5.000000	32.000000
0.850000	19.650000	68.210000	0.000000	0.000000	107.000000	64.000000	0.000000	25.000000
0.860000	19.700000	68.360000	0.000000	0.000000	107.000000	64.000000	5.000000	15.000000
0.870000	19.700000	68.440000	0.000000	0.000000	107.000000	64.000000	0.000000	8.000000
0.880000	19.700000	68.350000	0.000000	0.000000	107.000000	64.000000	0.000000	-9.000000
0.890000	19.610000	68.140000	0.000000	0.000000	107.000000	64.000000	-9.000000	-21.000000
0.900000	19.610000	68.140000	277.000000	1.000000	107.000000	64.000000	0.000000	0.000000
0.910000	19.640000	67.580000	396.000000	0.000000	105.000000	65.000000	3.000000	-56.000000
0.920000	19.640000	67.300000	499.000000	0.000000	105.000000	65.000000	0.000000	-28.000000
0.930000	19.880000	67.020000	568.000000	0.000000	105.000000	65.000000	24.000000	-28.000000
0.940000	19.960000	66.750000	578.000000	0.000000	104.000000	66.000000	8.000000	-27.000000
0.950000	20.090000	66.510000	563.000000	0.000000	104.000000	66.000000	13.000000	-24.000000
0.960000	20.180000	66.380000	510.000000	0.000000	102.000000	67.000000	9.000000	-13.000000
0.970000	20.180000	66.310000	361.000000	0.000000	102.000000	67.000000	0.000000	-7.000000
0.980000	20.240000	66.310000	60.000000	0.000000	102.000000	67.000000	6.000000	0.000000
0.990000	20.240000	66.310000	0.000000	1.000000	102.000000	67.000000	0.000000	0.000000
1.000000	20.110000	66.640000	0.000000	0.000000	102.000000	67.000000	-13.000000	33.000000
1.010000	20.020000	67.000000	0.000000	0.000000	102.000000	67.000000	-9.000000	36.000000
1.020000	19.930000	67.450000	0.000000	0.000000	102.000000	67.000000	-9.000000	45.000000
1.030000	19.840000	67.970000	0.000000	0.000000	102.000000	67.000000	-9.000000	52.000000
1.040000	19.750000	68.500000	0.000000	0.000000	102.000000	67.000000	-9.000000	53.000000
1.050000	19.750000	68.500000	187.000000	1.000000	104.000000	66.000000	0.000000	0.000000
1.060000	19.670000	69.110000	277.000000	0.000000	104.000000	66.000000	-8.000000	61.000000
1.070000	19.600000	69.110000	329.000000	0.000000	105.000000	65.000000	-7.000000	0.000000
1.080000	19.650000	69.020000	368.000000	0.000000	108.000000	65.000000	5.000000	-9.000000
1.090000	19.880000	68.910000	361.000000	0.000000	108.000000	65.000000	23.000000	-11.000000
1.100000	20.210000	68.710000	373.000000	0.000000	108.000000	65.000000	33.000000	-20.000000
1.110000	20.640000	68.460000	366.000000	0.000000	110.000000	65.000000	43.000000	-25.000000
1.120000	21.110000	68.250000	369.000000	0.000000	110.000000	65.000000	47.000000	-21.000000
1.130000	21.600000	68.080000	371.000000	0.000000	110.000000	65.000000	49.000000	-17.000000
1.140000	22.070000	67.950000	369.000000	0.000000	110.000000	66.000000	47.000000	-13.000000
1.150000	22.380000	67.870000	369.000000	0.000000	108.000000	66.000000	31.000000	-8.000000
1.160000	22.530000	67.870000	371.000000	0.000000	108.000000	66.000000	15.000000	0.000000
1.170000	22.530000	67.770000	396.000000	0.000000	108.000000	66.000000	0.000000	-10.000000
1.180000	22.480000	67.660000	524.000000	0.000000	106.000000	66.000000	-5.000000	-11.000000
1.190000	22.410000	67.660000	592.000000	0.000000	106.000000	66.000000	-7.000000	0.000000
1.200000	22.410000	67.660000	592.000000	0.000000	106.000000	66.000000	0.000000	0.000000
1.210000	22.270000	67.830000	595.000000	0.000000	106.000000	66.000000	-14.000000	17.000000
1.220000	22.120000	68.130000	600.000000	0.000000	106.000000	66.000000	-15.000000	30.000000
1.230000	22.120000	68.530000	602.000000	0.000000	106.000000	66.000000	0.000000	40.000000
1.240000	22.120000	69.010000	603.000000	0.000000	106.000000	66.000000	0.000000	48.000000
1.250000	22.270000	69.450000	605.000000	0.000000	108.000000	66.000000	15.000000	44.000000
1.260000	22.380000	69.640000	600.000000	0.000000	108.000000	65.000000	11.000000	19.000000
1.270000	22.380000	69.690000	597.000000	0.000000	110.000000	65.000000	0.000000	5.000000
1.280000	22.430000	69.690000	594.000000	0.000000	112.000000	64.000000	5.000000	0.000000
1.290000	22.540000	69.430000	594.000000	0.000000	112.000000	64.000000	11.000000	-26.000000
1.300000	22.630000	69.070000	586.000000	0.000000	112.000000	64.000000	9.000000	-36.000000
1.310000	22.710000	68.670000	583.000000	0.000000	114.000000	64.000000	8.000000	-40.000000
1.320000	22.710000	68.330000	583.000000	0.000000	112.000000	64.000000	0.000000	-34.000000
1.330000	22.800000	68.120000	580.000000	0.000000	112.000000	64.000000	9.000000	-21.000000
1.340000	22.800000	67.970000	566.000000	0.000000	112.000000	64.000000	0.000000	-15.000000
1.350000	22.800000	67.970000	529.000000	0.000000	110.000000	65.000000	0.000000	0.000000
1.360000	22.890000	68.110000	513.000000	0.000000	110.000000	66.000000	9.000000	14.000000
1.370000	23.000000	68.330000	520.000000	0.000000	108.000000	66.000000	11.000000	22.000000
1.380000	23.180000	68.660000	529.000000	0.000000	108.000000	66.000000	18.000000	33.000000
1.390000	23.310000	68.840000	564.000000	0.000000	108.000000	66.000000	13.000000	18.000000
1.400000	23.400000	68.760000	594.000000	0.000000	108.000000	66.000000	9.000000	-8.000000
1.410000	23.560000	68.570000	619.000000	0.000000	108.000000	66.000000	16.000000	-19.000000
1.420000	23.730000	68.080000	636.000000	0.000000	109.000000	67.000000	17.000000	-49.000000
1.430000	23.920000	67.560000	643.000000	0.000000	109.000000	67.000000	19.000000	-52.000000
1.440000	24.080000	66.990000	696.000000	0.000000	107.000000	67.000000	16.000000	-57.000000
1.450000	24.160000	66.530000	760.000000	0.000000	107.000000	67.000000	8.000000	-46.000000
1.460000	24.160000	66.130000	800.000000	0.000000	105.000000	68.000000	0.000000	-40.000000
1.470000	24.250000	65.800000	809.000000	0.000000	105.000000	68.000000	9.000000	-33.000000
1.480000	24.250000	65.470000	794.000000	0.000000	103.000000	69.000000	0.000000	-33.000000
1.490000	24.090000	65.400000	720.000000	0.000000	100.000000	69.000000	-16.000000	-7.000000
1.500000	24.090000	65.510000	622.000000	0.000000	100.000000	69.000000	0.000000	11.000000
1.510000	23.980000	65.730000	545.000000	0.000000	100.000000	69.000000	-11.000000	22.000000
1.520000	23.880000	66.200000	387.000000	0.000000	100.000000	69.000000	-10.000000	47.000000
1.530000	24.020000	66.840000	324.000000	0.000000	100.000000	69.000000	14.000000	64.000000
1.540000	24.170000	67.690000	319.000000	0.000000	100.000000	69.000000	15.000000	85.000000
1.550000	24.330000	68.620000	334.000000	0.000000	100.000000	69.000000	16.000000	93.000000
1.560000	24.540000	69.600000	343.000000	0.000000	100.000000	69.000000	21.000000	98.000000
1.570000	24.740000	70.160000	391.000000	0.000000	102.000000	68.000000	20.000000	56.000000
1.580000	24.910000	70.390000	524.000000	0.000000	105.000000	67.000000	17.000000	23.000000
1.590000	25.020000	70.390000	664.000000	0.000000	108.000000	68.000000	11.000000	0.000000
1.600000	25.090000	70.230000	777.000000	0.000000	110.000000	68.000000	7.000000	-16.000000
1.610000	25.190000	70.000000	854.000000	0.000000	112.000000	67.000000	10.000000	-23.000000
1.620000	25.270000	69.670000	918.000000	0.000000	112.000000	67.000000	8.000000	-33.000000
1.630000	25.340000	69.310000	951.000000	0.000000	116.000000	68.000000	7.000000	-36.000000
1.640000	25.410000	68.960000	951.000000	0.000000	116.000000	68.000000	7.000000	-35.000000
1.650000	25.410000	68.800000	909.000000	0.000000	114.000000	68.000000	0.000000	-16.000000
1.660000	25.460000	68.730000	773.000000	0.000000	114.000000	68.000000	5.000000	-7.000000
1.670000	25.460000	68.730000	312.000000	0.000000	115.000000	69.000000	0.000000	0.000000
1.680000	25.460000	68.730000	0.000000	1.000000	112.000000	70.000000	0.000000	0.000000
1.690000	25.460000	69.040000	0.000000	0.000000	112.000000	70.000000	0.000000	31.000000
1.700000	25.460000	69.380000	0.000000	0.000000	112.000000	70.000000	0.000000	34.000000
1.710000	25.460000	69.820000	0.000000	0.000000	112.000000	70.000000	0.000000	44.000000
1.720000	25.460000	70.330000	0.000000	0.000000	112.000000	70.000000	0.000000	51.000000
1.730000	25.460000	70.790000	0.000000	0.000000	112.000000	70.000000	0.000000	46.000000
1.740000	25.460000	71.210000	0.000000	0.000000	115.000000	69.000000	0.000000	42.000000
1.750000	25.310000	71.430000	0.000000	0.000000	115.000000	69.000000	-15.000000	22.000000
1.760000	25.200000	71.550000	0.000000	0.000000	117.000000	69.000000	-11.000000	12.000000
1.770000	25.200000	71.550000	307.000000	1.000000	117.000000	69.000000	0.000000	0.000000
1.780000	25.200000	71.550000	322.000000	0.000000	119.000000	68.000000	0.000000	0.000000
1.790000	25.200000	71.550000	330.000000	0.000000	118.000000	68.000000	0.000000	0.000000
1.800000	25.200000	71.550000	335.000000	0.000000	118.000000	68.000000	0.000000	0.000000
1.810000	25.200000	71.550000	367.000000	0.000000	120.000000	67.000000	0.000000	0.000000
1.820000	25.790000	70.990000	391.000000	0.000000	122.000000	68.000000	59.000000	-56.000000
1.830000	26.200000	70.360000	404.000000	0.000000	122.000000	68.000000	41.000000	-63.000000
1.840000	26.550000	69.870000	448.000000	0.000000	122.000000	68.000000	35.000000	-49.000000
1.850000	26.840000	69.480000	463.000000	0.000000	122.000000	68.000000	29.000000	-39.000000
1.860000	27.090000	69.270000	467.000000	0.000000	119.000000	68.000000	25.000000	-21.000000
1.870000	27.320000	69.270000	473.000000	0.000000	119.000000	68.000000	23.000000	0.000000
1.880000	27.530000	69.460000	483.000000	0.000000	119.000000	68.000000	21.000000	19.000000
1.890000	27.800000	69.730000	489.000000	0.000000	119.000000	68.000000	27.000000	27.000000
1.900000	28.040000	70.040000	512.000000	0.000000	119.000000	68.000000	24.000000	31.000000
1.910000	28.260000	70.370000	580.000000	0.000000	119.000000	68.000000	22.000000	33.000000
1.920000	28.470000	70.480000	659.000000	0.000000	121.000000	69.000000	21.000000	11.000000
1.930000	28.700000	70.480000	733.000000	0.000000	121.000000	69.000000	23.000000	0.000000
1.940000	29.010000	70.340000	818.000000	0.000000	121.000000	69.000000	31.000000	-14.000000
1.950000	29.350000	70.180000	849.000000	0.000000	121.000000	69.000000	34.000000	-16.000000
1.960000	29.660000	70.030000	861.000000	0.000000	123.000000	69.000000	31.000000	-15.000000
1.970000	29.870000	69.950000	866.000000	0.000000	123.000000	69.000000	21.000000	-8.000000
1.980000	30.070000	69.950000	837.000000	0.000000	123.000000	69.000000	20.000000	0.000000
1.990000	30.220000	69.950000	719.000000	0.000000	121.000000	69.000000	15.000000	0.000000
2.000000	30.340000	70.080000	287.000000	0.000000	121.000000	69.000000	12.000000	13.000000
2.010000	30.340000	70.080000	0.000000	1.000000	121.000000	69.000000	0.000000	0.000000
2.020000	30.760000	70.600000	0.000000	0.000000	121.000000	69.000000	42.000000	52.000000
2.030000	30.760000	70.710000	0.000000	0.000000	121.000000	69.000000	0.000000	11.000000
2.040000	30.530000	70.710000	0.000000	0.000000	121.000000	69.000000	-23.000000	0.000000
2.050000	30.470000	70.810000	0.000000	0.000000	123.000000	69.000000	-6.000000	10.000000
2.060000	30.400000	70.960000	0.000000	0.000000	122.000000	68.000000	-7.000000	15.000000
2.070000	30.320000	71.140000	0.000000	0.000000	122.000000	68.000000	-8.000000	18.000000
2.080000	30.240000	71.450000	0.000000	0.000000	120.000000	67.000000	-8.000000	31.000000
2.090000	30.150000	71.830000	0.000000	0.000000	120.000000	67.000000	-9.000000	38.000000
2.100000	30.040000	72.260000	0.000000	0.000000	121.000000	66.000000	-11.000000	43.000000
2.110000	29.910000	72.710000	0.000000	0.000000	121.000000	66.000000	-13.000000	45.000000
2.120000	29.910000	72.710000	171.000000	1.000000	120.000000	65.000000	0.000000	0.000000
2.130000	29.620000	72.880000	631.000000	0.000000	122.000000	65.000000	-29.000000	17.000000
2.140000	29.450000	72.880000	678.000000	0.000000	123.000000	65.000000	-17.000000	0.000000
2.150000	29.370000	72.830000	740.000000	0.000000	123.000000	65.000000	-8.000000	-5.000000
2.160000	29.320000	72.830000	737.000000	0.000000	125.000000	65.000000	-5.000000	0.000000
2.170000	29.320000	72.830000	642.000000	0.000000	126.000000	66.000000	0.000000	0.000000
2.180000	29.320000	72.780000	473.000000	0.000000	128.000000	66.000000	0.000000	-5.000000
2.190000	29.680000	72.670000	337.000000	0.000000	130.000000	66.000000	36.000000	-11.000000
2.200000	30.190000	72.490000	180.000000	0.000000	131.000000	67.000000	51.000000	-18.000000
2.210000	31.040000	72.380000	73.000000	0.000000	131.000000	67.000000	85.000000	-11.000000
