t	x	y	pressure	penup	azimuth	inclination	v_x	v_y
0.000000	57.880000	90.020000	47.000000	1.000000	155.000000	52.000000	0.000000	0.000000
0.010000	58.360000	90.650000	142.000000	0.000000	155.000000	52.000000	48.000000	63.000000
0.020000	58.220000	90.580000	186.000000	0.000000	156.000000	51.000000	-14.000000	-7.000000
0.030000	57.960000	90.020000	277.000000	0.000000	156.000000	51.000000	-26.000000	-56.000000
0.040000	57.630000	89.130000	379.000000	0.000000	157.000000	51.000000	-33.000000	-89.000000
0.050000	56.900000	87.280000	483.000000	0.000000	157.000000	51.000000	-73.000000	-185.000000
0.060000	55.860000	85.090000	551.000000	0.000000	157.000000	51.000000	-104.000000	-219.000000
0.070000	54.610000	82.680000	602.000000	0.000000	157.000000	50.000000	-125.000000	-241.000000
0.080000	53.290000	79.830000	655.000000	0.000000	157.000000	51.000000	-132.000000	-285.000000
0.090000	52.270000	77.400000	702.000000	0.000000	157.000000	51.000000	-102.000000	-243.000000
0.100000	51.460000	75.240000	728.000000	0.000000	157.000000	51.000000	-81.000000	-216.000000
0.110000	51.550000	74.210000	727.000000	0.000000	156.000000	51.000000	9.000000	-103.000000
0.120000	51.930000	73.900000	733.000000	0.000000	156.000000	51.000000	38.000000	-31.000000
0.130000	52.510000	74.060000	724.000000	0.000000	155.000000	51.000000	58.000000	16.000000
0.140000	53.360000	75.070000	691.000000	0.000000	154.000000	52.000000	85.000000	101.000000
0.150000	54.270000	76.900000	673.000000	0.000000	154.000000	52.000000	91.000000	183.000000
0.160000	55.280000	79.280000	655.000000	0.000000	153.000000	52.000000	101.000000	238.000000
0.170000	55.910000	81.940000	662.000000	0.000000	153.000000	52.000000	63.000000	266.000000
0.180000	56.270000	83.400000	675.000000	0.000000	154.000000	52.000000	36.000000	146.000000
0.190000	55.740000	84.060000	673.000000	0.000000	154.000000	52.000000	-53.000000	66.000000
0.200000	54.370000	83.400000	669.000000	0.000000	155.000000	51.000000	-137.000000	-66.000000
0.210000	52.430000	81.940000	676.000000	0.000000	156.000000	51.000000	-194.000000	-146.000000
0.220000	49.920000	79.950000	685.000000	0.000000	158.000000	51.000000	-251.000000	-199.000000
0.230000	48.460000	78.110000	699.000000	0.000000	158.000000	51.000000	-146.000000	-184.000000
0.240000	47.690000	77.300000	700.000000	0.000000	159.000000	51.000000	-77.000000	-81.000000
0.250000	48.250000	77.190000	717.000000	0.000000	160.000000	50.000000	56.000000	-11.000000
0.260000	50.270000	77.770000	713.000000	0.000000	160.000000	50.000000	202.000000	58.000000
0.270000	53.260000	79.150000	700.000000	0.000000	160.000000	50.000000	299.000000	138.000000
0.280000	57.060000	81.060000	728.000000	0.000000	161.000000	50.000000	380.000000	191.000000
0.290000	61.280000	82.490000	751.000000	0.000000	161.000000	50.000000	422.000000	143.000000
0.300000	65.780000	83.690000	748.000000	0.000000	162.000000	52.000000	450.000000	120.000000
0.310000	70.070000	84.730000	742.000000	0.000000	164.000000	52.000000	429.000000	104.000000
0.320000	72.790000	85.390000	733.000000	0.000000	166.000000	52.000000	272.000000	66.000000
0.330000	74.450000	85.580000	667.000000	0.000000	168.000000	53.000000	166.000000	19.000000
0.340000	74.670000	85.450000	636.000000	0.000000	170.000000	54.000000	22.000000	-13.000000
0.350000	74.430000	85.150000	544.000000	0.000000	172.000000	54.000000	-24.000000	-30.000000
0.360000	73.870000	84.850000	359.000000	0.000000	174.000000	55.000000	-56.000000	-30.000000
0.370000	73.030000	84.640000	61.000000	0.000000	176.000000	55.000000	-84.000000	-21.000000
0.380000	73.030000	84.640000	0.000000	1.000000	177.000000	55.000000	0.000000	0.000000
0.390000	70.990000	84.390000	0.000000	0.000000	177.000000	55.000000	-204.000000	-25.000000
0.400000	70.560000	84.390000	0.000000	0.000000	177.000000	55.000000	-43.000000	0.000000
0.410000	70.210000	84.580000	0.000000	0.000000	177.000000	55.000000	-35.000000	19.000000
0.420000	69.910000	84.720000	0.000000	0.000000	177.000000	55.000000	-30.000000	14.000000
0.430000	69.390000	84.820000	0.000000	0.000000	177.000000	54.000000	-52.000000	10.000000
0.440000	68.860000	84.880000	0.000000	0.000000	177.000000	54.000000	-53.000000	6.000000
0.450000	68.330000	84.880000	0.000000	0.000000	176.000000	54.000000	-53.000000	0.000000
0.460000	67.700000	85.040000	0.000000	0.000000	176.000000	54.000000	-63.000000	16.000000
0.470000	67.010000	85.160000	0.000000	0.000000	175.000000	53.000000	-69.000000	12.000000
0.480000	66.190000	85.290000	0.000000	0.000000	175.000000	53.000000	-82.000000	13.000000
0.490000	65.310000	85.220000	0.000000	0.000000	174.000000	52.000000	-88.000000	-7.000000
0.500000	64.390000	84.930000	0.000000	0.000000	172.000000	52.000000	-92.000000	-29.000000
0.510000	63.390000	84.500000	0.000000	0.000000	171.000000	52.000000	-100.000000	-43.000000
0.520000	62.330000	83.870000	0.000000	0.000000	170.000000	51.000000	-106.000000	-63.000000
0.530000	61.230000	83.240000	0.000000	0.000000	169.000000	51.000000	-110.000000	-63.000000
0.540000	60.500000	82.820000	0.000000	0.000000	166.000000	51.000000	-73.000000	-42.000000
0.550000	60.100000	82.530000	0.000000	0.000000	163.000000	52.000000	-40.000000	-29.000000
0.560000	59.930000	82.530000	0.000000	0.000000	160.000000	51.000000	-17.000000	0.000000
0.570000	60.040000	82.580000	0.000000	0.000000	157.000000	52.000000	11.000000	5.000000
0.580000	60.180000	82.750000	0.000000	0.000000	155.000000	52.000000	14.000000	17.000000
0.590000	60.420000	82.990000	0.000000	0.000000	155.000000	52.000000	24.000000	24.000000
0.600000	60.720000	83.230000	0.000000	0.000000	153.000000	53.000000	30.000000	24.000000
0.610000	61.030000	83.460000	0.000000	0.000000	153.000000	53.000000	31.000000	23.000000
0.620000	61.320000	83.540000	0.000000	0.000000	153.000000	53.000000	29.000000	8.000000
0.630000	61.480000	83.540000	0.000000	0.000000	153.000000	53.000000	16.000000	0.000000
0.640000	61.550000	83.540000	0.000000	0.000000	153.000000	53.000000	7.000000	0.000000
0.650000	61.550000	83.490000	0.000000	0.000000	153.000000	53.000000	0.000000	-5.000000
0.660000	61.550000	83.490000	0.000000	0.000000	153.000000	53.000000	0.000000	0.000000
0.670000	61.470000	83.490000	0.000000	0.000000	153.000000	53.000000	-8.000000	0.000000
0.680000	61.470000	83.490000	0.000000	0.000000	153.000000	53.000000	0.000000	0.000000
0.690000	61.470000	83.490000	0.000000	0.000000	153.000000	53.000000	0.000000	0.000000
0.700000	61.220000	83.580000	0.000000	0.000000	153.000000	53.000000	-25.000000	9.000000
0.710000	61.110000	83.580000	0.000000	0.000000	153.000000	53.000000	-11.000000	0.000000
0.720000	60.990000	83.440000	0.000000	0.000000	153.000000	53.000000	-12.000000	-14.000000
0.730000	60.840000	83.350000	0.000000	0.000000	153.000000	53.000000	-15.000000	-9.000000
0.740000	60.680000	83.350000	0.000000	0.000000	152.000000	54.000000	-16.000000	0.000000
0.750000	60.520000	83.300000	0.000000	0.000000	152.000000	54.000000	-16.000000	-5.000000
0.760000	60.380000	83.390000	0.000000	0.000000	152.000000	54.000000	-14.000000	9.000000
0.770000	60.260000	83.470000	0.000000	0.000000	151.000000	53.000000	-12.000000	8.000000
0.780000	60.190000	83.600000	0.000000	0.000000	151.000000	53.000000	-7.000000	13.000000
0.790000	60.190000	83.770000	0.000000	0.000000	151.000000	53.000000	0.000000	17.000000
0.800000	60.110000	83.860000	0.000000	0.000000	151.000000	53.000000	-8.000000	9.000000
0.810000	60.040000	83.930000	0.000000	0.000000	150.000000	52.000000	-7.000000	7.000000
0.820000	59.960000	83.930000	0.000000	0.000000	150.000000	52.000000	-8.000000	0.000000
0.830000	59.830000	83.930000	0.000000	0.000000	150.000000	52.000000	-13.000000	0.000000
0.840000	59.660000	83.930000	0.000000	0.000000	149.000000	52.000000	-17.000000	0.000000
0.850000	59.480000	83.930000	0.000000	0.000000	149.000000	52.000000	-18.000000	0.000000
0.860000	59.350000	83.930000	0.000000	0.000000	150.000000	51.000000	-13.000000	0.000000
0.870000	59.350000	83.930000	0.000000	0.000000	150.000000	51.000000	0.000000	0.000000
0.880000	59.400000	83.980000	0.000000	0.000000	150.000000	51.000000	5.000000	5.000000
0.890000	59.560000	84.110000	0.000000	0.000000	150.000000	51.000000	16.000000	13.000000
0.900000	59.750000	84.270000	0.000000	0.000000	151.000000	50.000000	19.000000	16.000000
0.910000	59.960000	84.410000	0.000000	0.000000	151.000000	50.000000	21.000000	14.000000
0.920000	60.200000	84.580000	0.000000	0.000000	151.000000	50.000000	24.000000	17.000000
0.930000	60.380000	84.790000	0.000000	0.000000	151.000000	50.000000	18.000000	21.000000
0.940000	60.530000	84.920000	0.000000	0.000000	152.000000	51.000000	15.000000	13.000000
0.950000	60.590000	85.030000	0.000000	0.000000	152.000000	51.000000	6.000000	11.000000
0.960000	60.590000	85.090000	0.000000	0.000000	153.000000	50.000000	0.000000	6.000000
0.970000	60.650000	85.140000	0.000000	0.000000	154.000000	50.000000	6.000000	5.000000
0.980000	60.650000	85.140000	0.000000	0.000000	154.000000	50.000000	0.000000	0.000000
0.990000	60.650000	85.190000	0.000000	0.000000	154.000000	50.000000	0.000000	5.000000
1.000000	60.560000	85.190000	0.000000	0.000000	154.000000	50.000000	-9.000000	0.000000
1.010000	60.460000	85.130000	0.000000	0.000000	155.000000	50.000000	-10.000000	-6.000000
1.020000	60.380000	85.080000	0.000000	0.000000	155.000000	50.000000	-8.000000	-5.000000
1.030000	60.330000	84.970000	0.000000	0.000000	155.000000	50.000000	-5.000000	-11.000000
1.040000	60.270000	84.840000	0.000000	0.000000	155.000000	50.000000	-6.000000	-13.000000
1.050000	60.220000	84.660000	0.000000	0.000000	155.000000	50.000000	-5.000000	-18.000000
1.060000	60.140000	84.490000	0.000000	0.000000	155.000000	50.000000	-8.000000	-17.000000
1.070000	60.040000	84.320000	0.000000	0.000000	155.000000	50.000000	-10.000000	-17.000000
1.080000	59.990000	84.230000	0.000000	0.000000	155.000000	50.000000	-5.000000	-9.000000
1.090000	59.990000	84.180000	0.000000	0.000000	155.000000	50.000000	0.000000	-5.000000
1.100000	59.930000	84.180000	0.000000	0.000000	155.000000	50.000000	-6.000000	0.000000
1.110000	59.930000	84.130000	0.000000	0.000000	155.000000	50.000000	0.000000	-5.000000
1.120000	59.930000	84.130000	0.000000	0.000000	155.000000	50.000000	0.000000	0.000000
1.130000	59.930000	84.130000	0.000000	0.000000	155.000000	50.000000	0.000000	0.000000
1.140000	59.980000	84.130000	0.000000	0.000000	155.000000	50.000000	5.000000	0.000000
1.150000	59.980000	84.060000	0.000000	0.000000	155.000000	50.000000	0.000000	-7.000000
1.160000	60.030000	84.060000	0.000000	0.000000	155.000000	50.000000	5.000000	0.000000
1.170000	60.030000	84.060000	0.000000	0.000000	155.000000	50.000000	0.000000	0.000000
1.180000	60.030000	84.060000	0.000000	0.000000	155.000000	50.000000	0.000000	0.000000
1.190000	60.030000	84.060000	0.000000	0.000000	155.000000	50.000000	0.000000	0.000000
1.200000	60.030000	84.110000	0.000000	0.000000	155.000000	50.000000	0.000000	5.000000
1.210000	60.030000	84.110000	0.000000	0.000000	155.000000	50.000000	0.000000	0.000000
1.220000	60.030000	84.110000	0.000000	0.000000	157.000000	51.000000	0.000000	0.000000
1.230000	60.120000	84.160000	0.000000	0.000000	157.000000	51.000000	9.000000	5.000000
1.240000	60.210000	84.160000	0.000000	0.000000	157.000000	51.000000	9.000000	0.000000
1.250000	60.210000	84.160000	0.000000	0.000000	157.000000	51.000000	0.000000	0.000000
1.260000	60.140000	84.160000	0.000000	0.000000	157.000000	51.000000	-7.000000	0.000000
1.270000	60.140000	84.160000	0.000000	0.000000	157.000000	51.000000	0.000000	0.000000
1.280000	60.140000	84.160000	0.000000	0.000000	157.000000	51.000000	0.000000	0.000000
1.290000	60.140000	84.160000	0.000000	0.000000	157.000000	51.000000	0.000000	0.000000
1.300000	60.140000	84.160000	0.000000	0.000000	157.000000	51.000000	0.000000	0.000000
1.310000	60.140000	84.160000	0.000000	0.000000	157.000000	51.000000	0.000000	0.000000
1.320000	60.140000	84.160000	0.000000	0.000000	157.000000	51.000000	0.000000	0.000000
1.330000	60.140000	84.160000	0.000000	0.000000	157.000000	51.000000	0.000000	0.000000
1.340000	60.140000	84.160000	0.000000	0.000000	157.000000	51.000000	0.000000	0.000000
1.350000	60.140000	84.160000	0.000000	0.000000	157.000000	51.000000	0.000000	0.000000
1.360000	59.880000	83.840000	0.000000	0.000000	157.000000	51.000000	-26.000000	-32.000000
1.370000	59.880000	83.750000	0.000000	0.000000	157.000000	51.000000	0.000000	-9.000000
1.380000	59.780000	83.690000	0.000000	0.000000	157.000000	51.000000	-10.000000	-6.000000
1.390000	59.780000	83.620000	0.000000	0.000000	157.000000	52.000000	0.000000	-7.000000
1.400000	59.720000	83.570000	0.000000	0.000000	157.000000	52.000000	-6.000000	-5.000000
1.410000	59.720000	83.570000	0.000000	0.000000	157.000000	52.000000	0.000000	0.000000
1.420000	59.720000	83.510000	0.000000	0.000000	157.000000	52.000000	0.000000	-6.000000
1.430000	59.720000	83.510000	0.000000	0.000000	157.000000	52.000000	0.000000	0.000000
1.440000	59.650000	83.430000	0.000000	0.000000	157.000000	52.000000	-7.000000	-8.000000
1.450000	59.590000	83.360000	0.000000	0.000000	157.000000	52.000000	-6.000000	-7.000000
1.460000	59.520000	83.280000	0.000000	0.000000	155.000000	52.000000	-7.000000	-8.000000
1.470000	59.440000	83.180000	0.000000	0.000000	155.000000	52.000000	-8.000000	-10.000000
1.480000	59.360000	83.050000	0.000000	0.000000	155.000000	52.000000	-8.000000	-13.000000
1.490000	59.300000	82.900000	0.000000	0.000000	155.000000	52.000000	-6.000000	-15.000000
1.500000	59.300000	82.820000	0.000000	0.000000	155.000000	52.000000	0.000000	-8.000000
1.510000	59.300000	82.820000	0.000000	0.000000	155.000000	52.000000	0.000000	0.000000
1.520000	59.360000	82.770000	0.000000	0.000000	155.000000	52.000000	6.000000	-5.000000
1.530000	59.410000	82.770000	0.000000	0.000000	155.000000	52.000000	5.000000	0.000000
1.540000	59.490000	82.770000	0.000000	0.000000	155.000000	52.000000	8.000000	0.000000
1.550000	59.490000	82.770000	0.000000	0.000000	155.000000	52.000000	0.000000	0.000000
1.560000	59.490000	82.770000	0.000000	0.000000	155.000000	52.000000	0.000000	0.000000
1.570000	59.490000	82.770000	0.000000	0.000000	155.000000	52.000000	0.000000	0.000000
1.580000	59.490000	82.770000	0.000000	0.000000	155.000000	52.000000	0.000000	0.000000
1.590000	59.490000	82.770000	0.000000	0.000000	155.000000	52.000000	0.000000	0.000000
1.600000	59.490000	82.770000	0.000000	0.000000	155.000000	52.000000	0.000000	0.000000
1.610000	59.490000	82.770000	0.000000	0.000000	155.000000	52.000000	0.000000	0.000000
1.620000	59.490000	82.770000	0.000000	0.000000	155.000000	52.000000	0.000000	0.000000
1.630000	59.490000	82.820000	0.000000	0.000000	155.000000	52.000000	0.000000	5.000000
1.640000	59.440000	82.820000	0.000000	0.000000	156.000000	53.000000	-5.000000	0.000000
1.650000	59.390000	82.820000	0.000000	0.000000	156.000000	53.000000	-5.000000	0.000000
1.660000	59.390000	82.870000	0.000000	0.000000	156.000000	53.000000	0.000000	5.000000
1.670000	59.330000	82.870000	0.000000	0.000000	156.000000	53.000000	-6.000000	0.000000
1.680000	59.330000	82.870000	0.000000	0.000000	156.000000	53.000000	0.000000	0.000000
1.690000	59.330000	82.870000	0.000000	0.000000	158.000000	53.000000	0.000000	0.000000
1.700000	59.330000	82.870000	0.000000	0.000000	158.000000	53.000000	0.000000	0.000000
1.710000	59.330000	82.940000	0.000000	0.000000	158.000000	53.000000	0.000000	7.000000
1.720000	59.330000	82.940000	0.000000	0.000000	158.000000	53.000000	0.000000	0.000000
1.730000	59.270000	82.940000	0.000000	0.000000	158.000000	53.000000	-6.000000	0.000000
1.740000	59.270000	82.940000	0.000000	0.000000	158.000000	53.000000	0.000000	0.000000
1.750000	59.180000	82.940000	0.000000	0.000000	158.000000	53.000000	-9.000000	0.000000
1.760000	59.100000	82.940000	0.000000	0.000000	158.000000	53.000000	-8.000000	0.000000
1.770000	59.040000	82.940000	0.000000	0.000000	159.000000	53.000000	-6.000000	0.000000
1.780000	58.980000	82.880000	0.000000	0.000000	159.000000	53.000000	-6.000000	-6.000000
1.790000	58.900000	82.880000	0.000000	0.000000	159.000000	53.000000	-8.000000	0.000000
1.800000	58.830000	82.880000	0.000000	0.000000	159.000000	53.000000	-7.000000	0.000000
1.810000	58.770000	82.880000	0.000000	0.000000	159.000000	53.000000	-6.000000	0.000000
1.820000	58.770000	82.880000	0.000000	0.000000	159.000000	53.000000	0.000000	0.000000
1.830000	58.770000	82.880000	0.000000	0.000000	160.000000	52.000000	0.000000	0.000000
1.840000	58.770000	82.930000	0.000000	0.000000	160.000000	52.000000	0.000000	5.000000
1.850000	58.720000	82.930000	0.000000	0.000000	160.000000	52.000000	-5.000000	0.000000
1.860000	58.720000	82.930000	0.000000	0.000000	160.000000	52.000000	0.000000	0.000000
1.870000	58.720000	82.930000	0.000000	0.000000	160.000000	52.000000	0.000000	0.000000
1.880000	58.660000	82.930000	0.000000	0.000000	160.000000	52.000000	-6.000000	0.000000
1.890000	58.600000	82.930000	0.000000	0.000000	160.000000	52.000000	-6.000000	0.000000
1.900000	58.600000	82.930000	0.000000	0.000000	160.000000	52.000000	0.000000	0.000000
1.910000	58.540000	82.860000	0.000000	0.000000	160.000000	52.000000	-6.000000	-7.000000
1.920000	58.540000	82.860000	0.000000	0.000000	160.000000	52.000000	0.000000	0.000000
1.930000	58.540000	82.910000	0.000000	0.000000	160.000000	52.000000	0.000000	5.000000
1.940000	58.540000	82.910000	0.000000	0.000000	160.000000	52.000000	0.000000	0.000000
1.950000	58.540000	82.910000	0.000000	0.000000	160.000000	52.000000	0.000000	0.000000
1.960000	58.540000	82.910000	0.000000	0.000000	160.000000	52.000000	0.000000	0.000000
1.970000	58.480000	82.980000	0.000000	0.000000	160.000000	52.000000	-6.000000	7.000000
1.980000	58.480000	82.980000	0.000000	0.000000	160.000000	52.000000	0.000000	0.000000
1.990000	58.410000	82.980000	0.000000	0.000000	160.000000	52.000000	-7.000000	0.000000
2.000000	58.410000	83.030000	0.000000	0.000000	160.000000	52.000000	0.000000	5.000000
2.010000	58.340000	83.030000	0.000000	0.000000	160.000000	52.000000	-7.000000	0.000000
2.020000	58.340000	83.030000	0.000000	0.000000	160.000000	52.000000	0.000000	0.000000
2.030000	58.340000	83.110000	0.000000	0.000000	158.000000	52.000000	0.000000	8.000000
2.040000	58.340000	83.210000	0.000000	0.000000	158.000000	52.000000	0.000000	10.000000
2.050000	58.340000	83.310000	0.000000	0.000000	158.000000	52.000000	0.000000	10.000000
2.060000	58.340000	83.450000	0.000000	0.000000	158.000000	52.000000	0.000000	14.000000
2.070000	58.340000	83.610000	0.000000	0.000000	158.000000	52.000000	0.000000	16.000000
2.080000	58.260000	83.720000	0.000000	0.000000	158.000000	52.000000	-8.000000	11.000000
2.090000	58.200000	83.820000	0.000000	0.000000	159.000000	51.000000	-6.000000	10.000000
2.100000	58.200000	83.920000	0.000000	0.000000	159.000000	51.000000	0.000000	10.000000
2.110000	58.200000	83.920000	47.000000	1.000000	159.000000	51.000000	0.000000	0.000000
2.120000	58.200000	83.920000	172.000000	0.000000	159.000000	51.000000	0.000000	0.000000
2.130000	58.200000	83.920000	242.000000	0.000000	159.000000	51.000000	0.000000	0.000000
2.140000	58.200000	83.920000	299.000000	0.000000	159.000000	51.000000	0.000000	0.000000
2.150000	58.200000	83.920000	351.000000	0.000000	160.000000	51.000000	0.000000	0.000000
2.160000	58.120000	83.670000	422.000000	0.000000	161.000000	50.000000	-8.000000	-25.000000
2.170000	58.120000	83.460000	449.000000	0.000000	161.000000	50.000000	0.000000	-21.000000
2.180000	58.120000	83.220000	447.000000	0.000000	161.000000	50.000000	0.000000	-24.000000
2.190000	58.050000	83.000000	446.000000	0.000000	161.000000	50.000000	-7.000000	-22.000000
2.200000	58.050000	82.900000	301.000000	0.000000	161.000000	50.000000	0.000000	-10.000000
2.210000	58.050000	82.900000	0.000000	1.000000	160.000000	51.000000	0.000000	0.000000
2.220000	57.820000	82.970000	0.000000	0.000000	160.000000	51.000000	-23.000000	7.000000
2.230000	57.820000	83.340000	0.000000	0.000000	160.000000	51.000000	0.000000	37.000000
2.240000	57.920000	83.890000	0.000000	0.000000	160.000000	51.000000	10.000000	55.000000
2.250000	58.180000	84.520000	0.000000	0.000000	160.000000	52.000000	26.000000	63.000000
