t	x	y	pressure	penup	azimuth	inclination	v_x	v_y
0.000000	90.920000	60.100000	47.000000	1.000000	152.000000	53.000000	0.000000	0.000000
0.010000	90.850000	59.510000	125.000000	0.000000	153.000000	53.000000	-7.000000	-59.000000
0.020000	90.960000	59.340000	213.000000	0.000000	153.000000	53.000000	11.000000	-17.000000
0.030000	91.200000	59.190000	314.000000	0.000000	154.000000	53.000000	24.000000	-15.000000
0.040000	91.580000	59.120000	394.000000	0.000000	154.000000	53.000000	38.000000	-7.000000
0.050000	92.240000	59.260000	473.000000	0.000000	154.000000	53.000000	66.000000	14.000000
0.060000	93.080000	59.530000	524.000000	0.000000	154.000000	53.000000	84.000000	27.000000
0.070000	94.260000	60.130000	565.000000	0.000000	154.000000	53.000000	118.000000	60.000000
0.080000	95.650000	60.680000	605.000000	0.000000	153.000000	53.000000	139.000000	55.000000
0.090000	97.170000	61.930000	616.000000	0.000000	154.000000	53.000000	152.000000	125.000000
0.100000	98.690000	63.660000	622.000000	0.000000	155.000000	52.000000	152.000000	173.000000
0.110000	99.840000	65.360000	620.000000	0.000000	155.000000	52.000000	115.000000	170.000000
0.120000	100.750000	66.700000	639.000000	0.000000	156.000000	53.000000	91.000000	134.000000
0.130000	100.920000	67.790000	662.000000	0.000000	156.000000	53.000000	17.000000	109.000000
0.140000	100.430000	68.180000	670.000000	0.000000	158.000000	52.000000	-49.000000	39.000000
0.150000	99.490000	68.040000	671.000000	0.000000	160.000000	52.000000	-94.000000	-14.000000
0.160000	97.960000	67.550000	670.000000	0.000000	160.000000	52.000000	-153.000000	-49.000000
0.170000	96.380000	66.510000	663.000000	0.000000	160.000000	52.000000	-158.000000	-104.000000
0.180000	94.770000	65.480000	666.000000	0.000000	160.000000	52.000000	-161.000000	-103.000000
0.190000	93.850000	64.480000	670.000000	0.000000	160.000000	52.000000	-92.000000	-100.000000
0.200000	93.590000	63.670000	669.000000	0.000000	160.000000	52.000000	-26.000000	-81.000000
0.210000	93.780000	62.960000	681.000000	0.000000	160.000000	52.000000	19.000000	-71.000000
0.220000	94.340000	62.160000	724.000000	0.000000	158.000000	52.000000	56.000000	-80.000000
0.230000	95.240000	61.490000	750.000000	0.000000	158.000000	52.000000	90.000000	-67.000000
0.240000	96.370000	60.900000	768.000000	0.000000	158.000000	52.000000	113.000000	-59.000000
0.250000	97.740000	60.550000	770.000000	0.000000	158.000000	52.000000	137.000000	-35.000000
0.260000	99.120000	60.500000	777.000000	0.000000	158.000000	52.000000	138.000000	-5.000000
0.270000	100.030000	60.650000	777.000000	0.000000	160.000000	52.000000	91.000000	15.000000
0.280000	100.630000	60.980000	788.000000	0.000000	160.000000	52.000000	60.000000	33.000000
0.290000	100.400000	61.340000	793.000000	0.000000	161.000000	52.000000	-23.000000	36.000000
0.300000	99.190000	61.730000	797.000000	0.000000	162.000000	53.000000	-121.000000	39.000000
0.310000	97.320000	61.830000	790.000000	0.000000	162.000000	53.000000	-187.000000	10.000000
0.320000	94.640000	61.720000	799.000000	0.000000	162.000000	53.000000	-268.000000	-11.000000
0.330000	91.630000	61.480000	830.000000	0.000000	162.000000	53.000000	-301.000000	-24.000000
0.340000	88.410000	61.270000	882.000000	0.000000	162.000000	53.000000	-322.000000	-21.000000
0.350000	85.880000	61.270000	930.000000	0.000000	162.000000	53.000000	-253.000000	0.000000
0.360000	84.510000	61.270000	958.000000	0.000000	162.000000	53.000000	-137.000000	0.000000
0.370000	83.900000	61.330000	964.000000	0.000000	163.000000	52.000000	-61.000000	6.000000
0.380000	84.090000	61.280000	970.000000	0.000000	162.000000	52.000000	19.000000	-5.000000
0.390000	84.980000	61.210000	985.000000	0.000000	162.000000	52.000000	89.000000	-7.000000
0.400000	86.330000	61.210000	1005.000000	0.000000	162.000000	52.000000	135.000000	0.000000
0.410000	89.290000	61.370000	1023.000000	0.000000	162.000000	52.000000	296.000000	16.000000
0.420000	93.270000	61.860000	1023.000000	0.000000	163.000000	52.000000	398.000000	49.000000
0.430000	97.930000	62.550000	1023.000000	0.000000	163.000000	52.000000	466.000000	69.000000
0.440000	102.640000	63.220000	1023.000000	0.000000	163.000000	52.000000	471.000000	67.000000
0.450000	106.830000	63.520000	1023.000000	0.000000	162.000000	53.000000	419.000000	30.000000
0.460000	110.660000	63.570000	955.000000	0.000000	164.000000	53.000000	383.000000	5.000000
0.470000	113.140000	63.200000	439.000000	0.000000	164.000000	53.000000	248.000000	-37.000000
0.480000	113.140000	63.200000	0.000000	1.000000	165.000000	53.000000	0.000000	0.000000
0.490000	116.200000	63.110000	0.000000	0.000000	164.000000	54.000000	306.000000	-9.000000
0.500000	116.740000	63.860000	0.000000	0.000000	164.000000	54.000000	54.000000	75.000000
0.510000	116.790000	65.010000	0.000000	0.000000	164.000000	54.000000	5.000000	115.000000
0.520000	116.520000	65.800000	0.000000	0.000000	163.000000	54.000000	-27.000000	79.000000
0.530000	115.050000	66.340000	0.000000	0.000000	162.000000	54.000000	-147.000000	54.000000
0.540000	112.580000	66.340000	0.000000	0.000000	161.000000	52.000000	-247.000000	0.000000
0.550000	109.430000	66.670000	0.000000	0.000000	158.000000	52.000000	-315.000000	33.000000
0.560000	106.830000	67.140000	0.000000	0.000000	157.000000	51.000000	-260.000000	47.000000
0.570000	104.540000	67.140000	0.000000	0.000000	156.000000	50.000000	-229.000000	0.000000
0.580000	102.460000	67.310000	0.000000	0.000000	154.000000	47.000000	-208.000000	17.000000
0.590000	100.510000	67.590000	0.000000	0.000000	154.000000	44.000000	-195.000000	28.000000
0.600000	99.100000	67.540000	0.000000	0.000000	155.000000	41.000000	-141.000000	-5.000000
0.610000	98.040000	67.210000	0.000000	0.000000	156.000000	38.000000	-106.000000	-33.000000
0.620000	97.490000	66.700000	0.000000	0.000000	158.000000	37.000000	-55.000000	-51.000000
0.630000	97.230000	65.960000	0.000000	0.000000	161.000000	35.000000	-26.000000	-74.000000
0.640000	97.170000	65.220000	0.000000	0.000000	162.000000	35.000000	-6.000000	-74.000000
0.650000	97.230000	64.500000	0.000000	0.000000	163.000000	33.000000	6.000000	-72.000000
0.660000	97.320000	63.790000	0.000000	0.000000	166.000000	32.000000	9.000000	-71.000000
0.670000	97.430000	63.980000	0.000000	0.000000	168.000000	32.000000	11.000000	19.000000
0.680000	97.110000	63.900000	0.000000	0.000000	169.000000	35.000000	-32.000000	-8.000000
0.690000	96.900000	63.650000	0.000000	0.000000	170.000000	37.000000	-21.000000	-25.000000
0.700000	96.770000	63.650000	0.000000	0.000000	168.000000	39.000000	-13.000000	0.000000
0.710000	96.830000	63.590000	0.000000	0.000000	166.000000	41.000000	6.000000	-6.000000
0.720000	96.940000	63.590000	0.000000	0.000000	165.000000	43.000000	11.000000	0.000000
0.730000	97.110000	63.400000	0.000000	0.000000	162.000000	45.000000	17.000000	-19.000000
0.740000	97.110000	63.180000	0.000000	0.000000	160.000000	46.000000	0.000000	-22.000000
0.750000	97.030000	63.030000	0.000000	0.000000	158.000000	48.000000	-8.000000	-15.000000
0.760000	96.660000	62.960000	0.000000	0.000000	156.000000	48.000000	-37.000000	-7.000000
0.770000	96.290000	63.030000	0.000000	0.000000	155.000000	48.000000	-37.000000	7.000000
0.780000	95.930000	63.170000	0.000000	0.000000	155.000000	48.000000	-36.000000	14.000000
0.790000	95.820000	63.360000	0.000000	0.000000	155.000000	48.000000	-11.000000	19.000000
0.800000	95.900000	63.600000	0.000000	0.000000	153.000000	48.000000	8.000000	24.000000
0.810000	96.100000	63.970000	0.000000	0.000000	153.000000	48.000000	20.000000	37.000000
0.820000	96.310000	64.420000	0.000000	0.000000	153.000000	48.000000	21.000000	45.000000
0.830000	96.500000	64.920000	0.000000	0.000000	153.000000	48.000000	19.000000	50.000000
0.840000	96.640000	65.450000	0.000000	0.000000	155.000000	48.000000	14.000000	53.000000
0.850000	96.740000	66.010000	0.000000	0.000000	155.000000	48.000000	10.000000	56.000000
0.860000	96.870000	66.430000	0.000000	0.000000	154.000000	49.000000	13.000000	42.000000
0.870000	96.980000	66.710000	0.000000	0.000000	155.000000	49.000000	11.000000	28.000000
0.880000	97.070000	66.900000	0.000000	0.000000	155.000000	49.000000	9.000000	19.000000
0.890000	97.180000	66.790000	0.000000	0.000000	154.000000	50.000000	11.000000	-11.000000
0.900000	97.180000	66.790000	329.000000	1.000000	154.000000	50.000000	0.000000	0.000000
0.910000	97.240000	67.420000	399.000000	0.000000	153.000000	51.000000	6.000000	63.000000
0.920000	97.090000	67.570000	520.000000	0.000000	153.000000	51.000000	-15.000000	15.000000
0.930000	97.090000	67.660000	550.000000	0.000000	153.000000	52.000000	0.000000	9.000000
0.940000	97.090000	67.660000	586.000000	0.000000	153.000000	52.000000	0.000000	0.000000
0.950000	97.030000	67.380000	631.000000	0.000000	153.000000	52.000000	-6.000000	-28.000000
0.960000	96.900000	66.940000	673.000000	0.000000	153.000000	52.000000	-13.000000	-44.000000
0.970000	96.690000	66.210000	690.000000	0.000000	153.000000	52.000000	-21.000000	-73.000000
0.980000	96.420000	65.310000	710.000000	0.000000	153.000000	52.000000	-27.000000	-90.000000
0.990000	96.170000	64.300000	727.000000	0.000000	153.000000	52.000000	-25.000000	-101.000000
1.000000	95.990000	63.380000	733.000000	0.000000	153.000000	52.000000	-18.000000	-92.000000
1.010000	95.990000	62.730000	725.000000	0.000000	153.000000	52.000000	0.000000	-65.000000
1.020000	96.190000	62.260000	742.000000	0.000000	153.000000	52.000000	20.000000	-47.000000
1.030000	96.400000	62.100000	780.000000	0.000000	153.000000	52.000000	21.000000	-16.000000
1.040000	96.650000	62.320000	881.000000	0.000000	153.000000	51.000000	25.000000	22.000000
1.050000	97.070000	62.790000	906.000000	0.000000	153.000000	51.000000	42.000000	47.000000
1.060000	97.590000	63.630000	939.000000	0.000000	153.000000	51.000000	52.000000	84.000000
1.070000	98.040000	64.620000	955.000000	0.000000	153.000000	51.000000	45.000000	99.000000
1.080000	98.320000	65.720000	1003.000000	0.000000	153.000000	52.000000	28.000000	110.000000
1.090000	98.490000	66.390000	1023.000000	0.000000	153.000000	52.000000	17.000000	67.000000
1.100000	98.490000	66.730000	1023.000000	0.000000	153.000000	52.000000	0.000000	34.000000
1.110000	98.400000	66.860000	1023.000000	0.000000	152.000000	53.000000	-9.000000	13.000000
1.120000	98.330000	66.860000	1023.000000	0.000000	152.000000	53.000000	-7.000000	0.000000
1.130000	98.260000	66.590000	1023.000000	0.000000	152.000000	53.000000	-7.000000	-27.000000
1.140000	98.040000	66.150000	1023.000000	0.000000	151.000000	53.000000	-22.000000	-44.000000
1.150000	97.720000	65.430000	1023.000000	0.000000	151.000000	53.000000	-32.000000	-72.000000
1.160000	97.440000	64.650000	1023.000000	0.000000	151.000000	53.000000	-28.000000	-78.000000
1.170000	97.340000	63.970000	1023.000000	0.000000	152.000000	53.000000	-10.000000	-68.000000
1.180000	97.340000	63.380000	1023.000000	0.000000	152.000000	53.000000	0.000000	-59.000000
1.190000	97.460000	63.210000	1023.000000	0.000000	152.000000	53.000000	12.000000	-17.000000
1.200000	97.580000	63.210000	1023.000000	0.000000	154.000000	52.000000	12.000000	0.000000
1.210000	97.780000	63.320000	1023.000000	0.000000	154.000000	52.000000	20.000000	11.000000
1.220000	98.350000	64.070000	1023.000000	0.000000	154.000000	52.000000	57.000000	75.000000
1.230000	99.170000	65.100000	1023.000000	0.000000	155.000000	51.000000	82.000000	103.000000
1.240000	99.980000	66.310000	1023.000000	0.000000	155.000000	51.000000	81.000000	121.000000
1.250000	100.580000	67.470000	1023.000000	0.000000	155.000000	51.000000	60.000000	116.000000
1.260000	101.050000	68.280000	1023.000000	0.000000	153.000000	51.000000	47.000000	81.000000
1.270000	101.320000	68.850000	1023.000000	0.000000	153.000000	51.000000	27.000000	57.000000
1.280000	101.380000	68.850000	1023.000000	0.000000	153.000000	51.000000	6.000000	0.000000
1.290000	101.300000	68.770000	1023.000000	0.000000	152.000000	51.000000	-8.000000	-8.000000
1.300000	101.120000	68.240000	1023.000000	0.000000	152.000000	51.000000	-18.000000	-53.000000
1.310000	100.700000	67.430000	1023.000000	0.000000	152.000000	51.000000	-42.000000	-81.000000
1.320000	100.130000	66.400000	1023.000000	0.000000	152.000000	51.000000	-57.000000	-103.000000
1.330000	99.630000	65.320000	1023.000000	0.000000	152.000000	51.000000	-50.000000	-108.000000
1.340000	99.160000	63.930000	1023.000000	0.000000	151.000000	51.000000	-47.000000	-139.000000
1.350000	98.740000	62.360000	1023.000000	0.000000	153.000000	52.000000	-42.000000	-157.000000
1.360000	98.080000	60.720000	1023.000000	0.000000	153.000000	52.000000	-66.000000	-164.000000
1.370000	97.270000	59.090000	1023.000000	0.000000	153.000000	53.000000	-81.000000	-163.000000
1.380000	96.790000	57.510000	1023.000000	0.000000	153.000000	53.000000	-48.000000	-158.000000
1.390000	96.630000	56.650000	1023.000000	0.000000	153.000000	53.000000	-16.000000	-86.000000
1.400000	96.680000	56.220000	1023.000000	0.000000	153.000000	53.000000	5.000000	-43.000000
1.410000	96.680000	56.220000	1023.000000	0.000000	152.000000	54.000000	0.000000	0.000000
1.420000	96.760000	56.400000	1023.000000	0.000000	152.000000	54.000000	8.000000	18.000000
1.430000	96.820000	56.800000	1023.000000	0.000000	152.000000	54.000000	6.000000	40.000000
1.440000	96.970000	57.470000	906.000000	0.000000	151.000000	54.000000	15.000000	67.000000
1.450000	97.170000	57.970000	669.000000	0.000000	151.000000	54.000000	20.000000	50.000000
1.460000	97.170000	58.370000	210.000000	0.000000	150.000000	54.000000	0.000000	40.000000
1.470000	97.170000	58.370000	0.000000	1.000000	151.000000	53.000000	0.000000	0.000000
1.480000	96.960000	58.970000	0.000000	0.000000	151.000000	53.000000	-21.000000	60.000000
1.490000	96.770000	59.390000	0.000000	0.000000	151.000000	53.000000	-19.000000	42.000000
1.500000	96.710000	60.020000	0.000000	0.000000	152.000000	53.000000	-6.000000	63.000000
1.510000	96.650000	60.620000	0.000000	0.000000	152.000000	53.000000	-6.000000	60.000000
1.520000	96.650000	61.190000	0.000000	0.000000	152.000000	53.000000	0.000000	57.000000
1.530000	96.560000	61.420000	0.000000	0.000000	153.000000	52.000000	-9.000000	23.000000
1.540000	96.300000	61.360000	0.000000	0.000000	153.000000	52.000000	-26.000000	-6.000000
1.550000	96.300000	61.360000	233.000000	1.000000	153.000000	52.000000	0.000000	0.000000
1.560000	95.280000	60.910000	382.000000	0.000000	153.000000	52.000000	-102.000000	-45.000000
1.570000	94.680000	60.790000	489.000000	0.000000	153.000000	52.000000	-60.000000	-12.000000
1.580000	94.080000	60.730000	606.000000	0.000000	153.000000	51.000000	-60.000000	-6.000000
1.590000	93.950000	60.780000	670.000000	0.000000	153.000000	51.000000	-13.000000	5.000000
1.600000	94.000000	60.780000	727.000000	0.000000	153.000000	51.000000	5.000000	0.000000
1.610000	94.180000	60.860000	785.000000	0.000000	154.000000	50.000000	18.000000	8.000000
1.620000	94.780000	60.910000	851.000000	0.000000	155.000000	50.000000	60.000000	5.000000
1.630000	95.700000	61.080000	893.000000	0.000000	155.000000	50.000000	92.000000	17.000000
1.640000	96.830000	61.320000	906.000000	0.000000	157.000000	51.000000	113.000000	24.000000
1.650000	97.810000	61.530000	924.000000	0.000000	157.000000	51.000000	98.000000	21.000000
1.660000	98.790000	61.740000	921.000000	0.000000	158.000000	51.000000	98.000000	21.000000
1.670000	99.750000	61.940000	896.000000	0.000000	158.000000	51.000000	96.000000	20.000000
1.680000	100.280000	62.030000	777.000000	0.000000	159.000000	50.000000	53.000000	9.000000
1.690000	100.550000	61.950000	611.000000	0.000000	160.000000	50.000000	27.000000	-8.000000
1.700000	100.550000	61.750000	182.000000	0.000000	159.000000	51.000000	0.000000	-20.000000
1.710000	100.550000	61.750000	0.000000	1.000000	159.000000	51.000000	0.000000	0.000000
1.720000	99.330000	60.920000	0.000000	0.000000	159.000000	51.000000	-122.000000	-83.000000
1.730000	98.470000	60.580000	0.000000	0.000000	159.000000	51.000000	-86.000000	-34.000000
1.740000	97.650000	60.300000	0.000000	0.000000	159.000000	51.000000	-82.000000	-28.000000
1.750000	96.910000	60.060000	0.000000	0.000000	158.000000	52.000000	-74.000000	-24.000000
1.760000	96.910000	60.060000	160.000000	1.000000	157.000000	52.000000	0.000000	0.000000
1.770000	95.280000	59.500000	382.000000	0.000000	157.000000	52.000000	-163.000000	-56.000000
1.780000	94.840000	59.300000	483.000000	0.000000	157.000000	52.000000	-44.000000	-20.000000
1.790000	94.620000	59.200000	591.000000	0.000000	156.000000	51.000000	-22.000000	-10.000000
1.800000	94.540000	59.140000	725.000000	0.000000	155.000000	52.000000	-8.000000	-6.000000
1.810000	94.620000	59.140000	855.000000	0.000000	155.000000	52.000000	8.000000	0.000000
1.820000	94.930000	59.140000	948.000000	0.000000	155.000000	52.000000	31.000000	0.000000
1.830000	95.400000	59.270000	985.000000	0.000000	155.000000	52.000000	47.000000	13.000000
1.840000	96.040000	59.480000	1005.000000	0.000000	156.000000	53.000000	64.000000	21.000000
1.850000	96.650000	59.700000	1009.000000	0.000000	157.000000	52.000000	61.000000	22.000000
1.860000	97.250000	59.920000	1008.000000	0.000000	157.000000	52.000000	60.000000	22.000000
1.870000	97.860000	60.130000	953.000000	0.000000	158.000000	52.000000	61.000000	21.000000
1.880000	98.440000	60.340000	855.000000	0.000000	158.000000	52.000000	58.000000	21.000000
1.890000	98.840000	60.500000	589.000000	0.000000	160.000000	52.000000	40.000000	16.000000
1.900000	98.840000	60.500000	0.000000	1.000000	160.000000	52.000000	0.000000	0.000000
1.910000	99.140000	60.770000	0.000000	0.000000	160.000000	52.000000	30.000000	27.000000
1.920000	98.920000	60.950000	0.000000	0.000000	160.000000	51.000000	-22.000000	18.000000
1.930000	98.600000	61.270000	0.000000	0.000000	160.000000	51.000000	-32.000000	32.000000
1.940000	98.430000	61.670000	0.000000	0.000000	160.000000	51.000000	-17.000000	40.000000
1.950000	98.300000	62.130000	0.000000	0.000000	159.000000	51.000000	-13.000000	46.000000
1.960000	98.300000	62.570000	0.000000	0.000000	159.000000	51.000000	0.000000	44.000000
1.970000	98.410000	62.990000	0.000000	0.000000	158.000000	51.000000	11.000000	42.000000
1.980000	98.560000	63.340000	0.000000	0.000000	158.000000	51.000000	15.000000	35.000000
1.990000	98.740000	63.650000	0.000000	0.000000	158.000000	51.000000	18.000000	31.000000
2.000000	98.980000	63.920000	0.000000	0.000000	157.000000	50.000000	24.000000	27.000000
2.010000	99.280000	64.180000	0.000000	0.000000	157.000000	50.000000	30.000000	26.000000
2.020000	99.280000	64.180000	107.000000	1.000000	159.000000	50.000000	0.000000	0.000000
2.030000	99.920000	64.570000	446.000000	0.000000	159.000000	50.000000	64.000000	39.000000
2.040000	99.920000	64.690000	566.000000	0.000000	159.000000	50.000000	0.000000	12.000000
2.050000	99.750000	64.810000	628.000000	0.000000	158.000000	51.000000	-17.000000	12.000000
2.060000	99.700000	64.700000	678.000000	0.000000	158.000000	51.000000	-5.000000	-11.000000
2.070000	99.570000	64.330000	736.000000	0.000000	158.000000	51.000000	-13.000000	-37.000000
2.080000	99.350000	63.790000	760.000000	0.000000	158.000000	51.000000	-22.000000	-54.000000
2.090000	99.090000	63.160000	777.000000	0.000000	158.000000	51.000000	-26.000000	-63.000000
2.100000	98.850000	62.510000	785.000000	0.000000	158.000000	51.000000	-24.000000	-65.000000
2.110000	98.790000	61.990000	784.000000	0.000000	159.000000	51.000000	-6.000000	-52.000000
2.120000	98.850000	61.560000	746.000000	0.000000	159.000000	51.000000	6.000000	-43.000000
2.130000	99.010000	61.310000	676.000000	0.000000	159.000000	51.000000	16.000000	-25.000000
2.140000	99.210000	61.310000	561.000000	0.000000	160.000000	51.000000	20.000000	0.000000
2.150000	99.600000	61.490000	301.000000	0.000000	160.000000	51.000000	39.000000	18.000000
2.160000	100.110000	61.950000	71.000000	0.000000	160.000000	51.000000	51.000000	46.000000
2.170000	100.110000	61.950000	0.000000	1.000000	162.000000	52.000000	0.000000	0.000000
2.180000	100.850000	62.970000	0.000000	0.000000	162.000000	52.000000	74.000000	102.000000
2.190000	100.850000	62.970000	148.000000	1.000000	162.000000	52.000000	0.000000	0.000000
