t	x	y	pressure	penup	azimuth	inclination	v_x	v_y
0.000000	52.550000	27.580000	10.000000	1.000000	121.000000	52.000000	0.000000	0.000000
0.010000	52.550000	27.580000	70.000000	1.000000	121.000000	52.000000	0.000000	0.000000
0.020000	52.550000	27.580000	101.000000	0.000000	121.000000	52.000000	0.000000	0.000000
0.030000	52.550000	27.580000	137.000000	0.000000	121.000000	52.000000	0.000000	0.000000
0.040000	52.860000	27.840000	184.000000	0.000000	121.000000	52.000000	31.000000	26.000000
0.050000	53.090000	28.200000	207.000000	0.000000	121.000000	52.000000	23.000000	36.000000
0.060000	53.400000	28.680000	275.000000	0.000000	121.000000	52.000000	31.000000	48.000000
0.070000	53.750000	29.250000	304.000000	0.000000	122.000000	51.000000	35.000000	57.000000
0.080000	54.150000	30.030000	307.000000	0.000000	122.000000	51.000000	40.000000	78.000000
0.090000	54.620000	30.950000	335.000000	0.000000	124.000000	52.000000	47.000000	92.000000
0.100000	55.110000	32.130000	335.000000	0.000000	126.000000	51.000000	49.000000	118.000000
0.110000	55.550000	33.490000	340.000000	0.000000	127.000000	51.000000	44.000000	136.000000
0.120000	55.980000	34.980000	334.000000	0.000000	128.000000	52.000000	43.000000	149.000000
0.130000	56.220000	35.870000	343.000000	0.000000	128.000000	52.000000	24.000000	89.000000
0.140000	56.350000	36.210000	349.000000	0.000000	129.000000	51.000000	13.000000	34.000000
0.150000	56.350000	36.210000	344.000000	0.000000	130.000000	52.000000	0.000000	0.000000
0.160000	56.300000	36.000000	353.000000	0.000000	130.000000	52.000000	-5.000000	-21.000000
0.170000	56.030000	35.200000	366.000000	0.000000	132.000000	51.000000	-27.000000	-80.000000
0.180000	55.570000	33.980000	371.000000	0.000000	132.000000	51.000000	-46.000000	-122.000000
0.190000	55.080000	32.440000	367.000000	0.000000	132.000000	51.000000	-49.000000	-154.000000
0.200000	54.630000	31.030000	369.000000	0.000000	132.000000	51.000000	-45.000000	-141.000000
0.210000	54.260000	29.710000	393.000000	0.000000	132.000000	51.000000	-37.000000	-132.000000
0.220000	53.930000	28.810000	394.000000	0.000000	130.000000	52.000000	-33.000000	-90.000000
0.230000	53.930000	28.330000	398.000000	0.000000	130.000000	52.000000	0.000000	-48.000000
0.240000	54.220000	28.140000	388.000000	0.000000	129.000000	51.000000	29.000000	-19.000000
0.250000	54.650000	28.240000	412.000000	0.000000	128.000000	52.000000	43.000000	10.000000
0.260000	55.330000	28.800000	449.000000	0.000000	128.000000	52.000000	68.000000	56.000000
0.270000	56.170000	29.680000	468.000000	0.000000	128.000000	52.000000	84.000000	88.000000
0.280000	57.110000	30.680000	496.000000	0.000000	128.000000	52.000000	94.000000	100.000000
0.290000	57.890000	31.830000	514.000000	0.000000	129.000000	52.000000	78.000000	115.000000
0.300000	58.460000	33.070000	497.000000	0.000000	129.000000	52.000000	57.000000	124.000000
0.310000	58.900000	34.570000	489.000000	0.000000	130.000000	52.000000	44.000000	150.000000
0.320000	59.070000	35.520000	489.000000	0.000000	131.000000	52.000000	17.000000	95.000000
0.330000	58.990000	36.110000	499.000000	0.000000	133.000000	52.000000	-8.000000	59.000000
0.340000	58.730000	36.110000	510.000000	0.000000	133.000000	52.000000	-26.000000	0.000000
0.350000	58.400000	35.570000	526.000000	0.000000	133.000000	52.000000	-33.000000	-54.000000
0.360000	57.830000	34.620000	553.000000	0.000000	134.000000	51.000000	-57.000000	-95.000000
0.370000	57.100000	33.240000	564.000000	0.000000	134.000000	51.000000	-73.000000	-138.000000
0.380000	56.460000	31.850000	560.000000	0.000000	134.000000	51.000000	-64.000000	-139.000000
0.390000	56.110000	30.460000	567.000000	0.000000	134.000000	51.000000	-35.000000	-139.000000
0.400000	55.960000	29.480000	570.000000	0.000000	133.000000	52.000000	-15.000000	-98.000000
0.410000	55.960000	28.830000	581.000000	0.000000	133.000000	52.000000	0.000000	-65.000000
0.420000	55.960000	28.390000	595.000000	0.000000	133.000000	52.000000	0.000000	-44.000000
0.430000	55.960000	28.180000	603.000000	0.000000	131.000000	52.000000	0.000000	-21.000000
0.440000	56.020000	28.070000	609.000000	0.000000	131.000000	52.000000	6.000000	-11.000000
0.450000	56.020000	28.020000	617.000000	0.000000	130.000000	53.000000	0.000000	-5.000000
0.460000	56.020000	28.020000	620.000000	0.000000	130.000000	53.000000	0.000000	0.000000
0.470000	56.020000	28.020000	610.000000	0.000000	130.000000	53.000000	0.000000	0.000000
0.480000	56.070000	28.020000	611.000000	0.000000	130.000000	53.000000	5.000000	0.000000
0.490000	56.070000	28.020000	613.000000	0.000000	130.000000	53.000000	0.000000	0.000000
0.500000	56.070000	28.020000	617.000000	0.000000	130.000000	53.000000	0.000000	0.000000
0.510000	56.130000	28.070000	622.000000	0.000000	130.000000	53.000000	6.000000	5.000000
0.520000	56.130000	28.070000	630.000000	0.000000	130.000000	53.000000	0.000000	0.000000
0.530000	56.130000	28.070000	641.000000	0.000000	130.000000	53.000000	0.000000	0.000000
0.540000	56.130000	28.070000	640.000000	0.000000	130.000000	53.000000	0.000000	0.000000
0.550000	56.130000	28.070000	640.000000	0.000000	130.000000	53.000000	0.000000	0.000000
0.560000	56.130000	28.070000	637.000000	0.000000	130.000000	53.000000	0.000000	0.000000
0.570000	56.130000	28.070000	637.000000	0.000000	130.000000	53.000000	0.000000	0.000000
0.580000	56.130000	28.070000	636.000000	0.000000	130.000000	53.000000	0.000000	0.000000
0.590000	56.130000	28.070000	637.000000	0.000000	130.000000	53.000000	0.000000	0.000000
0.600000	56.130000	28.070000	638.000000	0.000000	130.000000	53.000000	0.000000	0.000000
0.610000	56.130000	28.070000	637.000000	0.000000	130.000000	53.000000	0.000000	0.000000
0.620000	56.130000	28.070000	640.000000	0.000000	130.000000	53.000000	0.000000	0.000000
0.630000	56.130000	28.070000	640.000000	0.000000	130.000000	53.000000	0.000000	0.000000
0.640000	56.130000	28.070000	640.000000	0.000000	130.000000	53.000000	0.000000	0.000000
0.650000	56.130000	28.070000	640.000000	0.000000	130.000000	53.000000	0.000000	0.000000
0.660000	56.130000	28.070000	643.000000	0.000000	130.000000	53.000000	0.000000	0.000000
0.670000	56.130000	28.070000	643.000000	0.000000	130.000000	53.000000	0.000000	0.000000
0.680000	56.130000	28.070000	641.000000	0.000000	130.000000	53.000000	0.000000	0.000000
0.690000	56.500000	28.070000	643.000000	0.000000	130.000000	53.000000	37.000000	0.000000
0.700000	56.690000	28.070000	643.000000	0.000000	130.000000	53.000000	19.000000	0.000000
0.710000	56.810000	28.150000	643.000000	0.000000	130.000000	53.000000	12.000000	8.000000
0.720000	56.900000	28.150000	644.000000	0.000000	130.000000	53.000000	9.000000	0.000000
0.730000	56.900000	28.150000	644.000000	0.000000	130.000000	53.000000	0.000000	0.000000
0.740000	56.900000	28.150000	643.000000	0.000000	131.000000	52.000000	0.000000	0.000000
0.750000	56.900000	28.150000	641.000000	0.000000	131.000000	52.000000	0.000000	0.000000
0.760000	56.900000	28.150000	631.000000	0.000000	131.000000	52.000000	0.000000	0.000000
0.770000	56.900000	28.150000	630.000000	0.000000	131.000000	52.000000	0.000000	0.000000
0.780000	56.900000	28.150000	631.000000	0.000000	131.000000	52.000000	0.000000	0.000000
0.790000	56.900000	28.150000	636.000000	0.000000	131.000000	52.000000	0.000000	0.000000
0.800000	56.900000	28.150000	639.000000	0.000000	131.000000	52.000000	0.000000	0.000000
0.810000	56.900000	28.150000	641.000000	0.000000	131.000000	52.000000	0.000000	0.000000
0.820000	56.900000	28.150000	639.000000	0.000000	131.000000	52.000000	0.000000	0.000000
0.830000	56.900000	28.150000	639.000000	0.000000	131.000000	52.000000	0.000000	0.000000
0.840000	56.900000	28.150000	636.000000	0.000000	131.000000	52.000000	0.000000	0.000000
0.850000	56.900000	28.150000	633.000000	0.000000	131.000000	52.000000	0.000000	0.000000
0.860000	56.900000	28.150000	628.000000	0.000000	131.000000	52.000000	0.000000	0.000000
0.870000	56.900000	28.150000	627.000000	0.000000	131.000000	52.000000	0.000000	0.000000
0.880000	56.900000	28.150000	628.000000	0.000000	131.000000	52.000000	0.000000	0.000000
0.890000	56.900000	28.150000	627.000000	0.000000	131.000000	52.000000	0.000000	0.000000
0.900000	56.900000	28.150000	627.000000	0.000000	131.000000	52.000000	0.000000	0.000000
0.910000	56.900000	28.150000	622.000000	0.000000	131.000000	52.000000	0.000000	0.000000
0.920000	56.900000	28.150000	619.000000	0.000000	131.000000	52.000000	0.000000	0.000000
0.930000	56.900000	28.150000	619.000000	0.000000	131.000000	52.000000	0.000000	0.000000
0.940000	57.010000	28.150000	619.000000	0.000000	131.000000	52.000000	11.000000	0.000000
0.950000	57.160000	28.150000	620.000000	0.000000	131.000000	52.000000	15.000000	0.000000
0.960000	57.360000	28.210000	620.000000	0.000000	131.000000	52.000000	20.000000	6.000000
0.970000	57.600000	28.280000	620.000000	0.000000	131.000000	52.000000	24.000000	7.000000
0.980000	57.830000	28.380000	619.000000	0.000000	131.000000	52.000000	23.000000	10.000000
0.990000	58.050000	28.490000	620.000000	0.000000	131.000000	52.000000	22.000000	11.000000
1.000000	58.230000	28.610000	622.000000	0.000000	131.000000	52.000000	18.000000	12.000000
1.010000	58.230000	28.610000	627.000000	0.000000	133.000000	52.000000	0.000000	0.000000
1.020000	58.230000	28.610000	624.000000	0.000000	133.000000	52.000000	0.000000	0.000000
1.030000	58.230000	28.610000	614.000000	0.000000	133.000000	52.000000	0.000000	0.000000
1.040000	58.230000	28.610000	606.000000	0.000000	133.000000	52.000000	0.000000	0.000000
1.050000	58.230000	28.610000	599.000000	0.000000	132.000000	51.000000	0.000000	0.000000
1.060000	58.230000	28.610000	595.000000	0.000000	132.000000	51.000000	0.000000	0.000000
1.070000	58.530000	28.760000	594.000000	0.000000	132.000000	51.000000	30.000000	15.000000
1.080000	58.620000	28.830000	597.000000	0.000000	132.000000	51.000000	9.000000	7.000000
1.090000	58.620000	28.830000	611.000000	0.000000	132.000000	51.000000	0.000000	0.000000
1.100000	58.620000	28.830000	613.000000	0.000000	132.000000	51.000000	0.000000	0.000000
1.110000	58.560000	28.830000	613.000000	0.000000	133.000000	52.000000	-6.000000	0.000000
1.120000	58.560000	28.830000	595.000000	0.000000	133.000000	52.000000	0.000000	0.000000
1.130000	58.490000	28.830000	577.000000	0.000000	133.000000	52.000000	-7.000000	0.000000
1.140000	58.490000	28.780000	560.000000	0.000000	133.000000	52.000000	0.000000	-5.000000
1.150000	58.490000	28.780000	564.000000	0.000000	133.000000	52.000000	0.000000	0.000000
1.160000	58.490000	28.780000	562.000000	0.000000	133.000000	52.000000	0.000000	0.000000
1.170000	58.490000	28.780000	564.000000	0.000000	133.000000	52.000000	0.000000	0.000000
1.180000	58.490000	28.780000	556.000000	0.000000	133.000000	52.000000	0.000000	0.000000
1.190000	58.490000	28.780000	533.000000	0.000000	133.000000	52.000000	0.000000	0.000000
1.200000	58.490000	28.780000	475.000000	0.000000	133.000000	52.000000	0.000000	0.000000
1.210000	58.490000	28.690000	322.000000	0.000000	133.000000	52.000000	0.000000	-9.000000
1.220000	58.440000	28.690000	53.000000	0.000000	133.000000	52.000000	-5.000000	0.000000
1.230000	58.440000	28.690000	0.000000	1.000000	133.000000	52.000000	0.000000	0.000000
1.240000	58.550000	28.690000	0.000000	0.000000	133.000000	52.000000	11.000000	0.000000
1.250000	58.550000	28.790000	0.000000	0.000000	133.000000	52.000000	0.000000	10.000000
1.260000	58.550000	28.890000	0.000000	0.000000	133.000000	52.000000	0.000000	10.000000
1.270000	58.490000	28.980000	0.000000	0.000000	133.000000	52.000000	-6.000000	9.000000
1.280000	58.610000	29.090000	0.000000	0.000000	133.000000	52.000000	12.000000	11.000000
1.290000	58.800000	29.270000	0.000000	0.000000	133.000000	52.000000	19.000000	18.000000
1.300000	59.110000	29.490000	0.000000	0.000000	133.000000	52.000000	31.000000	22.000000
1.310000	59.610000	29.820000	0.000000	0.000000	133.000000	52.000000	50.000000	33.000000
1.320000	60.220000	30.240000	0.000000	0.000000	132.000000	51.000000	61.000000	42.000000
1.330000	60.780000	30.720000	0.000000	0.000000	132.000000	51.000000	56.000000	48.000000
1.340000	61.300000	31.020000	0.000000	0.000000	130.000000	51.000000	52.000000	30.000000
1.350000	61.800000	31.320000	0.000000	0.000000	132.000000	50.000000	50.000000	30.000000
1.360000	62.260000	31.490000	0.000000	0.000000	130.000000	50.000000	46.000000	17.000000
1.370000	62.770000	31.590000	0.000000	0.000000	132.000000	49.000000	51.000000	10.000000
1.380000	63.370000	31.760000	0.000000	0.000000	132.000000	49.000000	60.000000	17.000000
1.390000	64.030000	31.940000	0.000000	0.000000	133.000000	48.000000	66.000000	18.000000
1.400000	64.620000	32.110000	0.000000	0.000000	134.000000	48.000000	59.000000	17.000000
1.410000	65.170000	32.280000	0.000000	0.000000	135.000000	49.000000	55.000000	17.000000
1.420000	65.360000	32.230000	0.000000	0.000000	136.000000	49.000000	19.000000	-5.000000
1.430000	64.990000	32.030000	0.000000	0.000000	137.000000	48.000000	-37.000000	-20.000000
1.440000	64.250000	31.550000	0.000000	0.000000	137.000000	48.000000	-74.000000	-48.000000
1.450000	63.270000	31.030000	0.000000	0.000000	137.000000	48.000000	-98.000000	-52.000000
1.460000	62.320000	30.460000	0.000000	0.000000	136.000000	49.000000	-95.000000	-57.000000
1.470000	61.420000	29.900000	0.000000	0.000000	136.000000	49.000000	-90.000000	-56.000000
1.480000	60.570000	29.450000	0.000000	0.000000	135.000000	50.000000	-85.000000	-45.000000
1.490000	60.010000	29.060000	0.000000	0.000000	135.000000	50.000000	-56.000000	-39.000000
1.500000	59.640000	28.900000	0.000000	0.000000	134.000000	50.000000	-37.000000	-16.000000
1.510000	59.230000	28.740000	0.000000	0.000000	134.000000	51.000000	-41.000000	-16.000000
1.520000	58.860000	28.550000	0.000000	0.000000	134.000000	51.000000	-37.000000	-19.000000
1.530000	58.510000	28.370000	0.000000	0.000000	133.000000	52.000000	-35.000000	-18.000000
1.540000	58.410000	28.280000	0.000000	0.000000	134.000000	52.000000	-10.000000	-9.000000
1.550000	58.270000	28.280000	0.000000	0.000000	134.000000	52.000000	-14.000000	0.000000
1.560000	58.090000	28.170000	0.000000	0.000000	134.000000	52.000000	-18.000000	-11.000000
1.570000	57.760000	28.100000	0.000000	0.000000	134.000000	52.000000	-33.000000	-7.000000
1.580000	57.760000	28.100000	32.000000	1.000000	133.000000	52.000000	0.000000	0.000000
1.590000	57.270000	28.030000	108.000000	0.000000	133.000000	52.000000	-49.000000	-7.000000
1.600000	57.070000	28.030000	139.000000	0.000000	133.000000	52.000000	-20.000000	0.000000
1.610000	57.070000	28.030000	175.000000	0.000000	133.000000	52.000000	0.000000	0.000000
1.620000	57.070000	28.030000	226.000000	0.000000	133.000000	52.000000	0.000000	0.000000
1.630000	57.070000	28.030000	274.000000	0.000000	134.000000	52.000000	0.000000	0.000000
1.640000	57.560000	28.100000	356.000000	0.000000	134.000000	52.000000	49.000000	7.000000
1.650000	58.280000	28.270000	388.000000	0.000000	134.000000	52.000000	72.000000	17.000000
1.660000	59.070000	28.600000	469.000000	0.000000	135.000000	53.000000	79.000000	33.000000
1.670000	60.060000	29.050000	496.000000	0.000000	135.000000	53.000000	99.000000	45.000000
1.680000	61.170000	29.570000	521.000000	0.000000	135.000000	53.000000	111.000000	52.000000
1.690000	62.560000	30.340000	559.000000	0.000000	135.000000	53.000000	139.000000	77.000000
1.700000	63.980000	31.280000	584.000000	0.000000	136.000000	52.000000	142.000000	94.000000
1.710000	65.460000	32.330000	611.000000	0.000000	136.000000	52.000000	148.000000	105.000000
1.720000	66.920000	33.580000	653.000000	0.000000	136.000000	52.000000	146.000000	125.000000
1.730000	67.830000	34.600000	675.000000	0.000000	137.000000	52.000000	91.000000	102.000000
1.740000	68.360000	35.460000	710.000000	0.000000	139.000000	52.000000	53.000000	86.000000
1.750000	68.360000	36.080000	748.000000	0.000000	139.000000	52.000000	0.000000	62.000000
1.760000	68.110000	36.490000	754.000000	0.000000	139.000000	52.000000	-25.000000	41.000000
1.770000	67.640000	36.750000	754.000000	0.000000	140.000000	53.000000	-47.000000	26.000000
1.780000	66.750000	36.750000	725.000000	0.000000	141.000000	52.000000	-89.000000	0.000000
1.790000	65.590000	36.560000	665.000000	0.000000	142.000000	53.000000	-116.000000	-19.000000
1.800000	64.240000	36.210000	591.000000	0.000000	142.000000	53.000000	-135.000000	-35.000000
1.810000	62.460000	35.580000	544.000000	0.000000	143.000000	52.000000	-178.000000	-63.000000
1.820000	60.610000	34.700000	537.000000	0.000000	141.000000	52.000000	-185.000000	-88.000000
1.830000	58.720000	33.650000	544.000000	0.000000	141.000000	52.000000	-189.000000	-105.000000
1.840000	57.020000	32.360000	570.000000	0.000000	141.000000	52.000000	-170.000000	-129.000000
1.850000	55.710000	31.010000	592.000000	0.000000	139.000000	52.000000	-131.000000	-135.000000
1.860000	54.670000	29.630000	609.000000	0.000000	137.000000	52.000000	-104.000000	-138.000000
1.870000	54.190000	28.440000	613.000000	0.000000	137.000000	52.000000	-48.000000	-119.000000
1.880000	53.940000	27.530000	616.000000	0.000000	135.000000	52.000000	-25.000000	-91.000000
1.890000	53.850000	26.810000	616.000000	0.000000	135.000000	52.000000	-9.000000	-72.000000
1.900000	53.950000	26.440000	611.000000	0.000000	133.000000	52.000000	10.000000	-37.000000
1.910000	54.070000	26.180000	620.000000	0.000000	131.000000	52.000000	12.000000	-26.000000
1.920000	54.260000	25.990000	636.000000	0.000000	129.000000	52.000000	19.000000	-19.000000
1.930000	54.480000	25.850000	662.000000	0.000000	128.000000	53.000000	22.000000	-14.000000
1.940000	55.080000	25.850000	703.000000	0.000000	128.000000	53.000000	60.000000	0.000000
1.950000	55.920000	25.850000	730.000000	0.000000	127.000000	53.000000	84.000000	0.000000
1.960000	57.110000	26.080000	763.000000	0.000000	127.000000	53.000000	119.000000	23.000000
1.970000	58.310000	26.270000	767.000000	0.000000	127.000000	53.000000	120.000000	19.000000
1.980000	59.560000	26.400000	771.000000	0.000000	128.000000	54.000000	125.000000	13.000000
1.990000	60.870000	26.540000	774.000000	0.000000	129.000000	55.000000	131.000000	14.000000
2.000000	62.350000	26.830000	774.000000	0.000000	129.000000	55.000000	148.000000	29.000000
2.010000	63.910000	27.190000	776.000000	0.000000	130.000000	55.000000	156.000000	36.000000
2.020000	64.860000	27.610000	779.000000	0.000000	131.000000	55.000000	95.000000	42.000000
2.030000	65.300000	27.990000	799.000000	0.000000	132.000000	55.000000	44.000000	38.000000
2.040000	65.400000	28.330000	822.000000	0.000000	134.000000	55.000000	10.000000	34.000000
2.050000	65.070000	28.680000	836.000000	0.000000	135.000000	54.000000	-33.000000	35.000000
2.060000	64.170000	29.090000	828.000000	0.000000	136.000000	54.000000	-90.000000	41.000000
2.070000	62.900000	29.460000	806.000000	0.000000	137.000000	53.000000	-127.000000	37.000000
2.080000	60.870000	29.680000	770.000000	0.000000	137.000000	53.000000	-203.000000	22.000000
2.090000	58.270000	29.790000	767.000000	0.000000	139.000000	52.000000	-260.000000	11.000000
2.100000	55.280000	29.570000	767.000000	0.000000	139.000000	52.000000	-299.000000	-22.000000
2.110000	52.610000	28.780000	782.000000	0.000000	137.000000	52.000000	-267.000000	-79.000000
2.120000	51.220000	27.610000	776.000000	0.000000	137.000000	52.000000	-139.000000	-117.000000
2.130000	50.680000	26.820000	708.000000	0.000000	136.000000	51.000000	-54.000000	-79.000000
2.140000	51.440000	26.290000	529.000000	0.000000	135.000000	52.000000	76.000000	-53.000000
2.150000	51.440000	26.290000	0.000000	1.000000	133.000000	52.000000	0.000000	0.000000
2.160000	54.910000	26.380000	0.000000	0.000000	131.000000	52.000000	347.000000	9.000000
2.170000	57.010000	27.240000	0.000000	0.000000	129.000000	52.000000	210.000000	86.000000
2.180000	58.420000	28.370000	0.000000	0.000000	128.000000	53.000000	141.000000	113.000000
2.190000	59.380000	29.240000	0.000000	0.000000	128.000000	53.000000	96.000000	87.000000
2.200000	61.040000	30.160000	0.000000	0.000000	128.000000	53.000000	166.000000	92.000000
2.210000	62.490000	31.120000	0.000000	0.000000	129.000000	52.000000	145.000000	96.000000
