t	x	y	pressure	penup	azimuth	inclination	v_x	v_y
0.000000	18.540000	77.450000	173.000000	1.000000	148.000000	56.000000	0.000000	0.000000
0.010000	18.840000	77.030000	211.000000	0.000000	149.000000	56.000000	30.000000	-42.000000
0.020000	19.040000	76.980000	309.000000	0.000000	150.000000	57.000000	20.000000	-5.000000
0.030000	19.280000	76.980000	428.000000	0.000000	151.000000	58.000000	24.000000	0.000000
0.040000	19.740000	76.980000	495.000000	0.000000	150.000000	58.000000	46.000000	0.000000
0.050000	20.490000	77.050000	577.000000	0.000000	152.000000	59.000000	75.000000	7.000000
0.060000	21.440000	77.320000	602.000000	0.000000	152.000000	59.000000	95.000000	27.000000
0.070000	22.480000	77.710000	664.000000	0.000000	152.000000	59.000000	104.000000	39.000000
0.080000	23.520000	78.370000	717.000000	0.000000	152.000000	59.000000	104.000000	66.000000
0.090000	24.730000	79.340000	727.000000	0.000000	154.000000	58.000000	121.000000	97.000000
0.100000	26.060000	80.520000	743.000000	0.000000	154.000000	58.000000	133.000000	118.000000
0.110000	27.200000	81.670000	757.000000	0.000000	155.000000	58.000000	114.000000	115.000000
0.120000	27.740000	82.430000	767.000000	0.000000	157.000000	58.000000	54.000000	76.000000
0.130000	27.890000	82.940000	777.000000	0.000000	159.000000	57.000000	15.000000	51.000000
0.140000	27.460000	83.120000	777.000000	0.000000	159.000000	57.000000	-43.000000	18.000000
0.150000	26.540000	83.020000	768.000000	0.000000	161.000000	57.000000	-92.000000	-10.000000
0.160000	25.300000	82.740000	768.000000	0.000000	161.000000	57.000000	-124.000000	-28.000000
0.170000	23.870000	82.160000	771.000000	0.000000	161.000000	57.000000	-143.000000	-58.000000
0.180000	22.450000	81.420000	787.000000	0.000000	161.000000	57.000000	-142.000000	-74.000000
0.190000	21.510000	80.570000	790.000000	0.000000	161.000000	57.000000	-94.000000	-85.000000
0.200000	20.900000	79.840000	790.000000	0.000000	161.000000	57.000000	-61.000000	-73.000000
0.210000	21.240000	79.270000	787.000000	0.000000	158.000000	58.000000	34.000000	-57.000000
0.220000	22.260000	78.800000	808.000000	0.000000	158.000000	58.000000	102.000000	-47.000000
0.230000	23.720000	78.360000	823.000000	0.000000	158.000000	58.000000	146.000000	-44.000000
0.240000	25.720000	78.140000	832.000000	0.000000	157.000000	58.000000	200.000000	-22.000000
0.250000	27.830000	78.070000	821.000000	0.000000	157.000000	58.000000	211.000000	-7.000000
0.260000	30.000000	78.070000	822.000000	0.000000	157.000000	58.000000	217.000000	0.000000
0.270000	31.430000	78.200000	822.000000	0.000000	157.000000	58.000000	143.000000	13.000000
0.280000	32.050000	78.380000	860.000000	0.000000	157.000000	58.000000	62.000000	18.000000
0.290000	32.120000	78.460000	854.000000	0.000000	157.000000	58.000000	7.000000	8.000000
0.300000	31.440000	78.760000	867.000000	0.000000	157.000000	57.000000	-68.000000	30.000000
0.310000	30.050000	79.200000	851.000000	0.000000	157.000000	57.000000	-139.000000	44.000000
0.320000	28.180000	79.200000	855.000000	0.000000	157.000000	57.000000	-187.000000	0.000000
0.330000	25.420000	78.870000	854.000000	0.000000	158.000000	56.000000	-276.000000	-33.000000
0.340000	22.230000	78.260000	867.000000	0.000000	160.000000	56.000000	-319.000000	-61.000000
0.350000	18.760000	77.500000	887.000000	0.000000	160.000000	56.000000	-347.000000	-76.000000
0.360000	15.580000	76.730000	921.000000	0.000000	159.000000	57.000000	-318.000000	-77.000000
0.370000	13.210000	76.110000	937.000000	0.000000	159.000000	57.000000	-237.000000	-62.000000
0.380000	11.390000	75.580000	983.000000	0.000000	159.000000	57.000000	-182.000000	-53.000000
0.390000	10.660000	75.460000	978.000000	0.000000	158.000000	58.000000	-73.000000	-12.000000
0.400000	10.790000	75.460000	977.000000	0.000000	158.000000	58.000000	13.000000	0.000000
0.410000	11.490000	75.460000	996.000000	0.000000	156.000000	59.000000	70.000000	0.000000
0.420000	12.940000	75.410000	1023.000000	0.000000	156.000000	59.000000	145.000000	-5.000000
0.430000	15.410000	75.630000	1023.000000	0.000000	156.000000	59.000000	247.000000	22.000000
0.440000	18.570000	76.020000	1023.000000	0.000000	156.000000	59.000000	316.000000	39.000000
0.450000	22.740000	76.940000	1023.000000	0.000000	157.000000	59.000000	417.000000	92.000000
0.460000	27.530000	78.200000	1023.000000	0.000000	157.000000	59.000000	479.000000	126.000000
0.470000	32.740000	79.700000	1023.000000	0.000000	159.000000	59.000000	521.000000	150.000000
0.480000	37.370000	81.100000	1023.000000	0.000000	161.000000	59.000000	463.000000	140.000000
0.490000	41.040000	81.940000	854.000000	0.000000	161.000000	59.000000	367.000000	84.000000
0.500000	44.060000	82.400000	299.000000	0.000000	164.000000	58.000000	302.000000	46.000000
0.510000	44.060000	82.400000	0.000000	1.000000	164.000000	58.000000	0.000000	0.000000
0.520000	46.870000	83.030000	0.000000	0.000000	165.000000	58.000000	281.000000	63.000000
0.530000	46.870000	83.100000	0.000000	0.000000	166.000000	57.000000	0.000000	7.000000
0.540000	45.830000	83.020000	0.000000	0.000000	166.000000	57.000000	-104.000000	-8.000000
0.550000	44.120000	82.680000	0.000000	0.000000	166.000000	57.000000	-171.000000	-34.000000
0.560000	41.970000	82.190000	0.000000	0.000000	164.000000	57.000000	-215.000000	-49.000000
0.570000	39.890000	81.600000	0.000000	0.000000	162.000000	58.000000	-208.000000	-59.000000
0.580000	37.700000	81.150000	0.000000	0.000000	161.000000	57.000000	-219.000000	-45.000000
0.590000	35.440000	80.750000	0.000000	0.000000	158.000000	58.000000	-226.000000	-40.000000
0.600000	33.610000	80.390000	0.000000	0.000000	156.000000	59.000000	-183.000000	-36.000000
0.610000	31.920000	80.030000	0.000000	0.000000	152.000000	60.000000	-169.000000	-36.000000
0.620000	30.310000	79.590000	0.000000	0.000000	149.000000	59.000000	-161.000000	-44.000000
0.630000	28.930000	79.160000	0.000000	0.000000	147.000000	59.000000	-138.000000	-43.000000
0.640000	27.700000	78.770000	0.000000	0.000000	146.000000	57.000000	-123.000000	-39.000000
0.650000	26.560000	78.500000	0.000000	0.000000	145.000000	56.000000	-114.000000	-27.000000
0.660000	25.680000	78.400000	0.000000	0.000000	146.000000	55.000000	-88.000000	-10.000000
0.670000	24.820000	78.400000	0.000000	0.000000	147.000000	55.000000	-86.000000	0.000000
0.680000	24.010000	78.600000	0.000000	0.000000	149.000000	53.000000	-81.000000	20.000000
0.690000	23.290000	78.800000	0.000000	0.000000	150.000000	52.000000	-72.000000	20.000000
0.700000	22.630000	79.010000	0.000000	0.000000	153.000000	52.000000	-66.000000	21.000000
0.710000	21.990000	79.120000	0.000000	0.000000	153.000000	53.000000	-64.000000	11.000000
0.720000	21.600000	79.220000	0.000000	0.000000	153.000000	54.000000	-39.000000	10.000000
0.730000	21.370000	79.300000	0.000000	0.000000	154.000000	55.000000	-23.000000	8.000000
0.740000	21.200000	79.390000	0.000000	0.000000	154.000000	55.000000	-17.000000	9.000000
0.750000	21.090000	79.460000	0.000000	0.000000	153.000000	56.000000	-11.000000	7.000000
0.760000	21.020000	79.520000	0.000000	0.000000	151.000000	56.000000	-7.000000	6.000000
0.770000	20.900000	79.680000	0.000000	0.000000	150.000000	57.000000	-12.000000	16.000000
0.780000	20.800000	79.900000	0.000000	0.000000	147.000000	58.000000	-10.000000	22.000000
0.790000	20.720000	80.220000	0.000000	0.000000	147.000000	58.000000	-8.000000	32.000000
0.800000	20.720000	80.590000	0.000000	0.000000	146.000000	58.000000	0.000000	37.000000
0.810000	20.860000	81.000000	0.000000	0.000000	146.000000	58.000000	14.000000	41.000000
0.820000	21.070000	81.490000	0.000000	0.000000	144.000000	58.000000	21.000000	49.000000
0.830000	21.320000	81.960000	0.000000	0.000000	144.000000	58.000000	25.000000	47.000000
0.840000	21.320000	81.960000	144.000000	1.000000	144.000000	58.000000	0.000000	0.000000
0.850000	21.660000	82.890000	275.000000	0.000000	143.000000	57.000000	34.000000	93.000000
0.860000	21.610000	83.260000	423.000000	0.000000	146.000000	57.000000	-5.000000	37.000000
0.870000	21.530000	83.570000	561.000000	0.000000	147.000000	56.000000	-8.000000	31.000000
0.880000	21.440000	83.570000	616.000000	0.000000	147.000000	56.000000	-9.000000	0.000000
0.890000	21.440000	83.570000	640.000000	0.000000	148.000000	56.000000	0.000000	0.000000
0.900000	21.330000	83.280000	661.000000	0.000000	148.000000	56.000000	-11.000000	-29.000000
0.910000	21.160000	82.810000	688.000000	0.000000	149.000000	55.000000	-17.000000	-47.000000
0.920000	20.940000	81.930000	703.000000	0.000000	149.000000	55.000000	-22.000000	-88.000000
0.930000	20.820000	80.810000	713.000000	0.000000	149.000000	55.000000	-12.000000	-112.000000
0.940000	20.740000	79.520000	725.000000	0.000000	148.000000	56.000000	-8.000000	-129.000000
0.950000	20.860000	78.370000	733.000000	0.000000	148.000000	56.000000	12.000000	-115.000000
0.960000	21.110000	77.620000	730.000000	0.000000	148.000000	56.000000	25.000000	-75.000000
0.970000	21.520000	77.130000	743.000000	0.000000	147.000000	56.000000	41.000000	-49.000000
0.980000	22.050000	77.050000	791.000000	0.000000	147.000000	56.000000	53.000000	-8.000000
0.990000	22.650000	77.420000	824.000000	0.000000	145.000000	56.000000	60.000000	37.000000
1.000000	23.190000	78.100000	863.000000	0.000000	145.000000	56.000000	54.000000	68.000000
1.010000	23.730000	79.220000	872.000000	0.000000	145.000000	56.000000	54.000000	112.000000
1.020000	24.130000	80.410000	884.000000	0.000000	145.000000	56.000000	40.000000	119.000000
1.030000	24.420000	81.650000	905.000000	0.000000	145.000000	56.000000	29.000000	124.000000
1.040000	24.420000	82.440000	942.000000	0.000000	146.000000	55.000000	0.000000	79.000000
1.050000	24.420000	82.850000	986.000000	0.000000	146.000000	55.000000	0.000000	41.000000
1.060000	24.420000	83.000000	988.000000	0.000000	148.000000	56.000000	0.000000	15.000000
1.070000	24.420000	82.940000	991.000000	0.000000	148.000000	56.000000	0.000000	-6.000000
1.080000	24.180000	82.500000	986.000000	0.000000	149.000000	55.000000	-24.000000	-44.000000
1.090000	23.850000	81.820000	992.000000	0.000000	148.000000	56.000000	-33.000000	-68.000000
1.100000	23.470000	80.870000	991.000000	0.000000	148.000000	56.000000	-38.000000	-95.000000
1.110000	23.360000	79.930000	986.000000	0.000000	148.000000	56.000000	-11.000000	-94.000000
1.120000	23.430000	79.050000	983.000000	0.000000	148.000000	56.000000	7.000000	-88.000000
1.130000	23.740000	78.560000	982.000000	0.000000	146.000000	55.000000	31.000000	-49.000000
1.140000	24.050000	78.280000	983.000000	0.000000	145.000000	56.000000	31.000000	-28.000000
1.150000	24.520000	78.280000	994.000000	0.000000	145.000000	56.000000	47.000000	0.000000
1.160000	25.100000	78.740000	987.000000	0.000000	145.000000	56.000000	58.000000	46.000000
1.170000	25.790000	79.440000	991.000000	0.000000	145.000000	56.000000	69.000000	70.000000
1.180000	26.490000	80.560000	999.000000	0.000000	147.000000	56.000000	70.000000	112.000000
1.190000	27.180000	81.780000	1009.000000	0.000000	147.000000	56.000000	69.000000	122.000000
1.200000	27.700000	83.070000	1017.000000	0.000000	148.000000	57.000000	52.000000	129.000000
1.210000	28.110000	84.020000	1023.000000	0.000000	150.000000	57.000000	41.000000	95.000000
1.220000	28.110000	84.560000	1023.000000	0.000000	150.000000	57.000000	0.000000	54.000000
1.230000	28.110000	84.820000	1023.000000	0.000000	152.000000	57.000000	0.000000	26.000000
1.240000	28.110000	84.820000	1023.000000	0.000000	152.000000	57.000000	0.000000	0.000000
1.250000	28.060000	84.510000	1023.000000	0.000000	154.000000	57.000000	-5.000000	-31.000000
1.260000	27.800000	84.020000	1023.000000	0.000000	154.000000	57.000000	-26.000000	-49.000000
1.270000	27.380000	83.090000	1023.000000	0.000000	154.000000	57.000000	-42.000000	-93.000000
1.280000	27.120000	82.140000	1023.000000	0.000000	154.000000	57.000000	-26.000000	-95.000000
1.290000	26.840000	80.670000	1023.000000	0.000000	154.000000	57.000000	-28.000000	-147.000000
1.300000	26.550000	78.880000	1023.000000	0.000000	153.000000	58.000000	-29.000000	-179.000000
1.310000	26.190000	77.150000	1023.000000	0.000000	153.000000	58.000000	-36.000000	-173.000000
1.320000	25.920000	75.510000	1023.000000	0.000000	151.000000	58.000000	-27.000000	-164.000000
1.330000	25.720000	73.930000	1023.000000	0.000000	151.000000	58.000000	-20.000000	-158.000000
1.340000	25.840000	73.200000	1023.000000	0.000000	150.000000	57.000000	12.000000	-73.000000
1.350000	25.950000	72.870000	1023.000000	0.000000	150.000000	57.000000	11.000000	-33.000000
1.360000	26.040000	72.810000	1023.000000	0.000000	150.000000	57.000000	9.000000	-6.000000
1.370000	26.120000	72.920000	1023.000000	0.000000	150.000000	57.000000	8.000000	11.000000
1.380000	26.220000	73.440000	890.000000	0.000000	150.000000	57.000000	10.000000	52.000000
1.390000	26.390000	74.240000	545.000000	0.000000	151.000000	56.000000	17.000000	80.000000
1.400000	26.390000	74.240000	0.000000	1.000000	151.000000	56.000000	0.000000	0.000000
1.410000	26.320000	75.490000	0.000000	0.000000	152.000000	57.000000	-7.000000	125.000000
1.420000	26.070000	75.930000	0.000000	0.000000	152.000000	57.000000	-25.000000	44.000000
1.430000	25.760000	76.280000	0.000000	0.000000	152.000000	57.000000	-31.000000	35.000000
1.440000	25.400000	76.610000	0.000000	0.000000	154.000000	57.000000	-36.000000	33.000000
1.450000	25.070000	76.910000	0.000000	0.000000	154.000000	57.000000	-33.000000	30.000000
1.460000	24.770000	77.150000	0.000000	0.000000	154.000000	57.000000	-30.000000	24.000000
1.470000	24.550000	77.150000	0.000000	0.000000	154.000000	56.000000	-22.000000	0.000000
1.480000	24.270000	77.090000	0.000000	0.000000	154.000000	56.000000	-28.000000	-6.000000
1.490000	23.950000	76.790000	0.000000	0.000000	153.000000	56.000000	-32.000000	-30.000000
1.500000	23.950000	76.790000	203.000000	1.000000	153.000000	56.000000	0.000000	0.000000
1.510000	23.310000	75.900000	309.000000	0.000000	154.000000	55.000000	-64.000000	-89.000000
1.520000	23.200000	75.800000	394.000000	0.000000	152.000000	56.000000	-11.000000	-10.000000
1.530000	23.200000	75.800000	546.000000	0.000000	152.000000	56.000000	0.000000	0.000000
1.540000	23.360000	75.800000	705.000000	0.000000	152.000000	56.000000	16.000000	0.000000
1.550000	23.820000	75.920000	794.000000	0.000000	150.000000	55.000000	46.000000	12.000000
1.560000	24.490000	76.160000	872.000000	0.000000	150.000000	55.000000	67.000000	24.000000
1.570000	25.310000	76.490000	905.000000	0.000000	152.000000	56.000000	82.000000	33.000000
1.580000	26.150000	76.720000	909.000000	0.000000	152.000000	56.000000	84.000000	23.000000
1.590000	26.740000	76.910000	894.000000	0.000000	152.000000	56.000000	59.000000	19.000000
1.600000	27.150000	77.030000	790.000000	0.000000	152.000000	56.000000	41.000000	12.000000
1.610000	27.420000	77.080000	519.000000	0.000000	153.000000	56.000000	27.000000	5.000000
1.620000	27.420000	77.080000	0.000000	1.000000	153.000000	56.000000	0.000000	0.000000
1.630000	27.530000	76.930000	0.000000	0.000000	153.000000	56.000000	11.000000	-15.000000
1.640000	27.080000	76.680000	0.000000	0.000000	153.000000	56.000000	-45.000000	-25.000000
1.650000	26.500000	76.380000	0.000000	0.000000	153.000000	56.000000	-58.000000	-30.000000
1.660000	25.820000	76.120000	0.000000	0.000000	153.000000	56.000000	-68.000000	-26.000000
1.670000	25.350000	75.920000	0.000000	0.000000	153.000000	56.000000	-47.000000	-20.000000
1.680000	24.880000	75.750000	0.000000	0.000000	153.000000	56.000000	-47.000000	-17.000000
1.690000	24.880000	75.750000	275.000000	1.000000	153.000000	56.000000	0.000000	0.000000
1.700000	24.250000	75.270000	480.000000	0.000000	154.000000	55.000000	-63.000000	-48.000000
1.710000	24.080000	75.190000	585.000000	0.000000	154.000000	55.000000	-17.000000	-8.000000
1.720000	24.080000	75.190000	652.000000	0.000000	154.000000	55.000000	0.000000	0.000000
1.730000	24.140000	75.190000	734.000000	0.000000	154.000000	55.000000	6.000000	0.000000
1.740000	24.290000	75.190000	794.000000	0.000000	154.000000	55.000000	15.000000	0.000000
1.750000	24.730000	75.290000	787.000000	0.000000	152.000000	56.000000	44.000000	10.000000
1.760000	25.360000	75.570000	771.000000	0.000000	152.000000	56.000000	63.000000	28.000000
1.770000	26.060000	75.870000	668.000000	0.000000	153.000000	56.000000	70.000000	30.000000
1.780000	26.670000	76.180000	356.000000	0.000000	153.000000	56.000000	61.000000	31.000000
1.790000	26.670000	76.180000	0.000000	1.000000	153.000000	56.000000	0.000000	0.000000
1.800000	27.470000	76.730000	0.000000	0.000000	153.000000	56.000000	80.000000	55.000000
1.810000	27.470000	77.010000	0.000000	0.000000	153.000000	56.000000	0.000000	28.000000
1.820000	27.380000	77.300000	0.000000	0.000000	153.000000	56.000000	-9.000000	29.000000
1.830000	27.230000	77.690000	0.000000	0.000000	153.000000	56.000000	-15.000000	39.000000
1.840000	27.230000	78.150000	0.000000	0.000000	154.000000	55.000000	0.000000	46.000000
1.850000	27.300000	78.660000	0.000000	0.000000	154.000000	55.000000	7.000000	51.000000
1.860000	27.430000	79.220000	0.000000	0.000000	153.000000	55.000000	13.000000	56.000000
1.870000	27.560000	79.700000	0.000000	0.000000	153.000000	55.000000	13.000000	48.000000
1.880000	27.680000	80.090000	0.000000	0.000000	151.000000	54.000000	12.000000	39.000000
1.890000	27.730000	80.240000	0.000000	0.000000	150.000000	55.000000	5.000000	15.000000
1.900000	27.730000	80.240000	0.000000	0.000000	152.000000	56.000000	0.000000	0.000000
1.910000	27.730000	80.240000	456.000000	1.000000	152.000000	56.000000	0.000000	0.000000
1.920000	27.730000	80.240000	581.000000	0.000000	151.000000	56.000000	0.000000	0.000000
1.930000	27.730000	80.240000	725.000000	0.000000	152.000000	57.000000	0.000000	0.000000
1.940000	27.500000	79.850000	805.000000	0.000000	151.000000	58.000000	-23.000000	-39.000000
1.950000	27.500000	79.470000	849.000000	0.000000	153.000000	58.000000	0.000000	-38.000000
1.960000	27.500000	78.960000	853.000000	0.000000	153.000000	58.000000	0.000000	-51.000000
1.970000	27.380000	78.340000	869.000000	0.000000	153.000000	58.000000	-12.000000	-62.000000
1.980000	27.380000	77.780000	846.000000	0.000000	153.000000	58.000000	0.000000	-56.000000
1.990000	27.380000	77.430000	760.000000	0.000000	154.000000	57.000000	0.000000	-35.000000
2.000000	27.570000	77.190000	641.000000	0.000000	152.000000	57.000000	19.000000	-24.000000
2.010000	27.760000	77.190000	458.000000	0.000000	152.000000	57.000000	19.000000	0.000000
2.020000	28.110000	77.580000	134.000000	0.000000	152.000000	57.000000	35.000000	39.000000
2.030000	28.110000	77.580000	0.000000	1.000000	151.000000	56.000000	0.000000	0.000000
2.040000	28.890000	78.710000	0.000000	0.000000	152.000000	57.000000	78.000000	113.000000
2.050000	28.890000	78.710000	54.000000	1.000000	152.000000	57.000000	0.000000	0.000000
2.060000	29.220000	79.450000	225.000000	0.000000	152.000000	57.000000	33.000000	74.000000
2.070000	29.220000	79.450000	430.000000	0.000000	154.000000	57.000000	0.000000	0.000000
2.080000	29.130000	79.390000	583.000000	0.000000	155.000000	58.000000	-9.000000	-6.000000
2.090000	29.080000	79.270000	734.000000	0.000000	155.000000	58.000000	-5.000000	-12.000000
2.100000	29.010000	79.080000	881.000000	0.000000	155.000000	58.000000	-7.000000	-19.000000
2.110000	28.960000	78.770000	908.000000	0.000000	155.000000	58.000000	-5.000000	-31.000000
2.120000	28.910000	78.390000	947.000000	0.000000	156.000000	57.000000	-5.000000	-38.000000
2.130000	28.850000	77.950000	937.000000	0.000000	156.000000	57.000000	-6.000000	-44.000000
2.140000	28.850000	77.620000	938.000000	0.000000	156.000000	57.000000	0.000000	-33.000000
2.150000	28.850000	77.370000	887.000000	0.000000	156.000000	57.000000	0.000000	-25.000000
2.160000	28.970000	77.230000	711.000000	0.000000	156.000000	57.000000	12.000000	-14.000000
2.170000	29.140000	77.230000	153.000000	0.000000	155.000000	58.000000	17.000000	0.000000
2.180000	29.140000	77.230000	0.000000	1.000000	155.000000	58.000000	0.000000	0.000000
2.190000	29.330000	77.560000	0.000000	0.000000	154.000000	57.000000	19.000000	33.000000
2.200000	29.140000	77.680000	0.000000	0.000000	154.000000	57.000000	-19.000000	12.000000
