t	x	y	pressure	penup	azimuth	inclination	v_x	v_y
0.000000	59.750000	62.390000	312.000000	1.000000	153.000000	54.000000	0.000000	0.000000
0.010000	59.600000	62.030000	336.000000	0.000000	155.000000	54.000000	-15.000000	-36.000000
0.020000	59.490000	61.930000	349.000000	0.000000	156.000000	55.000000	-11.000000	-10.000000
0.030000	59.590000	61.860000	392.000000	0.000000	158.000000	55.000000	10.000000	-7.000000
0.040000	59.820000	61.720000	442.000000	0.000000	159.000000	55.000000	23.000000	-14.000000
0.050000	60.310000	61.650000	527.000000	0.000000	160.000000	55.000000	49.000000	-7.000000
0.060000	61.250000	61.650000	600.000000	0.000000	160.000000	55.000000	94.000000	0.000000
0.070000	62.480000	61.970000	678.000000	0.000000	160.000000	55.000000	123.000000	32.000000
0.080000	64.340000	62.760000	700.000000	0.000000	162.000000	56.000000	186.000000	79.000000
0.090000	66.530000	63.850000	714.000000	0.000000	162.000000	56.000000	219.000000	109.000000
0.100000	68.950000	65.370000	707.000000	0.000000	162.000000	56.000000	242.000000	152.000000
0.110000	70.870000	66.890000	697.000000	0.000000	163.000000	56.000000	192.000000	152.000000
0.120000	71.890000	68.060000	710.000000	0.000000	165.000000	56.000000	102.000000	117.000000
0.130000	72.320000	68.990000	719.000000	0.000000	166.000000	56.000000	43.000000	93.000000
0.140000	71.840000	69.150000	717.000000	0.000000	170.000000	56.000000	-48.000000	16.000000
0.150000	70.790000	68.910000	691.000000	0.000000	171.000000	56.000000	-105.000000	-24.000000
0.160000	69.360000	68.410000	664.000000	0.000000	173.000000	56.000000	-143.000000	-50.000000
0.170000	67.440000	67.560000	663.000000	0.000000	173.000000	56.000000	-192.000000	-85.000000
0.180000	65.570000	66.590000	690.000000	0.000000	173.000000	56.000000	-187.000000	-97.000000
0.190000	64.210000	65.550000	730.000000	0.000000	173.000000	56.000000	-136.000000	-104.000000
0.200000	63.170000	64.650000	745.000000	0.000000	171.000000	57.000000	-104.000000	-90.000000
0.210000	62.830000	63.840000	760.000000	0.000000	169.000000	57.000000	-34.000000	-81.000000
0.220000	63.130000	63.100000	793.000000	0.000000	168.000000	56.000000	30.000000	-74.000000
0.230000	63.850000	62.280000	802.000000	0.000000	165.000000	56.000000	72.000000	-82.000000
0.240000	64.940000	61.480000	803.000000	0.000000	163.000000	56.000000	109.000000	-80.000000
0.250000	66.290000	60.850000	796.000000	0.000000	163.000000	56.000000	135.000000	-63.000000
0.260000	67.810000	60.330000	760.000000	0.000000	163.000000	56.000000	152.000000	-52.000000
0.270000	69.200000	60.160000	760.000000	0.000000	163.000000	56.000000	139.000000	-17.000000
0.280000	69.920000	60.280000	770.000000	0.000000	165.000000	56.000000	72.000000	12.000000
0.290000	70.180000	60.600000	788.000000	0.000000	166.000000	56.000000	26.000000	32.000000
0.300000	69.690000	61.080000	794.000000	0.000000	166.000000	56.000000	-49.000000	48.000000
0.310000	68.200000	61.530000	793.000000	0.000000	168.000000	56.000000	-149.000000	45.000000
0.320000	66.040000	61.950000	790.000000	0.000000	168.000000	56.000000	-216.000000	42.000000
0.330000	62.900000	62.020000	817.000000	0.000000	168.000000	56.000000	-314.000000	7.000000
0.340000	59.250000	62.020000	869.000000	0.000000	168.000000	56.000000	-365.000000	0.000000
0.350000	55.260000	62.020000	900.000000	0.000000	168.000000	56.000000	-399.000000	0.000000
0.360000	52.000000	61.970000	935.000000	0.000000	166.000000	56.000000	-326.000000	-5.000000
0.370000	49.420000	61.970000	950.000000	0.000000	166.000000	56.000000	-258.000000	0.000000
0.380000	47.300000	61.970000	955.000000	0.000000	165.000000	56.000000	-212.000000	0.000000
0.390000	46.210000	61.970000	974.000000	0.000000	163.000000	56.000000	-109.000000	0.000000
0.400000	46.080000	61.920000	977.000000	0.000000	162.000000	56.000000	-13.000000	-5.000000
0.410000	46.600000	61.920000	981.000000	0.000000	162.000000	56.000000	52.000000	0.000000
0.420000	48.160000	61.850000	1023.000000	0.000000	162.000000	56.000000	156.000000	-7.000000
0.430000	50.880000	62.020000	1023.000000	0.000000	160.000000	55.000000	272.000000	17.000000
0.440000	54.370000	62.340000	1023.000000	0.000000	160.000000	55.000000	349.000000	32.000000
0.450000	58.780000	62.950000	1023.000000	0.000000	162.000000	56.000000	441.000000	61.000000
0.460000	63.340000	63.490000	1023.000000	0.000000	162.000000	56.000000	456.000000	54.000000
0.470000	68.010000	63.980000	1023.000000	0.000000	163.000000	56.000000	467.000000	49.000000
0.480000	72.390000	64.280000	1023.000000	0.000000	165.000000	56.000000	438.000000	30.000000
0.490000	76.160000	64.560000	1023.000000	0.000000	168.000000	56.000000	377.000000	28.000000
0.500000	79.520000	64.850000	1023.000000	0.000000	169.000000	57.000000	336.000000	29.000000
0.510000	81.770000	65.150000	926.000000	0.000000	171.000000	57.000000	225.000000	30.000000
0.520000	82.970000	65.500000	696.000000	0.000000	172.000000	58.000000	120.000000	35.000000
0.530000	83.480000	65.870000	259.000000	0.000000	172.000000	58.000000	51.000000	37.000000
0.540000	83.480000	65.870000	0.000000	1.000000	172.000000	58.000000	0.000000	0.000000
0.550000	82.150000	65.970000	0.000000	0.000000	172.000000	59.000000	-133.000000	10.000000
0.560000	80.990000	65.860000	0.000000	0.000000	172.000000	59.000000	-116.000000	-11.000000
0.570000	79.700000	65.860000	0.000000	0.000000	172.000000	59.000000	-129.000000	0.000000
0.580000	78.400000	65.770000	0.000000	0.000000	170.000000	59.000000	-130.000000	-9.000000
0.590000	77.080000	65.720000	0.000000	0.000000	169.000000	58.000000	-132.000000	-5.000000
0.600000	76.140000	65.720000	0.000000	0.000000	169.000000	58.000000	-94.000000	0.000000
0.610000	75.220000	65.720000	0.000000	0.000000	169.000000	57.000000	-92.000000	0.000000
0.620000	74.300000	65.570000	0.000000	0.000000	168.000000	55.000000	-92.000000	-15.000000
0.630000	73.310000	65.390000	0.000000	0.000000	169.000000	54.000000	-99.000000	-18.000000
0.640000	72.300000	65.140000	0.000000	0.000000	167.000000	54.000000	-101.000000	-25.000000
0.650000	71.130000	64.900000	0.000000	0.000000	167.000000	54.000000	-117.000000	-24.000000
0.660000	69.840000	64.710000	0.000000	0.000000	166.000000	53.000000	-129.000000	-19.000000
0.670000	68.480000	64.560000	0.000000	0.000000	166.000000	53.000000	-136.000000	-15.000000
0.680000	66.980000	64.380000	0.000000	0.000000	166.000000	53.000000	-150.000000	-18.000000
0.690000	65.530000	64.220000	0.000000	0.000000	165.000000	53.000000	-145.000000	-16.000000
0.700000	64.140000	64.080000	0.000000	0.000000	164.000000	53.000000	-139.000000	-14.000000
0.710000	62.770000	63.810000	0.000000	0.000000	164.000000	53.000000	-137.000000	-27.000000
0.720000	61.410000	63.560000	0.000000	0.000000	162.000000	54.000000	-136.000000	-25.000000
0.730000	60.260000	63.310000	0.000000	0.000000	162.000000	54.000000	-115.000000	-25.000000
0.740000	59.240000	63.160000	0.000000	0.000000	160.000000	53.000000	-102.000000	-15.000000
0.750000	58.460000	63.070000	0.000000	0.000000	160.000000	53.000000	-78.000000	-9.000000
0.760000	58.030000	63.070000	0.000000	0.000000	160.000000	53.000000	-43.000000	0.000000
0.770000	57.820000	63.280000	0.000000	0.000000	159.000000	53.000000	-21.000000	21.000000
0.780000	57.820000	63.560000	0.000000	0.000000	159.000000	53.000000	0.000000	28.000000
0.790000	57.910000	63.880000	0.000000	0.000000	159.000000	53.000000	9.000000	32.000000
0.800000	58.130000	64.240000	0.000000	0.000000	159.000000	53.000000	22.000000	36.000000
0.810000	58.360000	64.640000	0.000000	0.000000	159.000000	53.000000	23.000000	40.000000
0.820000	58.600000	65.050000	0.000000	0.000000	159.000000	53.000000	24.000000	41.000000
0.830000	58.830000	65.450000	0.000000	0.000000	160.000000	53.000000	23.000000	40.000000
0.840000	59.040000	65.820000	0.000000	0.000000	160.000000	54.000000	21.000000	37.000000
0.850000	59.240000	66.160000	0.000000	0.000000	160.000000	54.000000	20.000000	34.000000
0.860000	59.460000	66.490000	0.000000	0.000000	161.000000	55.000000	22.000000	33.000000
0.870000	59.710000	66.840000	0.000000	0.000000	160.000000	55.000000	25.000000	35.000000
0.880000	59.710000	66.840000	108.000000	1.000000	160.000000	55.000000	0.000000	0.000000
0.890000	60.180000	67.380000	242.000000	0.000000	162.000000	56.000000	47.000000	54.000000
0.900000	60.240000	67.580000	407.000000	0.000000	162.000000	56.000000	6.000000	20.000000
0.910000	60.240000	67.640000	519.000000	0.000000	162.000000	56.000000	0.000000	6.000000
0.920000	60.240000	67.590000	591.000000	0.000000	161.000000	57.000000	0.000000	-5.000000
0.930000	60.130000	67.460000	691.000000	0.000000	161.000000	57.000000	-11.000000	-13.000000
0.940000	60.030000	67.080000	755.000000	0.000000	163.000000	57.000000	-10.000000	-38.000000
0.950000	59.890000	66.540000	783.000000	0.000000	163.000000	57.000000	-14.000000	-54.000000
0.960000	59.640000	65.740000	818.000000	0.000000	163.000000	57.000000	-25.000000	-80.000000
0.970000	59.320000	64.860000	830.000000	0.000000	163.000000	57.000000	-32.000000	-88.000000
0.980000	59.260000	63.920000	827.000000	0.000000	163.000000	57.000000	-6.000000	-94.000000
0.990000	59.490000	63.230000	852.000000	0.000000	163.000000	56.000000	23.000000	-69.000000
1.000000	59.920000	62.860000	861.000000	0.000000	162.000000	56.000000	43.000000	-37.000000
1.010000	60.500000	62.710000	866.000000	0.000000	162.000000	56.000000	58.000000	-15.000000
1.020000	61.130000	62.910000	897.000000	0.000000	162.000000	56.000000	63.000000	20.000000
1.030000	61.840000	63.480000	924.000000	0.000000	160.000000	55.000000	71.000000	57.000000
1.040000	62.580000	64.290000	944.000000	0.000000	161.000000	55.000000	74.000000	81.000000
1.050000	63.060000	65.250000	956.000000	0.000000	161.000000	55.000000	48.000000	96.000000
1.060000	63.330000	65.980000	994.000000	0.000000	159.000000	55.000000	27.000000	73.000000
1.070000	63.470000	66.550000	1023.000000	0.000000	159.000000	55.000000	14.000000	57.000000
1.080000	63.470000	66.750000	1023.000000	0.000000	159.000000	55.000000	0.000000	20.000000
1.090000	63.400000	66.750000	1023.000000	0.000000	158.000000	56.000000	-7.000000	0.000000
1.100000	63.340000	66.700000	1023.000000	0.000000	158.000000	56.000000	-6.000000	-5.000000
1.110000	63.070000	66.260000	1023.000000	0.000000	158.000000	56.000000	-27.000000	-44.000000
1.120000	62.730000	65.540000	1023.000000	0.000000	158.000000	56.000000	-34.000000	-72.000000
1.130000	62.340000	64.640000	1023.000000	0.000000	158.000000	56.000000	-39.000000	-90.000000
1.140000	62.340000	63.670000	1023.000000	0.000000	158.000000	56.000000	0.000000	-97.000000
1.150000	62.540000	62.980000	1023.000000	0.000000	158.000000	56.000000	20.000000	-69.000000
1.160000	62.860000	62.480000	1023.000000	0.000000	158.000000	56.000000	32.000000	-50.000000
1.170000	63.340000	62.240000	1023.000000	0.000000	158.000000	56.000000	48.000000	-24.000000
1.180000	63.960000	62.420000	1023.000000	0.000000	159.000000	55.000000	62.000000	18.000000
1.190000	64.660000	62.890000	1023.000000	0.000000	159.000000	55.000000	70.000000	47.000000
1.200000	65.290000	63.830000	1023.000000	0.000000	158.000000	55.000000	63.000000	94.000000
1.210000	65.870000	65.070000	1023.000000	0.000000	159.000000	55.000000	58.000000	124.000000
1.220000	66.410000	66.500000	1023.000000	0.000000	159.000000	55.000000	54.000000	143.000000
1.230000	66.870000	67.790000	1023.000000	0.000000	159.000000	55.000000	46.000000	129.000000
1.240000	66.970000	68.720000	1023.000000	0.000000	160.000000	55.000000	10.000000	93.000000
1.250000	66.820000	69.420000	1023.000000	0.000000	160.000000	55.000000	-15.000000	70.000000
1.260000	66.820000	69.420000	1023.000000	0.000000	160.000000	55.000000	0.000000	0.000000
1.270000	66.760000	69.160000	1023.000000	0.000000	162.000000	56.000000	-6.000000	-26.000000
1.280000	66.550000	68.670000	1023.000000	0.000000	162.000000	56.000000	-21.000000	-49.000000
1.290000	66.200000	67.750000	1023.000000	0.000000	162.000000	56.000000	-35.000000	-92.000000
1.300000	65.850000	66.610000	1023.000000	0.000000	162.000000	56.000000	-35.000000	-114.000000
1.310000	65.530000	65.330000	1023.000000	0.000000	162.000000	56.000000	-32.000000	-128.000000
1.320000	65.280000	63.700000	1023.000000	0.000000	162.000000	56.000000	-25.000000	-163.000000
1.330000	64.890000	61.880000	1023.000000	0.000000	162.000000	56.000000	-39.000000	-182.000000
1.340000	64.400000	59.930000	1023.000000	0.000000	161.000000	57.000000	-49.000000	-195.000000
1.350000	64.000000	57.710000	1023.000000	0.000000	160.000000	56.000000	-40.000000	-222.000000
1.360000	63.830000	56.060000	1023.000000	0.000000	159.000000	57.000000	-17.000000	-165.000000
1.370000	63.830000	54.790000	1023.000000	0.000000	159.000000	57.000000	0.000000	-127.000000
1.380000	64.020000	53.960000	1023.000000	0.000000	157.000000	57.000000	19.000000	-83.000000
1.390000	64.160000	53.700000	1023.000000	0.000000	157.000000	58.000000	14.000000	-26.000000
1.400000	64.240000	53.810000	996.000000	0.000000	157.000000	58.000000	8.000000	11.000000
1.410000	64.380000	54.490000	754.000000	0.000000	157.000000	58.000000	14.000000	68.000000
1.420000	64.530000	55.330000	148.000000	0.000000	155.000000	58.000000	15.000000	84.000000
1.430000	64.530000	55.330000	0.000000	1.000000	155.000000	58.000000	0.000000	0.000000
1.440000	64.400000	56.960000	0.000000	0.000000	155.000000	58.000000	-13.000000	163.000000
1.450000	64.120000	57.630000	0.000000	0.000000	155.000000	58.000000	-28.000000	67.000000
1.460000	63.870000	58.230000	0.000000	0.000000	155.000000	58.000000	-25.000000	60.000000
1.470000	63.680000	58.790000	0.000000	0.000000	155.000000	58.000000	-19.000000	56.000000
1.480000	63.520000	59.350000	0.000000	0.000000	155.000000	58.000000	-16.000000	56.000000
1.490000	63.250000	59.660000	0.000000	0.000000	155.000000	58.000000	-27.000000	31.000000
1.500000	62.900000	59.800000	0.000000	0.000000	155.000000	58.000000	-35.000000	14.000000
1.510000	62.460000	59.730000	0.000000	0.000000	155.000000	58.000000	-44.000000	-7.000000
1.520000	61.910000	59.630000	0.000000	0.000000	155.000000	58.000000	-55.000000	-10.000000
1.530000	61.280000	59.470000	0.000000	0.000000	156.000000	57.000000	-63.000000	-16.000000
1.540000	60.820000	59.320000	0.000000	0.000000	157.000000	57.000000	-46.000000	-15.000000
1.550000	60.820000	59.320000	241.000000	1.000000	157.000000	57.000000	0.000000	0.000000
1.560000	60.370000	59.260000	402.000000	0.000000	157.000000	57.000000	-45.000000	-6.000000
1.570000	60.370000	59.260000	526.000000	0.000000	160.000000	56.000000	0.000000	0.000000
1.580000	60.550000	59.260000	693.000000	0.000000	161.000000	57.000000	18.000000	0.000000
1.590000	60.870000	59.260000	817.000000	0.000000	161.000000	57.000000	32.000000	0.000000
1.600000	61.510000	59.370000	908.000000	0.000000	162.000000	56.000000	64.000000	11.000000
1.610000	62.510000	59.550000	935.000000	0.000000	162.000000	56.000000	100.000000	18.000000
1.620000	63.760000	59.720000	952.000000	0.000000	162.000000	56.000000	125.000000	17.000000
1.630000	64.840000	59.880000	944.000000	0.000000	163.000000	55.000000	108.000000	16.000000
1.640000	65.600000	59.990000	897.000000	0.000000	163.000000	55.000000	76.000000	11.000000
1.650000	66.150000	59.990000	797.000000	0.000000	163.000000	55.000000	55.000000	0.000000
1.660000	66.460000	59.990000	536.000000	0.000000	163.000000	55.000000	31.000000	0.000000
1.670000	66.460000	59.990000	36.000000	0.000000	163.000000	55.000000	0.000000	0.000000
1.680000	66.460000	59.990000	0.000000	1.000000	163.000000	55.000000	0.000000	0.000000
1.690000	65.520000	59.540000	0.000000	0.000000	163.000000	55.000000	-94.000000	-45.000000
1.700000	64.650000	59.290000	0.000000	0.000000	162.000000	56.000000	-87.000000	-25.000000
1.710000	63.660000	59.040000	0.000000	0.000000	162.000000	56.000000	-99.000000	-25.000000
1.720000	62.770000	58.820000	0.000000	0.000000	162.000000	56.000000	-89.000000	-22.000000
1.730000	62.210000	58.610000	0.000000	0.000000	160.000000	55.000000	-56.000000	-21.000000
1.740000	61.860000	58.400000	0.000000	0.000000	160.000000	56.000000	-35.000000	-21.000000
1.750000	61.860000	58.400000	450.000000	1.000000	160.000000	56.000000	0.000000	0.000000
1.760000	61.630000	58.080000	616.000000	0.000000	160.000000	56.000000	-23.000000	-32.000000
1.770000	61.630000	58.080000	777.000000	0.000000	160.000000	56.000000	0.000000	0.000000
1.780000	61.790000	58.010000	939.000000	0.000000	161.000000	57.000000	16.000000	-7.000000
1.790000	62.060000	57.960000	981.000000	0.000000	161.000000	57.000000	27.000000	-5.000000
1.800000	62.580000	58.020000	1011.000000	0.000000	161.000000	57.000000	52.000000	6.000000
1.810000	63.330000	58.160000	1005.000000	0.000000	161.000000	57.000000	75.000000	14.000000
1.820000	64.220000	58.400000	941.000000	0.000000	162.000000	56.000000	89.000000	24.000000
1.830000	64.830000	58.620000	765.000000	0.000000	162.000000	56.000000	61.000000	22.000000
1.840000	65.150000	58.860000	312.000000	0.000000	162.000000	56.000000	32.000000	24.000000
1.850000	65.150000	58.860000	0.000000	1.000000	162.000000	56.000000	0.000000	0.000000
1.860000	65.120000	59.160000	0.000000	0.000000	162.000000	56.000000	-3.000000	30.000000
1.870000	64.840000	59.510000	0.000000	0.000000	162.000000	56.000000	-28.000000	35.000000
1.880000	64.470000	60.070000	0.000000	0.000000	162.000000	56.000000	-37.000000	56.000000
1.890000	64.320000	60.780000	0.000000	0.000000	162.000000	56.000000	-15.000000	71.000000
1.900000	64.180000	61.700000	0.000000	0.000000	160.000000	55.000000	-14.000000	92.000000
1.910000	64.180000	62.690000	0.000000	0.000000	160.000000	55.000000	0.000000	99.000000
1.920000	64.180000	63.730000	0.000000	0.000000	160.000000	55.000000	0.000000	104.000000
1.930000	64.350000	64.710000	0.000000	0.000000	161.000000	55.000000	17.000000	98.000000
1.940000	64.510000	65.400000	0.000000	0.000000	160.000000	54.000000	16.000000	69.000000
1.950000	64.510000	65.890000	0.000000	0.000000	160.000000	53.000000	0.000000	49.000000
1.960000	64.420000	66.090000	0.000000	0.000000	160.000000	53.000000	-9.000000	20.000000
1.970000	64.490000	66.210000	0.000000	0.000000	160.000000	53.000000	7.000000	12.000000
1.980000	64.400000	66.270000	0.000000	0.000000	160.000000	53.000000	-9.000000	6.000000
1.990000	64.400000	66.210000	0.000000	0.000000	160.000000	53.000000	0.000000	-6.000000
2.000000	64.620000	66.120000	0.000000	0.000000	161.000000	55.000000	22.000000	-9.000000
2.010000	64.820000	65.950000	0.000000	0.000000	161.000000	55.000000	20.000000	-17.000000
2.020000	64.920000	65.690000	0.000000	0.000000	161.000000	55.000000	10.000000	-26.000000
2.030000	64.920000	65.350000	0.000000	0.000000	161.000000	55.000000	0.000000	-34.000000
2.040000	64.990000	65.000000	0.000000	0.000000	160.000000	54.000000	7.000000	-35.000000
2.050000	64.990000	64.660000	0.000000	0.000000	160.000000	54.000000	0.000000	-34.000000
2.060000	64.990000	64.360000	0.000000	0.000000	160.000000	54.000000	0.000000	-30.000000
2.070000	65.080000	64.230000	0.000000	0.000000	160.000000	53.000000	9.000000	-13.000000
2.080000	65.170000	64.230000	0.000000	0.000000	160.000000	53.000000	9.000000	0.000000
2.090000	65.280000	64.290000	0.000000	0.000000	161.000000	52.000000	11.000000	6.000000
2.100000	65.400000	64.460000	0.000000	0.000000	161.000000	52.000000	12.000000	17.000000
2.110000	65.500000	64.680000	0.000000	0.000000	161.000000	52.000000	10.000000	22.000000
2.120000	65.650000	64.910000	0.000000	0.000000	162.000000	52.000000	15.000000	23.000000
2.130000	65.840000	65.080000	0.000000	0.000000	162.000000	52.000000	19.000000	17.000000
2.140000	66.020000	65.150000	0.000000	0.000000	162.000000	53.000000	18.000000	7.000000
2.150000	66.020000	65.150000	418.000000	1.000000	162.000000	53.000000	0.000000	0.000000
2.160000	66.020000	65.150000	566.000000	0.000000	162.000000	53.000000	0.000000	0.000000
2.170000	66.020000	65.150000	672.000000	0.000000	162.000000	54.000000	0.000000	0.000000
2.180000	66.020000	65.150000	750.000000	0.000000	162.000000	54.000000	0.000000	0.000000
2.190000	66.090000	64.880000	829.000000	0.000000	161.000000	55.000000	7.000000	-27.000000
2.200000	66.030000	64.510000	857.000000	0.000000	161.000000	55.000000	-6.000000	-37.000000
