t	x	y	pressure	penup	azimuth	inclination	v_x	v_y
0.000000	25.090000	50.210000	61.000000	1.000000	135.000000	52.000000	0.000000	0.000000
0.010000	24.760000	51.530000	127.000000	0.000000	135.000000	52.000000	-33.000000	132.000000
0.020000	24.550000	51.800000	200.000000	0.000000	136.000000	51.000000	-21.000000	27.000000
0.030000	24.310000	51.870000	233.000000	0.000000	136.000000	50.000000	-24.000000	7.000000
0.040000	24.100000	51.810000	259.000000	0.000000	136.000000	50.000000	-21.000000	-6.000000
0.050000	23.890000	51.460000	302.000000	0.000000	137.000000	50.000000	-21.000000	-35.000000
0.060000	23.630000	50.730000	344.000000	0.000000	136.000000	49.000000	-26.000000	-73.000000
0.070000	23.340000	49.740000	381.000000	0.000000	136.000000	49.000000	-29.000000	-99.000000
0.080000	23.090000	48.360000	449.000000	0.000000	136.000000	49.000000	-25.000000	-138.000000
0.090000	22.840000	46.930000	492.000000	0.000000	135.000000	49.000000	-25.000000	-143.000000
0.100000	22.840000	45.730000	519.000000	0.000000	136.000000	49.000000	0.000000	-120.000000
0.110000	23.100000	44.700000	519.000000	0.000000	135.000000	50.000000	26.000000	-103.000000
0.120000	23.360000	43.930000	526.000000	0.000000	134.000000	50.000000	26.000000	-77.000000
0.130000	23.830000	43.560000	538.000000	0.000000	133.000000	51.000000	47.000000	-37.000000
0.140000	24.430000	43.470000	535.000000	0.000000	133.000000	52.000000	60.000000	-9.000000
0.150000	25.200000	44.120000	513.000000	0.000000	133.000000	52.000000	77.000000	65.000000
0.160000	26.110000	45.300000	477.000000	0.000000	131.000000	52.000000	91.000000	118.000000
0.170000	27.110000	46.830000	473.000000	0.000000	133.000000	53.000000	100.000000	153.000000
0.180000	28.040000	48.510000	466.000000	0.000000	134.000000	54.000000	93.000000	168.000000
0.190000	28.790000	50.170000	448.000000	0.000000	135.000000	54.000000	75.000000	166.000000
0.200000	29.430000	50.960000	458.000000	0.000000	137.000000	54.000000	64.000000	79.000000
0.210000	29.430000	51.170000	475.000000	0.000000	140.000000	54.000000	0.000000	21.000000
0.220000	29.040000	50.710000	491.000000	0.000000	141.000000	55.000000	-39.000000	-46.000000
0.230000	28.410000	49.910000	501.000000	0.000000	144.000000	54.000000	-63.000000	-80.000000
0.240000	27.520000	48.880000	522.000000	0.000000	145.000000	54.000000	-89.000000	-103.000000
0.250000	26.670000	47.680000	543.000000	0.000000	146.000000	53.000000	-85.000000	-120.000000
0.260000	26.280000	46.790000	553.000000	0.000000	146.000000	53.000000	-39.000000	-89.000000
0.270000	26.170000	46.110000	553.000000	0.000000	146.000000	53.000000	-11.000000	-68.000000
0.280000	26.450000	45.580000	536.000000	0.000000	145.000000	54.000000	28.000000	-53.000000
0.290000	27.000000	45.340000	522.000000	0.000000	144.000000	54.000000	55.000000	-24.000000
0.300000	27.720000	45.290000	478.000000	0.000000	141.000000	55.000000	72.000000	-5.000000
0.310000	28.660000	45.940000	412.000000	0.000000	140.000000	55.000000	94.000000	65.000000
0.320000	29.650000	47.130000	369.000000	0.000000	139.000000	55.000000	99.000000	119.000000
0.330000	30.710000	48.690000	374.000000	0.000000	139.000000	55.000000	106.000000	156.000000
0.340000	31.390000	50.240000	450.000000	0.000000	140.000000	55.000000	68.000000	155.000000
0.350000	31.820000	50.630000	536.000000	0.000000	140.000000	55.000000	43.000000	39.000000
0.360000	31.360000	50.250000	602.000000	0.000000	141.000000	55.000000	-46.000000	-38.000000
0.370000	30.410000	49.150000	655.000000	0.000000	144.000000	54.000000	-95.000000	-110.000000
0.380000	29.130000	47.350000	727.000000	0.000000	145.000000	54.000000	-128.000000	-180.000000
0.390000	27.790000	45.090000	767.000000	0.000000	146.000000	54.000000	-134.000000	-226.000000
0.400000	26.790000	42.760000	799.000000	0.000000	147.000000	53.000000	-100.000000	-233.000000
0.410000	26.020000	40.590000	814.000000	0.000000	147.000000	53.000000	-77.000000	-217.000000
0.420000	25.450000	38.530000	821.000000	0.000000	146.000000	54.000000	-57.000000	-206.000000
0.430000	25.140000	36.880000	826.000000	0.000000	145.000000	55.000000	-31.000000	-165.000000
0.440000	25.010000	36.000000	820.000000	0.000000	143.000000	55.000000	-13.000000	-88.000000
0.450000	25.140000	35.630000	796.000000	0.000000	141.000000	56.000000	13.000000	-37.000000
0.460000	25.300000	35.630000	727.000000	0.000000	140.000000	56.000000	16.000000	0.000000
0.470000	25.490000	36.280000	570.000000	0.000000	139.000000	56.000000	19.000000	65.000000
0.480000	26.110000	37.280000	314.000000	0.000000	138.000000	57.000000	62.000000	100.000000
0.490000	26.110000	37.280000	0.000000	1.000000	138.000000	57.000000	0.000000	0.000000
0.500000	27.070000	38.600000	0.000000	0.000000	138.000000	57.000000	96.000000	132.000000
0.510000	27.210000	38.710000	0.000000	0.000000	138.000000	57.000000	14.000000	11.000000
0.520000	27.120000	38.710000	0.000000	0.000000	138.000000	57.000000	-9.000000	0.000000
0.530000	26.910000	38.710000	0.000000	0.000000	138.000000	57.000000	-21.000000	0.000000
0.540000	26.630000	39.000000	0.000000	0.000000	138.000000	57.000000	-28.000000	29.000000
0.550000	26.490000	39.580000	0.000000	0.000000	136.000000	56.000000	-14.000000	58.000000
0.560000	26.490000	40.170000	0.000000	0.000000	136.000000	56.000000	0.000000	59.000000
0.570000	26.690000	40.800000	0.000000	0.000000	134.000000	55.000000	20.000000	63.000000
0.580000	26.800000	41.470000	0.000000	0.000000	130.000000	53.000000	11.000000	67.000000
0.590000	26.710000	41.360000	0.000000	0.000000	127.000000	51.000000	-9.000000	-11.000000
0.600000	26.490000	41.360000	0.000000	0.000000	124.000000	49.000000	-22.000000	0.000000
0.610000	26.160000	41.360000	0.000000	0.000000	121.000000	46.000000	-33.000000	0.000000
0.620000	25.710000	41.230000	0.000000	0.000000	120.000000	44.000000	-45.000000	-13.000000
0.630000	25.180000	41.080000	0.000000	0.000000	121.000000	44.000000	-53.000000	-15.000000
0.640000	24.660000	40.930000	0.000000	0.000000	121.000000	44.000000	-52.000000	-15.000000
0.650000	24.070000	40.860000	0.000000	0.000000	124.000000	47.000000	-59.000000	-7.000000
0.660000	23.440000	40.910000	0.000000	0.000000	128.000000	49.000000	-63.000000	5.000000
0.670000	22.980000	41.050000	0.000000	0.000000	132.000000	51.000000	-46.000000	14.000000
0.680000	22.810000	41.250000	0.000000	0.000000	134.000000	54.000000	-17.000000	20.000000
0.690000	22.810000	41.250000	0.000000	0.000000	138.000000	55.000000	0.000000	0.000000
0.700000	22.860000	41.150000	0.000000	0.000000	139.000000	56.000000	5.000000	-10.000000
0.710000	22.970000	40.950000	0.000000	0.000000	142.000000	57.000000	11.000000	-20.000000
0.720000	23.180000	40.740000	0.000000	0.000000	142.000000	57.000000	21.000000	-21.000000
0.730000	23.500000	40.680000	0.000000	0.000000	140.000000	56.000000	32.000000	-6.000000
0.740000	23.940000	40.730000	0.000000	0.000000	139.000000	56.000000	44.000000	5.000000
0.750000	24.460000	41.110000	0.000000	0.000000	139.000000	56.000000	52.000000	38.000000
0.760000	25.010000	41.560000	0.000000	0.000000	139.000000	55.000000	55.000000	45.000000
0.770000	24.890000	42.050000	0.000000	0.000000	139.000000	55.000000	-12.000000	49.000000
0.780000	24.310000	41.950000	0.000000	0.000000	141.000000	55.000000	-58.000000	-10.000000
0.790000	24.010000	41.840000	0.000000	0.000000	142.000000	54.000000	-30.000000	-11.000000
0.800000	23.920000	41.720000	0.000000	0.000000	144.000000	54.000000	-9.000000	-12.000000
0.810000	23.920000	41.720000	0.000000	0.000000	145.000000	54.000000	0.000000	0.000000
0.820000	24.020000	41.780000	0.000000	0.000000	146.000000	54.000000	10.000000	6.000000
0.830000	24.110000	41.940000	0.000000	0.000000	148.000000	54.000000	9.000000	16.000000
0.840000	24.260000	42.160000	0.000000	0.000000	148.000000	54.000000	15.000000	22.000000
0.850000	24.430000	42.430000	0.000000	0.000000	149.000000	53.000000	17.000000	27.000000
0.860000	24.680000	42.670000	0.000000	0.000000	149.000000	53.000000	25.000000	24.000000
0.870000	25.050000	42.890000	0.000000	0.000000	149.000000	53.000000	37.000000	22.000000
0.880000	25.460000	43.100000	0.000000	0.000000	149.000000	53.000000	41.000000	21.000000
0.890000	25.870000	43.300000	0.000000	0.000000	151.000000	53.000000	41.000000	20.000000
0.900000	26.240000	43.450000	0.000000	0.000000	153.000000	53.000000	37.000000	15.000000
0.910000	26.540000	43.600000	0.000000	0.000000	153.000000	53.000000	30.000000	15.000000
0.920000	26.780000	43.750000	0.000000	0.000000	153.000000	53.000000	24.000000	15.000000
0.930000	26.980000	43.910000	0.000000	0.000000	153.000000	53.000000	20.000000	16.000000
0.940000	27.170000	44.060000	0.000000	0.000000	153.000000	52.000000	19.000000	15.000000
0.950000	27.370000	44.160000	0.000000	0.000000	151.000000	51.000000	20.000000	10.000000
0.960000	27.440000	44.160000	0.000000	0.000000	150.000000	51.000000	7.000000	0.000000
0.970000	27.440000	44.110000	0.000000	0.000000	148.000000	50.000000	0.000000	-5.000000
0.980000	27.300000	43.940000	0.000000	0.000000	146.000000	50.000000	-14.000000	-17.000000
0.990000	27.180000	43.790000	0.000000	0.000000	145.000000	50.000000	-12.000000	-15.000000
1.000000	27.070000	43.660000	0.000000	0.000000	145.000000	50.000000	-11.000000	-13.000000
1.010000	26.960000	43.660000	0.000000	0.000000	145.000000	50.000000	-11.000000	0.000000
1.020000	26.890000	43.730000	0.000000	0.000000	145.000000	50.000000	-7.000000	7.000000
1.030000	26.890000	43.840000	0.000000	0.000000	145.000000	50.000000	0.000000	11.000000
1.040000	26.890000	43.910000	0.000000	0.000000	145.000000	50.000000	0.000000	7.000000
1.050000	26.890000	43.960000	0.000000	0.000000	145.000000	50.000000	0.000000	5.000000
1.060000	26.820000	43.960000	0.000000	0.000000	145.000000	50.000000	-7.000000	0.000000
1.070000	26.730000	43.960000	0.000000	0.000000	145.000000	50.000000	-9.000000	0.000000
1.080000	26.650000	43.880000	0.000000	0.000000	145.000000	50.000000	-8.000000	-8.000000
1.090000	26.550000	43.880000	0.000000	0.000000	145.000000	50.000000	-10.000000	0.000000
1.100000	26.430000	43.830000	0.000000	0.000000	146.000000	50.000000	-12.000000	-5.000000
1.110000	26.340000	43.920000	0.000000	0.000000	148.000000	50.000000	-9.000000	9.000000
1.120000	26.280000	44.060000	0.000000	0.000000	149.000000	51.000000	-6.000000	14.000000
1.130000	26.280000	44.190000	0.000000	0.000000	150.000000	51.000000	0.000000	13.000000
1.140000	26.280000	44.300000	0.000000	0.000000	151.000000	51.000000	0.000000	11.000000
1.150000	26.280000	44.410000	0.000000	0.000000	154.000000	52.000000	0.000000	11.000000
1.160000	26.280000	44.410000	0.000000	0.000000	155.000000	52.000000	0.000000	0.000000
1.170000	26.280000	44.410000	0.000000	0.000000	156.000000	53.000000	0.000000	0.000000
1.180000	26.220000	44.410000	0.000000	0.000000	156.000000	53.000000	-6.000000	0.000000
1.190000	26.220000	44.410000	0.000000	0.000000	158.000000	53.000000	0.000000	0.000000
1.200000	26.140000	44.410000	0.000000	0.000000	156.000000	53.000000	-8.000000	0.000000
1.210000	26.090000	44.410000	0.000000	0.000000	156.000000	53.000000	-5.000000	0.000000
1.220000	26.040000	44.410000	0.000000	0.000000	156.000000	53.000000	-5.000000	0.000000
1.230000	26.040000	44.410000	0.000000	0.000000	156.000000	53.000000	0.000000	0.000000
1.240000	26.040000	44.460000	0.000000	0.000000	154.000000	53.000000	0.000000	5.000000
1.250000	26.140000	44.460000	0.000000	0.000000	154.000000	53.000000	10.000000	0.000000
1.260000	26.190000	44.460000	0.000000	0.000000	154.000000	53.000000	5.000000	0.000000
1.270000	26.190000	44.460000	0.000000	0.000000	153.000000	54.000000	0.000000	0.000000
1.280000	26.240000	44.460000	0.000000	0.000000	153.000000	54.000000	5.000000	0.000000
1.290000	26.290000	44.530000	0.000000	0.000000	153.000000	54.000000	5.000000	7.000000
1.300000	26.350000	44.530000	0.000000	0.000000	153.000000	54.000000	6.000000	0.000000
1.310000	26.420000	44.610000	0.000000	0.000000	153.000000	54.000000	7.000000	8.000000
1.320000	26.490000	44.670000	0.000000	0.000000	153.000000	54.000000	7.000000	6.000000
1.330000	26.580000	44.740000	0.000000	0.000000	153.000000	54.000000	9.000000	7.000000
1.340000	26.690000	44.740000	0.000000	0.000000	152.000000	54.000000	11.000000	0.000000
1.350000	26.760000	44.740000	0.000000	0.000000	152.000000	54.000000	7.000000	0.000000
1.360000	26.810000	44.790000	0.000000	0.000000	151.000000	53.000000	5.000000	5.000000
1.370000	26.810000	44.790000	0.000000	0.000000	149.000000	53.000000	0.000000	0.000000
1.380000	26.730000	44.790000	0.000000	0.000000	149.000000	53.000000	-8.000000	0.000000
1.390000	26.730000	44.790000	0.000000	0.000000	148.000000	53.000000	0.000000	0.000000
1.400000	26.640000	44.870000	0.000000	0.000000	148.000000	53.000000	-9.000000	8.000000
1.410000	26.560000	44.870000	0.000000	0.000000	147.000000	52.000000	-8.000000	0.000000
1.420000	26.560000	44.930000	0.000000	0.000000	148.000000	53.000000	0.000000	6.000000
1.430000	26.560000	44.930000	0.000000	0.000000	148.000000	53.000000	0.000000	0.000000
1.440000	26.560000	44.930000	0.000000	0.000000	149.000000	53.000000	0.000000	0.000000
1.450000	26.630000	44.930000	0.000000	0.000000	149.000000	53.000000	7.000000	0.000000
1.460000	26.630000	44.860000	0.000000	0.000000	149.000000	53.000000	0.000000	-7.000000
1.470000	26.630000	44.800000	0.000000	0.000000	149.000000	53.000000	0.000000	-6.000000
1.480000	26.570000	44.800000	0.000000	0.000000	151.000000	53.000000	-6.000000	0.000000
1.490000	26.570000	44.740000	0.000000	0.000000	151.000000	53.000000	0.000000	-6.000000
1.500000	26.480000	44.740000	0.000000	0.000000	151.000000	53.000000	-9.000000	0.000000
1.510000	26.420000	44.680000	0.000000	0.000000	151.000000	53.000000	-6.000000	-6.000000
1.520000	26.350000	44.680000	0.000000	0.000000	151.000000	53.000000	-7.000000	0.000000
1.530000	26.300000	44.610000	0.000000	0.000000	151.000000	53.000000	-5.000000	-7.000000
1.540000	26.300000	44.560000	0.000000	0.000000	151.000000	53.000000	0.000000	-5.000000
1.550000	26.300000	44.560000	0.000000	0.000000	152.000000	54.000000	0.000000	0.000000
1.560000	26.300000	44.650000	0.000000	0.000000	153.000000	54.000000	0.000000	9.000000
1.570000	26.360000	44.720000	0.000000	0.000000	153.000000	54.000000	6.000000	7.000000
1.580000	26.360000	44.780000	0.000000	0.000000	153.000000	54.000000	0.000000	6.000000
1.590000	26.430000	44.830000	0.000000	0.000000	153.000000	54.000000	7.000000	5.000000
1.600000	26.430000	44.830000	0.000000	0.000000	153.000000	54.000000	0.000000	0.000000
1.610000	26.430000	44.830000	0.000000	0.000000	153.000000	54.000000	0.000000	0.000000
1.620000	26.340000	44.830000	0.000000	0.000000	153.000000	54.000000	-9.000000	0.000000
1.630000	26.250000	44.690000	0.000000	0.000000	153.000000	55.000000	-9.000000	-14.000000
1.640000	26.160000	44.590000	0.000000	0.000000	153.000000	55.000000	-9.000000	-10.000000
1.650000	26.090000	44.530000	0.000000	0.000000	153.000000	55.000000	-7.000000	-6.000000
1.660000	26.030000	44.530000	0.000000	0.000000	153.000000	55.000000	-6.000000	0.000000
1.670000	26.030000	44.590000	0.000000	0.000000	153.000000	55.000000	0.000000	6.000000
1.680000	26.100000	44.670000	0.000000	0.000000	153.000000	55.000000	7.000000	8.000000
1.690000	26.100000	44.740000	0.000000	0.000000	153.000000	55.000000	0.000000	7.000000
1.700000	26.190000	44.740000	0.000000	0.000000	151.000000	54.000000	9.000000	0.000000
1.710000	26.240000	44.790000	0.000000	0.000000	151.000000	54.000000	5.000000	5.000000
1.720000	26.240000	44.790000	0.000000	0.000000	151.000000	54.000000	0.000000	0.000000
1.730000	26.240000	44.730000	0.000000	0.000000	151.000000	54.000000	0.000000	-6.000000
1.740000	26.170000	44.730000	0.000000	0.000000	153.000000	55.000000	-7.000000	0.000000
1.750000	26.170000	44.730000	0.000000	0.000000	153.000000	55.000000	0.000000	0.000000
1.760000	26.170000	44.780000	0.000000	0.000000	153.000000	55.000000	0.000000	5.000000
1.770000	26.270000	44.840000	0.000000	0.000000	153.000000	55.000000	10.000000	6.000000
1.780000	26.320000	44.840000	0.000000	0.000000	153.000000	55.000000	5.000000	0.000000
1.790000	26.370000	44.840000	0.000000	0.000000	153.000000	55.000000	5.000000	0.000000
1.800000	26.370000	44.790000	0.000000	0.000000	153.000000	55.000000	0.000000	-5.000000
1.810000	26.370000	44.790000	0.000000	0.000000	153.000000	55.000000	0.000000	0.000000
1.820000	26.370000	44.690000	0.000000	0.000000	153.000000	55.000000	0.000000	-10.000000
1.830000	26.370000	44.610000	0.000000	0.000000	153.000000	55.000000	0.000000	-8.000000
1.840000	26.370000	44.610000	61.000000	1.000000	153.000000	55.000000	0.000000	0.000000
1.850000	26.640000	44.600000	170.000000	0.000000	150.000000	55.000000	27.000000	-1.000000
1.860000	26.800000	44.710000	235.000000	0.000000	150.000000	55.000000	16.000000	11.000000
1.870000	27.140000	44.960000	287.000000	0.000000	150.000000	55.000000	34.000000	25.000000
1.880000	27.600000	45.420000	277.000000	0.000000	149.000000	56.000000	46.000000	46.000000
1.890000	28.250000	46.020000	274.000000	0.000000	149.000000	56.000000	65.000000	60.000000
1.900000	28.990000	46.910000	269.000000	0.000000	149.000000	56.000000	74.000000	89.000000
1.910000	29.780000	47.850000	277.000000	0.000000	151.000000	56.000000	79.000000	94.000000
1.920000	30.340000	48.830000	299.000000	0.000000	152.000000	56.000000	56.000000	98.000000
1.930000	30.500000	49.710000	327.000000	0.000000	152.000000	56.000000	16.000000	88.000000
1.940000	30.390000	50.270000	353.000000	0.000000	154.000000	55.000000	-11.000000	56.000000
1.950000	29.600000	50.610000	376.000000	0.000000	156.000000	55.000000	-79.000000	34.000000
1.960000	28.360000	50.610000	396.000000	0.000000	157.000000	54.000000	-124.000000	0.000000
1.970000	26.820000	50.190000	439.000000	0.000000	158.000000	53.000000	-154.000000	-42.000000
1.980000	25.100000	49.440000	458.000000	0.000000	158.000000	53.000000	-172.000000	-75.000000
1.990000	23.590000	48.520000	465.000000	0.000000	157.000000	52.000000	-151.000000	-92.000000
2.000000	22.220000	47.420000	502.000000	0.000000	156.000000	51.000000	-137.000000	-110.000000
2.010000	21.300000	46.200000	519.000000	0.000000	154.000000	52.000000	-92.000000	-122.000000
2.020000	21.250000	45.630000	543.000000	0.000000	153.000000	52.000000	-5.000000	-57.000000
2.030000	21.790000	45.240000	575.000000	0.000000	150.000000	52.000000	54.000000	-39.000000
2.040000	22.860000	44.960000	603.000000	0.000000	149.000000	52.000000	107.000000	-28.000000
2.050000	24.380000	45.010000	610.000000	0.000000	148.000000	53.000000	152.000000	5.000000
2.060000	26.200000	45.300000	613.000000	0.000000	147.000000	53.000000	182.000000	29.000000
2.070000	27.990000	45.760000	617.000000	0.000000	147.000000	55.000000	179.000000	46.000000
2.080000	29.500000	46.310000	613.000000	0.000000	149.000000	55.000000	151.000000	55.000000
2.090000	30.810000	47.010000	620.000000	0.000000	150.000000	55.000000	131.000000	70.000000
2.100000	31.930000	47.810000	602.000000	0.000000	150.000000	55.000000	112.000000	80.000000
2.110000	32.260000	48.470000	594.000000	0.000000	152.000000	56.000000	33.000000	66.000000
2.120000	32.060000	49.100000	591.000000	0.000000	154.000000	55.000000	-20.000000	63.000000
2.130000	30.770000	49.260000	570.000000	0.000000	155.000000	55.000000	-129.000000	16.000000
2.140000	28.730000	49.120000	560.000000	0.000000	156.000000	55.000000	-204.000000	-14.000000
2.150000	26.180000	48.160000	580.000000	0.000000	156.000000	55.000000	-255.000000	-96.000000
2.160000	23.260000	46.750000	584.000000	0.000000	156.000000	55.000000	-292.000000	-141.000000
2.170000	20.510000	45.050000	599.000000	0.000000	156.000000	53.000000	-275.000000	-170.000000
2.180000	17.880000	43.020000	625.000000	0.000000	154.000000	53.000000	-263.000000	-203.000000
2.190000	16.280000	41.910000	639.000000	0.000000	154.000000	53.000000	-160.000000	-111.000000
2.200000	16.060000	41.420000	645.000000	0.000000	153.000000	53.000000	-22.000000	-49.000000
2.210000	16.750000	41.570000	663.000000	0.000000	152.000000	53.000000	69.000000	15.000000
2.220000	18.490000	42.240000	714.000000	0.000000	150.000000	52.000000	174.000000	67.000000
2.230000	21.420000	43.250000	758.000000	0.000000	149.000000	52.000000	293.000000	101.000000
