t	x	y	pressure	penup	azimuth	inclination	v_x	v_y
0.000000	21.610000	50.750000	15.000000	1.000000	128.000000	50.000000	0.000000	0.000000
0.010000	21.610000	50.750000	60.000000	0.000000	128.000000	50.000000	0.000000	0.000000
0.020000	21.610000	50.750000	103.000000	0.000000	128.000000	50.000000	0.000000	0.000000
0.030000	21.610000	50.750000	168.000000	0.000000	128.000000	50.000000	0.000000	0.000000
0.040000	21.610000	50.750000	206.000000	0.000000	128.000000	50.000000	0.000000	0.000000
0.050000	21.660000	51.030000	277.000000	0.000000	128.000000	50.000000	5.000000	28.000000
0.060000	21.660000	51.030000	356.000000	0.000000	128.000000	50.000000	0.000000	0.000000
0.070000	21.600000	51.080000	396.000000	0.000000	128.000000	50.000000	-6.000000	5.000000
0.080000	21.600000	51.080000	410.000000	0.000000	128.000000	50.000000	0.000000	0.000000
0.090000	21.420000	51.080000	415.000000	0.000000	129.000000	50.000000	-18.000000	0.000000
0.100000	21.220000	50.860000	422.000000	0.000000	129.000000	50.000000	-20.000000	-22.000000
0.110000	20.930000	50.590000	423.000000	0.000000	129.000000	50.000000	-29.000000	-27.000000
0.120000	20.650000	50.300000	423.000000	0.000000	129.000000	50.000000	-28.000000	-29.000000
0.130000	20.400000	49.950000	425.000000	0.000000	130.000000	51.000000	-25.000000	-35.000000
0.140000	20.190000	49.510000	425.000000	0.000000	129.000000	51.000000	-21.000000	-44.000000
0.150000	20.130000	49.040000	414.000000	0.000000	129.000000	51.000000	-6.000000	-47.000000
0.160000	20.130000	48.720000	415.000000	0.000000	129.000000	51.000000	0.000000	-32.000000
0.170000	20.300000	48.500000	418.000000	0.000000	128.000000	52.000000	17.000000	-22.000000
0.180000	20.510000	48.420000	440.000000	0.000000	128.000000	52.000000	21.000000	-8.000000
0.190000	20.830000	48.470000	461.000000	0.000000	128.000000	52.000000	32.000000	5.000000
0.200000	21.190000	48.620000	468.000000	0.000000	127.000000	52.000000	36.000000	15.000000
0.210000	21.560000	48.920000	496.000000	0.000000	127.000000	52.000000	37.000000	30.000000
0.220000	21.890000	49.220000	492.000000	0.000000	127.000000	52.000000	33.000000	30.000000
0.230000	22.190000	49.570000	512.000000	0.000000	127.000000	52.000000	30.000000	35.000000
0.240000	22.390000	49.950000	521.000000	0.000000	126.000000	51.000000	20.000000	38.000000
0.250000	22.510000	50.330000	529.000000	0.000000	126.000000	51.000000	12.000000	38.000000
0.260000	22.570000	50.680000	540.000000	0.000000	127.000000	51.000000	6.000000	35.000000
0.270000	22.570000	50.960000	561.000000	0.000000	127.000000	51.000000	0.000000	28.000000
0.280000	22.570000	51.060000	589.000000	0.000000	128.000000	50.000000	0.000000	10.000000
0.290000	22.570000	51.060000	591.000000	0.000000	128.000000	50.000000	0.000000	0.000000
0.300000	22.570000	51.060000	591.000000	0.000000	128.000000	50.000000	0.000000	0.000000
0.310000	22.570000	51.060000	591.000000	0.000000	129.000000	50.000000	0.000000	0.000000
0.320000	22.570000	50.950000	591.000000	0.000000	129.000000	50.000000	0.000000	-11.000000
0.330000	22.570000	50.800000	595.000000	0.000000	128.000000	49.000000	0.000000	-15.000000
0.340000	22.570000	50.550000	588.000000	0.000000	128.000000	49.000000	0.000000	-25.000000
0.350000	22.570000	50.280000	589.000000	0.000000	128.000000	49.000000	0.000000	-27.000000
0.360000	22.640000	50.000000	594.000000	0.000000	128.000000	49.000000	7.000000	-28.000000
0.370000	22.760000	49.830000	600.000000	0.000000	128.000000	49.000000	12.000000	-17.000000
0.380000	22.890000	49.730000	613.000000	0.000000	128.000000	49.000000	13.000000	-10.000000
0.390000	23.060000	49.640000	619.000000	0.000000	127.000000	50.000000	17.000000	-9.000000
0.400000	23.310000	49.640000	631.000000	0.000000	127.000000	50.000000	25.000000	0.000000
0.410000	23.590000	49.720000	633.000000	0.000000	127.000000	50.000000	28.000000	8.000000
0.420000	23.890000	49.900000	638.000000	0.000000	127.000000	50.000000	30.000000	18.000000
0.430000	24.210000	50.180000	645.000000	0.000000	128.000000	50.000000	32.000000	28.000000
0.440000	24.470000	50.520000	641.000000	0.000000	128.000000	50.000000	26.000000	34.000000
0.450000	24.680000	50.810000	652.000000	0.000000	128.000000	50.000000	21.000000	29.000000
0.460000	24.810000	51.040000	664.000000	0.000000	128.000000	50.000000	13.000000	23.000000
0.470000	24.870000	51.170000	675.000000	0.000000	128.000000	50.000000	6.000000	13.000000
0.480000	24.870000	51.260000	699.000000	0.000000	129.000000	50.000000	0.000000	9.000000
0.490000	24.870000	51.320000	708.000000	0.000000	129.000000	50.000000	0.000000	6.000000
0.500000	24.870000	51.320000	714.000000	0.000000	129.000000	50.000000	0.000000	0.000000
0.510000	24.920000	51.320000	719.000000	0.000000	130.000000	50.000000	5.000000	0.000000
0.520000	24.920000	51.320000	716.000000	0.000000	130.000000	50.000000	0.000000	0.000000
0.530000	24.920000	51.320000	717.000000	0.000000	130.000000	50.000000	0.000000	0.000000
0.540000	24.920000	51.320000	717.000000	0.000000	130.000000	50.000000	0.000000	0.000000
0.550000	24.920000	51.320000	716.000000	0.000000	130.000000	50.000000	0.000000	0.000000
0.560000	24.980000	51.230000	724.000000	0.000000	130.000000	50.000000	6.000000	-9.000000
0.570000	25.040000	51.160000	725.000000	0.000000	130.000000	50.000000	6.000000	-7.000000
0.580000	25.110000	51.060000	731.000000	0.000000	130.000000	50.000000	7.000000	-10.000000
0.590000	25.210000	50.920000	731.000000	0.000000	130.000000	50.000000	10.000000	-14.000000
0.600000	25.270000	50.770000	731.000000	0.000000	132.000000	50.000000	6.000000	-15.000000
0.610000	25.270000	50.610000	724.000000	0.000000	132.000000	50.000000	0.000000	-16.000000
0.620000	25.480000	50.440000	720.000000	0.000000	132.000000	50.000000	21.000000	-17.000000
0.630000	25.590000	50.280000	721.000000	0.000000	130.000000	51.000000	11.000000	-16.000000
0.640000	25.650000	50.120000	728.000000	0.000000	130.000000	51.000000	6.000000	-16.000000
0.650000	25.720000	50.030000	737.000000	0.000000	130.000000	51.000000	7.000000	-9.000000
0.660000	25.720000	50.030000	746.000000	0.000000	130.000000	51.000000	0.000000	0.000000
0.670000	25.770000	50.030000	755.000000	0.000000	132.000000	51.000000	5.000000	0.000000
0.680000	25.770000	49.980000	751.000000	0.000000	132.000000	51.000000	0.000000	-5.000000
0.690000	25.770000	49.980000	759.000000	0.000000	132.000000	51.000000	0.000000	0.000000
0.700000	25.770000	49.980000	762.000000	0.000000	132.000000	51.000000	0.000000	0.000000
0.710000	25.770000	49.980000	760.000000	0.000000	132.000000	51.000000	0.000000	0.000000
0.720000	25.770000	49.980000	767.000000	0.000000	132.000000	51.000000	0.000000	0.000000
0.730000	25.770000	49.980000	767.000000	0.000000	133.000000	52.000000	0.000000	0.000000
0.740000	25.770000	49.980000	767.000000	0.000000	133.000000	52.000000	0.000000	0.000000
0.750000	25.770000	49.980000	767.000000	0.000000	133.000000	52.000000	0.000000	0.000000
0.760000	25.770000	49.980000	767.000000	0.000000	133.000000	52.000000	0.000000	0.000000
0.770000	25.830000	49.980000	771.000000	0.000000	133.000000	52.000000	6.000000	0.000000
0.780000	25.830000	50.040000	771.000000	0.000000	133.000000	52.000000	0.000000	6.000000
0.790000	25.990000	50.160000	771.000000	0.000000	133.000000	52.000000	16.000000	12.000000
0.800000	26.190000	50.400000	770.000000	0.000000	133.000000	52.000000	20.000000	24.000000
0.810000	26.440000	50.710000	773.000000	0.000000	133.000000	52.000000	25.000000	31.000000
0.820000	26.580000	50.910000	771.000000	0.000000	133.000000	52.000000	14.000000	20.000000
0.830000	26.720000	51.020000	773.000000	0.000000	134.000000	51.000000	14.000000	11.000000
0.840000	26.840000	51.070000	771.000000	0.000000	134.000000	51.000000	12.000000	5.000000
0.850000	26.940000	51.150000	770.000000	0.000000	135.000000	52.000000	10.000000	8.000000
0.860000	27.000000	51.220000	773.000000	0.000000	135.000000	52.000000	6.000000	7.000000
0.870000	27.110000	51.270000	773.000000	0.000000	135.000000	52.000000	11.000000	5.000000
0.880000	27.390000	51.460000	771.000000	0.000000	135.000000	52.000000	28.000000	19.000000
0.890000	27.770000	51.740000	770.000000	0.000000	135.000000	52.000000	38.000000	28.000000
0.900000	28.000000	51.870000	776.000000	0.000000	135.000000	52.000000	23.000000	13.000000
0.910000	28.250000	51.990000	776.000000	0.000000	136.000000	52.000000	25.000000	12.000000
0.920000	28.410000	52.050000	776.000000	0.000000	136.000000	52.000000	16.000000	6.000000
0.930000	28.500000	52.050000	773.000000	0.000000	139.000000	52.000000	9.000000	0.000000
0.940000	28.570000	52.050000	770.000000	0.000000	139.000000	52.000000	7.000000	0.000000
0.950000	28.630000	51.970000	770.000000	0.000000	140.000000	53.000000	6.000000	-8.000000
0.960000	28.690000	51.810000	768.000000	0.000000	140.000000	53.000000	6.000000	-16.000000
0.970000	28.690000	51.680000	765.000000	0.000000	141.000000	53.000000	0.000000	-13.000000
0.980000	28.690000	51.590000	768.000000	0.000000	141.000000	53.000000	0.000000	-9.000000
0.990000	28.610000	51.460000	770.000000	0.000000	141.000000	53.000000	-8.000000	-13.000000
1.000000	28.470000	51.320000	770.000000	0.000000	141.000000	53.000000	-14.000000	-14.000000
1.010000	28.250000	51.160000	776.000000	0.000000	141.000000	53.000000	-22.000000	-16.000000
1.020000	28.040000	50.960000	779.000000	0.000000	141.000000	53.000000	-21.000000	-20.000000
1.030000	27.970000	50.900000	777.000000	0.000000	140.000000	53.000000	-7.000000	-6.000000
1.040000	27.970000	50.900000	780.000000	0.000000	139.000000	54.000000	0.000000	0.000000
1.050000	28.070000	50.980000	776.000000	0.000000	139.000000	54.000000	10.000000	8.000000
1.060000	28.210000	51.100000	777.000000	0.000000	139.000000	54.000000	14.000000	12.000000
1.070000	28.470000	51.270000	780.000000	0.000000	139.000000	54.000000	26.000000	17.000000
1.080000	28.770000	51.400000	785.000000	0.000000	139.000000	54.000000	30.000000	13.000000
1.090000	29.060000	51.530000	784.000000	0.000000	139.000000	54.000000	29.000000	13.000000
1.100000	29.360000	51.650000	787.000000	0.000000	139.000000	54.000000	30.000000	12.000000
1.110000	29.640000	51.770000	787.000000	0.000000	139.000000	54.000000	28.000000	12.000000
1.120000	29.800000	51.770000	788.000000	0.000000	139.000000	54.000000	16.000000	0.000000
1.130000	29.860000	51.720000	788.000000	0.000000	139.000000	54.000000	6.000000	-5.000000
1.140000	29.960000	51.720000	787.000000	0.000000	139.000000	54.000000	10.000000	0.000000
1.150000	29.960000	51.720000	788.000000	0.000000	139.000000	54.000000	0.000000	0.000000
1.160000	29.960000	51.720000	785.000000	0.000000	139.000000	54.000000	0.000000	0.000000
1.170000	30.010000	51.720000	785.000000	0.000000	137.000000	53.000000	5.000000	0.000000
1.180000	30.010000	51.670000	785.000000	0.000000	137.000000	53.000000	0.000000	-5.000000
1.190000	30.010000	51.670000	787.000000	0.000000	137.000000	53.000000	0.000000	0.000000
1.200000	30.010000	51.670000	790.000000	0.000000	137.000000	53.000000	0.000000	0.000000
1.210000	30.010000	51.670000	788.000000	0.000000	137.000000	53.000000	0.000000	0.000000
1.220000	30.010000	51.670000	788.000000	0.000000	137.000000	53.000000	0.000000	0.000000
1.230000	30.010000	51.670000	787.000000	0.000000	137.000000	53.000000	0.000000	0.000000
1.240000	30.010000	51.670000	787.000000	0.000000	137.000000	53.000000	0.000000	0.000000
1.250000	30.010000	51.670000	788.000000	0.000000	137.000000	53.000000	0.000000	0.000000
1.260000	30.010000	51.670000	788.000000	0.000000	137.000000	53.000000	0.000000	0.000000
1.270000	30.010000	51.390000	788.000000	0.000000	137.000000	53.000000	0.000000	-28.000000
1.280000	30.010000	51.340000	790.000000	0.000000	139.000000	52.000000	0.000000	-5.000000
1.290000	30.010000	51.280000	793.000000	0.000000	139.000000	52.000000	0.000000	-6.000000
1.300000	30.010000	51.190000	797.000000	0.000000	139.000000	52.000000	0.000000	-9.000000
1.310000	29.940000	51.090000	796.000000	0.000000	139.000000	52.000000	-7.000000	-10.000000
1.320000	29.940000	51.020000	796.000000	0.000000	139.000000	52.000000	0.000000	-7.000000
1.330000	29.940000	51.020000	796.000000	0.000000	139.000000	52.000000	0.000000	0.000000
1.340000	29.940000	51.020000	794.000000	0.000000	139.000000	52.000000	0.000000	0.000000
1.350000	29.940000	51.020000	796.000000	0.000000	139.000000	52.000000	0.000000	0.000000
1.360000	29.940000	51.020000	797.000000	0.000000	139.000000	52.000000	0.000000	0.000000
1.370000	29.940000	51.020000	787.000000	0.000000	139.000000	52.000000	0.000000	0.000000
1.380000	29.940000	51.020000	788.000000	0.000000	139.000000	52.000000	0.000000	0.000000
1.390000	29.940000	51.020000	787.000000	0.000000	139.000000	52.000000	0.000000	0.000000
1.400000	29.940000	51.020000	791.000000	0.000000	139.000000	52.000000	0.000000	0.000000
1.410000	29.940000	51.020000	790.000000	0.000000	139.000000	52.000000	0.000000	0.000000
1.420000	29.940000	51.020000	791.000000	0.000000	139.000000	52.000000	0.000000	0.000000
1.430000	29.940000	51.020000	791.000000	0.000000	139.000000	52.000000	0.000000	0.000000
1.440000	29.940000	51.020000	788.000000	0.000000	139.000000	52.000000	0.000000	0.000000
1.450000	30.050000	51.110000	788.000000	0.000000	139.000000	52.000000	11.000000	9.000000
1.460000	30.050000	51.110000	788.000000	0.000000	139.000000	52.000000	0.000000	0.000000
1.470000	30.050000	51.110000	788.000000	0.000000	139.000000	52.000000	0.000000	0.000000
1.480000	30.050000	51.110000	788.000000	0.000000	139.000000	52.000000	0.000000	0.000000
1.490000	30.050000	51.110000	788.000000	0.000000	139.000000	52.000000	0.000000	0.000000
1.500000	30.050000	51.110000	787.000000	0.000000	137.000000	53.000000	0.000000	0.000000
1.510000	30.150000	51.210000	790.000000	0.000000	137.000000	53.000000	10.000000	10.000000
1.520000	30.250000	51.300000	796.000000	0.000000	136.000000	52.000000	10.000000	9.000000
1.530000	30.400000	51.460000	796.000000	0.000000	136.000000	52.000000	15.000000	16.000000
1.540000	30.590000	51.670000	796.000000	0.000000	136.000000	52.000000	19.000000	21.000000
1.550000	30.800000	51.910000	806.000000	0.000000	136.000000	52.000000	21.000000	24.000000
1.560000	30.930000	52.120000	826.000000	0.000000	136.000000	52.000000	13.000000	21.000000
1.570000	31.030000	52.310000	817.000000	0.000000	137.000000	52.000000	10.000000	19.000000
1.580000	31.170000	52.530000	824.000000	0.000000	137.000000	52.000000	14.000000	22.000000
1.590000	31.250000	52.780000	828.000000	0.000000	137.000000	52.000000	8.000000	25.000000
1.600000	31.250000	52.880000	840.000000	0.000000	137.000000	52.000000	0.000000	10.000000
1.610000	31.250000	52.940000	846.000000	0.000000	137.000000	52.000000	0.000000	6.000000
1.620000	31.250000	52.940000	852.000000	0.000000	137.000000	52.000000	0.000000	0.000000
1.630000	31.250000	52.940000	854.000000	0.000000	137.000000	52.000000	0.000000	0.000000
1.640000	31.250000	52.940000	854.000000	0.000000	137.000000	52.000000	0.000000	0.000000
1.650000	31.300000	52.940000	852.000000	0.000000	136.000000	51.000000	5.000000	0.000000
1.660000	31.300000	52.940000	857.000000	0.000000	136.000000	51.000000	0.000000	0.000000
1.670000	31.300000	52.940000	852.000000	0.000000	136.000000	51.000000	0.000000	0.000000
1.680000	31.300000	52.940000	854.000000	0.000000	136.000000	51.000000	0.000000	0.000000
1.690000	31.300000	52.940000	855.000000	0.000000	136.000000	51.000000	0.000000	0.000000
1.700000	31.300000	52.940000	857.000000	0.000000	136.000000	51.000000	0.000000	0.000000
1.710000	31.300000	52.940000	857.000000	0.000000	137.000000	52.000000	0.000000	0.000000
1.720000	31.300000	52.940000	857.000000	0.000000	137.000000	52.000000	0.000000	0.000000
1.730000	31.300000	52.940000	854.000000	0.000000	137.000000	52.000000	0.000000	0.000000
1.740000	31.300000	52.940000	854.000000	0.000000	137.000000	52.000000	0.000000	0.000000
1.750000	31.300000	52.940000	851.000000	0.000000	137.000000	52.000000	0.000000	0.000000
1.760000	31.300000	52.940000	851.000000	0.000000	137.000000	52.000000	0.000000	0.000000
1.770000	31.300000	52.940000	851.000000	0.000000	137.000000	52.000000	0.000000	0.000000
1.780000	31.300000	52.940000	855.000000	0.000000	136.000000	51.000000	0.000000	0.000000
1.790000	31.300000	52.650000	855.000000	0.000000	136.000000	51.000000	0.000000	-29.000000
1.800000	31.300000	52.470000	861.000000	0.000000	136.000000	51.000000	0.000000	-18.000000
1.810000	31.300000	52.300000	858.000000	0.000000	136.000000	51.000000	0.000000	-17.000000
1.820000	31.360000	52.130000	858.000000	0.000000	136.000000	51.000000	6.000000	-17.000000
1.830000	31.470000	52.020000	860.000000	0.000000	136.000000	51.000000	11.000000	-11.000000
1.840000	31.640000	51.940000	866.000000	0.000000	136.000000	51.000000	17.000000	-8.000000
1.850000	31.940000	51.940000	869.000000	0.000000	136.000000	51.000000	30.000000	0.000000
1.860000	32.330000	52.120000	853.000000	0.000000	136.000000	51.000000	39.000000	18.000000
1.870000	32.680000	52.370000	854.000000	0.000000	136.000000	51.000000	35.000000	25.000000
1.880000	33.040000	52.700000	854.000000	0.000000	136.000000	51.000000	36.000000	33.000000
1.890000	33.250000	53.000000	861.000000	0.000000	136.000000	51.000000	21.000000	30.000000
1.900000	33.370000	53.260000	864.000000	0.000000	136.000000	51.000000	12.000000	26.000000
1.910000	33.440000	53.490000	864.000000	0.000000	136.000000	51.000000	7.000000	23.000000
1.920000	33.440000	53.720000	867.000000	0.000000	136.000000	51.000000	0.000000	23.000000
1.930000	33.440000	53.790000	867.000000	0.000000	135.000000	51.000000	0.000000	7.000000
1.940000	33.440000	53.790000	864.000000	0.000000	135.000000	51.000000	0.000000	0.000000
1.950000	33.490000	53.790000	866.000000	0.000000	135.000000	51.000000	5.000000	0.000000
1.960000	33.490000	53.790000	866.000000	0.000000	134.000000	51.000000	0.000000	0.000000
1.970000	33.490000	53.700000	866.000000	0.000000	133.000000	51.000000	0.000000	-9.000000
1.980000	33.490000	53.560000	869.000000	0.000000	133.000000	51.000000	0.000000	-14.000000
1.990000	33.490000	53.310000	869.000000	0.000000	133.000000	51.000000	0.000000	-25.000000
2.000000	33.440000	53.000000	870.000000	0.000000	133.000000	51.000000	-5.000000	-31.000000
2.010000	33.440000	52.670000	872.000000	0.000000	134.000000	51.000000	0.000000	-33.000000
2.020000	33.440000	52.400000	870.000000	0.000000	135.000000	51.000000	0.000000	-27.000000
2.030000	33.560000	52.210000	875.000000	0.000000	135.000000	51.000000	12.000000	-19.000000
2.040000	33.690000	52.060000	873.000000	0.000000	136.000000	51.000000	13.000000	-15.000000
2.050000	33.810000	52.000000	870.000000	0.000000	136.000000	51.000000	12.000000	-6.000000
2.060000	33.860000	52.000000	864.000000	0.000000	136.000000	51.000000	5.000000	0.000000
2.070000	33.860000	52.000000	784.000000	0.000000	136.000000	51.000000	0.000000	0.000000
2.080000	33.860000	52.000000	299.000000	0.000000	136.000000	51.000000	0.000000	0.000000
2.090000	33.860000	52.000000	0.000000	1.000000	136.000000	51.000000	0.000000	0.000000
2.100000	33.620000	52.150000	0.000000	0.000000	137.000000	52.000000	-24.000000	15.000000
2.110000	33.290000	52.230000	0.000000	0.000000	137.000000	52.000000	-33.000000	8.000000
2.120000	32.870000	52.300000	0.000000	0.000000	137.000000	52.000000	-42.000000	7.000000
2.130000	32.360000	52.300000	0.000000	0.000000	137.000000	52.000000	-51.000000	0.000000
2.140000	31.790000	52.300000	0.000000	0.000000	137.000000	52.000000	-57.000000	0.000000
2.150000	30.860000	52.050000	0.000000	0.000000	136.000000	51.000000	-93.000000	-25.000000
2.160000	29.680000	51.680000	0.000000	0.000000	136.000000	51.000000	-118.000000	-37.000000
2.170000	28.330000	51.180000	0.000000	0.000000	135.000000	52.000000	-135.000000	-50.000000
2.180000	26.600000	50.440000	0.000000	0.000000	134.000000	51.000000	-173.000000	-74.000000
2.190000	24.780000	49.550000	0.000000	0.000000	134.000000	51.000000	-182.000000	-89.000000
2.200000	22.890000	48.700000	0.000000	0.000000	132.000000	51.000000	-189.000000	-85.000000
2.210000	21.360000	47.940000	0.000000	0.000000	130.000000	52.000000	-153.000000	-76.000000
2.220000	20.130000	47.250000	0.000000	0.000000	130.000000	52.000000	-123.000000	-69.000000
