t	x	y	pressure	penup	azimuth	inclination	v_x	v_y
0.000000	56.470000	54.130000	15.000000	1.000000	136.000000	55.000000	0.000000	0.000000
0.010000	57.040000	54.530000	112.000000	0.000000	136.000000	55.000000	57.000000	40.000000
0.020000	57.160000	54.670000	235.000000	0.000000	136.000000	56.000000	12.000000	14.000000
0.030000	57.220000	54.750000	344.000000	0.000000	136.000000	56.000000	6.000000	8.000000
0.040000	57.220000	54.750000	449.000000	0.000000	136.000000	56.000000	0.000000	0.000000
0.050000	57.220000	54.750000	516.000000	0.000000	136.000000	56.000000	0.000000	0.000000
0.060000	57.220000	54.750000	578.000000	0.000000	138.000000	57.000000	0.000000	0.000000
0.070000	57.220000	54.750000	619.000000	0.000000	138.000000	57.000000	0.000000	0.000000
0.080000	57.220000	54.750000	631.000000	0.000000	138.000000	57.000000	0.000000	0.000000
0.090000	57.140000	54.690000	643.000000	0.000000	138.000000	57.000000	-8.000000	-6.000000
0.100000	57.040000	54.610000	653.000000	0.000000	138.000000	57.000000	-10.000000	-8.000000
0.110000	57.040000	54.420000	669.000000	0.000000	138.000000	57.000000	0.000000	-19.000000
0.120000	56.720000	54.150000	693.000000	0.000000	138.000000	57.000000	-32.000000	-27.000000
0.130000	56.270000	53.450000	708.000000	0.000000	138.000000	57.000000	-45.000000	-70.000000
0.140000	55.810000	52.720000	708.000000	0.000000	136.000000	56.000000	-46.000000	-73.000000
0.150000	55.290000	51.750000	707.000000	0.000000	136.000000	56.000000	-52.000000	-97.000000
0.160000	54.730000	50.630000	710.000000	0.000000	135.000000	55.000000	-56.000000	-112.000000
0.170000	54.130000	49.320000	717.000000	0.000000	135.000000	55.000000	-60.000000	-131.000000
0.180000	53.900000	48.080000	725.000000	0.000000	134.000000	55.000000	-23.000000	-124.000000
0.190000	53.900000	46.890000	721.000000	0.000000	132.000000	55.000000	0.000000	-119.000000
0.200000	53.210000	45.870000	739.000000	0.000000	130.000000	55.000000	-69.000000	-102.000000
0.210000	52.960000	44.910000	743.000000	0.000000	127.000000	56.000000	-25.000000	-96.000000
0.220000	53.020000	44.000000	748.000000	0.000000	126.000000	57.000000	6.000000	-91.000000
0.230000	53.100000	43.380000	745.000000	0.000000	123.000000	56.000000	8.000000	-62.000000
0.240000	53.350000	42.760000	745.000000	0.000000	122.000000	57.000000	25.000000	-62.000000
0.250000	53.700000	42.430000	748.000000	0.000000	120.000000	57.000000	35.000000	-33.000000
0.260000	54.180000	42.290000	751.000000	0.000000	120.000000	57.000000	48.000000	-14.000000
0.270000	54.810000	42.390000	746.000000	0.000000	120.000000	57.000000	63.000000	10.000000
0.280000	55.540000	42.820000	749.000000	0.000000	120.000000	57.000000	73.000000	43.000000
0.290000	56.420000	43.460000	740.000000	0.000000	121.000000	58.000000	88.000000	64.000000
0.300000	57.340000	44.300000	739.000000	0.000000	121.000000	58.000000	92.000000	84.000000
0.310000	58.410000	45.390000	731.000000	0.000000	123.000000	59.000000	107.000000	109.000000
0.320000	59.550000	46.650000	731.000000	0.000000	124.000000	60.000000	114.000000	126.000000
0.330000	60.650000	47.950000	737.000000	0.000000	125.000000	60.000000	110.000000	130.000000
0.340000	61.500000	49.130000	734.000000	0.000000	126.000000	60.000000	85.000000	118.000000
0.350000	62.190000	49.850000	737.000000	0.000000	129.000000	60.000000	69.000000	72.000000
0.360000	62.420000	50.320000	748.000000	0.000000	132.000000	60.000000	23.000000	47.000000
0.370000	62.420000	50.550000	754.000000	0.000000	134.000000	60.000000	0.000000	23.000000
0.380000	62.370000	50.790000	750.000000	0.000000	136.000000	60.000000	-5.000000	24.000000
0.390000	62.190000	51.030000	753.000000	0.000000	138.000000	59.000000	-18.000000	24.000000
0.400000	61.790000	51.180000	750.000000	0.000000	139.000000	58.000000	-40.000000	15.000000
0.410000	61.250000	51.300000	763.000000	0.000000	140.000000	58.000000	-54.000000	12.000000
0.420000	60.520000	51.400000	754.000000	0.000000	140.000000	58.000000	-73.000000	10.000000
0.430000	59.650000	51.350000	748.000000	0.000000	142.000000	57.000000	-87.000000	-5.000000
0.440000	58.680000	51.240000	736.000000	0.000000	142.000000	57.000000	-97.000000	-11.000000
0.450000	57.410000	50.880000	730.000000	0.000000	142.000000	57.000000	-127.000000	-36.000000
0.460000	55.970000	50.370000	733.000000	0.000000	140.000000	58.000000	-144.000000	-51.000000
0.470000	54.410000	49.690000	736.000000	0.000000	139.000000	57.000000	-156.000000	-68.000000
0.480000	53.060000	49.020000	749.000000	0.000000	138.000000	57.000000	-135.000000	-67.000000
0.490000	51.910000	48.340000	755.000000	0.000000	136.000000	57.000000	-115.000000	-68.000000
0.500000	50.900000	47.680000	757.000000	0.000000	134.000000	57.000000	-101.000000	-66.000000
0.510000	50.240000	47.190000	749.000000	0.000000	131.000000	57.000000	-66.000000	-49.000000
0.520000	49.890000	46.830000	748.000000	0.000000	128.000000	57.000000	-35.000000	-36.000000
0.530000	49.740000	46.640000	740.000000	0.000000	127.000000	57.000000	-15.000000	-19.000000
0.540000	49.740000	46.590000	742.000000	0.000000	124.000000	57.000000	0.000000	-5.000000
0.550000	49.790000	46.590000	748.000000	0.000000	124.000000	57.000000	5.000000	0.000000
0.560000	50.150000	46.590000	776.000000	0.000000	123.000000	58.000000	36.000000	0.000000
0.570000	50.720000	46.820000	797.000000	0.000000	123.000000	58.000000	57.000000	23.000000
0.580000	52.380000	47.260000	819.000000	0.000000	123.000000	58.000000	166.000000	44.000000
0.590000	54.750000	48.140000	861.000000	0.000000	123.000000	58.000000	237.000000	88.000000
0.600000	57.580000	49.040000	866.000000	0.000000	124.000000	58.000000	283.000000	90.000000
0.610000	60.760000	49.950000	881.000000	0.000000	126.000000	58.000000	318.000000	91.000000
0.620000	63.930000	50.660000	888.000000	0.000000	130.000000	58.000000	317.000000	71.000000
0.630000	67.100000	51.050000	900.000000	0.000000	132.000000	58.000000	317.000000	39.000000
0.640000	69.680000	51.230000	909.000000	0.000000	135.000000	58.000000	258.000000	18.000000
0.650000	71.860000	51.380000	894.000000	0.000000	139.000000	58.000000	218.000000	15.000000
0.660000	73.780000	51.540000	894.000000	0.000000	142.000000	58.000000	192.000000	16.000000
0.670000	75.230000	51.710000	896.000000	0.000000	146.000000	58.000000	145.000000	17.000000
0.680000	76.080000	51.870000	896.000000	0.000000	149.000000	58.000000	85.000000	16.000000
0.690000	76.540000	52.000000	903.000000	0.000000	151.000000	58.000000	46.000000	13.000000
0.700000	76.610000	52.060000	906.000000	0.000000	153.000000	58.000000	7.000000	6.000000
0.710000	76.610000	52.060000	909.000000	0.000000	154.000000	58.000000	0.000000	0.000000
0.720000	76.550000	52.060000	906.000000	0.000000	155.000000	58.000000	-6.000000	0.000000
0.730000	76.350000	52.060000	870.000000	0.000000	155.000000	58.000000	-20.000000	0.000000
0.740000	75.950000	52.060000	846.000000	0.000000	157.000000	58.000000	-40.000000	0.000000
0.750000	75.410000	52.010000	713.000000	0.000000	157.000000	58.000000	-54.000000	-5.000000
0.760000	75.210000	51.960000	438.000000	0.000000	157.000000	58.000000	-20.000000	-5.000000
0.770000	75.210000	51.960000	0.000000	1.000000	157.000000	58.000000	0.000000	0.000000
0.780000	74.360000	51.900000	0.000000	0.000000	157.000000	58.000000	-85.000000	-6.000000
0.790000	73.600000	51.990000	0.000000	0.000000	157.000000	58.000000	-76.000000	9.000000
0.800000	72.600000	52.150000	0.000000	0.000000	157.000000	58.000000	-100.000000	16.000000
0.810000	71.440000	52.310000	0.000000	0.000000	155.000000	58.000000	-116.000000	16.000000
0.820000	70.190000	52.430000	0.000000	0.000000	155.000000	58.000000	-125.000000	12.000000
0.830000	68.770000	52.330000	0.000000	0.000000	154.000000	57.000000	-142.000000	-10.000000
0.840000	67.240000	52.100000	0.000000	0.000000	154.000000	57.000000	-153.000000	-23.000000
0.850000	65.710000	51.440000	0.000000	0.000000	152.000000	57.000000	-153.000000	-66.000000
0.860000	64.150000	51.080000	0.000000	0.000000	150.000000	57.000000	-156.000000	-36.000000
0.870000	62.630000	50.920000	0.000000	0.000000	148.000000	57.000000	-152.000000	-16.000000
0.880000	61.160000	50.490000	0.000000	0.000000	147.000000	56.000000	-147.000000	-43.000000
0.890000	60.050000	50.190000	0.000000	0.000000	144.000000	57.000000	-111.000000	-30.000000
0.900000	59.270000	49.980000	0.000000	0.000000	143.000000	57.000000	-78.000000	-21.000000
0.910000	58.720000	49.980000	0.000000	0.000000	140.000000	58.000000	-55.000000	0.000000
0.920000	58.440000	50.030000	0.000000	0.000000	139.000000	57.000000	-28.000000	5.000000
0.930000	58.190000	50.150000	0.000000	0.000000	138.000000	58.000000	-25.000000	12.000000
0.940000	58.030000	50.150000	0.000000	0.000000	136.000000	57.000000	-16.000000	0.000000
0.950000	57.960000	50.150000	0.000000	0.000000	135.000000	58.000000	-7.000000	0.000000
0.960000	58.020000	50.050000	0.000000	0.000000	136.000000	58.000000	6.000000	-10.000000
0.970000	58.140000	50.000000	0.000000	0.000000	136.000000	58.000000	12.000000	-5.000000
0.980000	58.270000	49.950000	0.000000	0.000000	136.000000	58.000000	13.000000	-5.000000
0.990000	58.440000	49.950000	0.000000	0.000000	136.000000	58.000000	17.000000	0.000000
1.000000	58.660000	50.020000	0.000000	0.000000	136.000000	58.000000	22.000000	7.000000
1.010000	58.830000	50.070000	0.000000	0.000000	136.000000	58.000000	17.000000	5.000000
1.020000	58.960000	50.130000	0.000000	0.000000	138.000000	59.000000	13.000000	6.000000
1.030000	59.120000	50.230000	0.000000	0.000000	138.000000	59.000000	16.000000	10.000000
1.040000	59.270000	50.340000	0.000000	0.000000	138.000000	59.000000	15.000000	11.000000
1.050000	59.390000	50.440000	0.000000	0.000000	138.000000	59.000000	12.000000	10.000000
1.060000	59.520000	50.540000	0.000000	0.000000	138.000000	59.000000	13.000000	10.000000
1.070000	59.670000	50.650000	0.000000	0.000000	138.000000	59.000000	15.000000	11.000000
1.080000	59.830000	50.760000	0.000000	0.000000	139.000000	58.000000	16.000000	11.000000
1.090000	60.050000	50.880000	0.000000	0.000000	139.000000	58.000000	22.000000	12.000000
1.100000	60.320000	51.030000	0.000000	0.000000	139.000000	58.000000	27.000000	15.000000
1.110000	60.610000	51.190000	0.000000	0.000000	139.000000	58.000000	29.000000	16.000000
1.120000	60.820000	51.320000	0.000000	0.000000	139.000000	58.000000	21.000000	13.000000
1.130000	60.930000	51.420000	0.000000	0.000000	140.000000	58.000000	11.000000	10.000000
1.140000	60.930000	51.420000	0.000000	0.000000	140.000000	58.000000	0.000000	0.000000
1.150000	60.930000	51.480000	0.000000	0.000000	140.000000	58.000000	0.000000	6.000000
1.160000	61.000000	51.480000	0.000000	0.000000	140.000000	58.000000	7.000000	0.000000
1.170000	61.070000	51.600000	0.000000	0.000000	139.000000	57.000000	7.000000	12.000000
1.180000	61.180000	51.680000	0.000000	0.000000	139.000000	57.000000	11.000000	8.000000
1.190000	61.360000	51.820000	0.000000	0.000000	139.000000	57.000000	18.000000	14.000000
1.200000	61.600000	52.000000	0.000000	0.000000	139.000000	57.000000	24.000000	18.000000
1.210000	61.800000	52.160000	0.000000	0.000000	139.000000	57.000000	20.000000	16.000000
1.220000	61.970000	52.260000	0.000000	0.000000	139.000000	57.000000	17.000000	10.000000
1.230000	61.970000	52.210000	0.000000	0.000000	140.000000	56.000000	0.000000	-5.000000
1.240000	61.910000	52.080000	0.000000	0.000000	140.000000	56.000000	-6.000000	-13.000000
1.250000	61.840000	51.950000	0.000000	0.000000	140.000000	56.000000	-7.000000	-13.000000
1.260000	61.840000	51.830000	0.000000	0.000000	140.000000	56.000000	0.000000	-12.000000
1.270000	61.840000	51.760000	0.000000	0.000000	140.000000	56.000000	0.000000	-7.000000
1.280000	61.950000	51.710000	0.000000	0.000000	140.000000	56.000000	11.000000	-5.000000
1.290000	62.080000	51.710000	0.000000	0.000000	139.000000	56.000000	13.000000	0.000000
1.300000	62.220000	51.760000	0.000000	0.000000	139.000000	56.000000	14.000000	5.000000
1.310000	62.380000	51.860000	0.000000	0.000000	139.000000	56.000000	16.000000	10.000000
1.320000	62.610000	51.980000	0.000000	0.000000	139.000000	56.000000	23.000000	12.000000
1.330000	62.880000	52.160000	0.000000	0.000000	139.000000	56.000000	27.000000	18.000000
1.340000	63.140000	52.380000	0.000000	0.000000	139.000000	56.000000	26.000000	22.000000
1.350000	63.330000	52.540000	0.000000	0.000000	139.000000	56.000000	19.000000	16.000000
1.360000	63.500000	52.680000	0.000000	0.000000	139.000000	56.000000	17.000000	14.000000
1.370000	63.640000	52.760000	0.000000	0.000000	139.000000	56.000000	14.000000	8.000000
1.380000	63.810000	52.840000	0.000000	0.000000	139.000000	56.000000	17.000000	8.000000
1.390000	64.070000	52.920000	0.000000	0.000000	139.000000	56.000000	26.000000	8.000000
1.400000	64.390000	53.040000	0.000000	0.000000	141.000000	56.000000	32.000000	12.000000
1.410000	64.690000	53.190000	0.000000	0.000000	141.000000	56.000000	30.000000	15.000000
1.420000	64.830000	53.260000	0.000000	0.000000	141.000000	56.000000	14.000000	7.000000
1.430000	64.880000	53.260000	0.000000	0.000000	141.000000	56.000000	5.000000	0.000000
1.440000	64.880000	53.260000	0.000000	0.000000	141.000000	56.000000	0.000000	0.000000
1.450000	64.880000	53.260000	0.000000	0.000000	141.000000	56.000000	0.000000	0.000000
1.460000	64.880000	53.260000	0.000000	0.000000	143.000000	56.000000	0.000000	0.000000
1.470000	64.880000	53.260000	0.000000	0.000000	143.000000	56.000000	0.000000	0.000000
1.480000	64.880000	53.260000	0.000000	0.000000	142.000000	57.000000	0.000000	0.000000
1.490000	64.880000	53.320000	0.000000	0.000000	142.000000	57.000000	0.000000	6.000000
1.500000	64.990000	53.320000	0.000000	0.000000	142.000000	57.000000	11.000000	0.000000
1.510000	64.990000	53.320000	25.000000	1.000000	142.000000	57.000000	0.000000	0.000000
1.520000	64.990000	53.320000	91.000000	0.000000	142.000000	57.000000	0.000000	0.000000
1.530000	65.160000	53.590000	158.000000	0.000000	142.000000	57.000000	17.000000	27.000000
1.540000	65.220000	53.590000	246.000000	0.000000	142.000000	57.000000	6.000000	0.000000
1.550000	65.220000	53.590000	292.000000	0.000000	142.000000	57.000000	0.000000	0.000000
1.560000	65.220000	53.640000	329.000000	0.000000	142.000000	57.000000	0.000000	5.000000
1.570000	65.030000	53.640000	349.000000	0.000000	142.000000	57.000000	-19.000000	0.000000
1.580000	64.770000	53.540000	388.000000	0.000000	142.000000	57.000000	-26.000000	-10.000000
1.590000	64.290000	53.350000	438.000000	0.000000	142.000000	57.000000	-48.000000	-19.000000
1.600000	63.910000	53.120000	475.000000	0.000000	140.000000	56.000000	-38.000000	-23.000000
1.610000	63.590000	52.860000	499.000000	0.000000	140.000000	56.000000	-32.000000	-26.000000
1.620000	63.380000	52.570000	512.000000	0.000000	140.000000	56.000000	-21.000000	-29.000000
1.630000	63.220000	52.250000	515.000000	0.000000	140.000000	56.000000	-16.000000	-32.000000
1.640000	63.140000	51.880000	519.000000	0.000000	140.000000	56.000000	-8.000000	-37.000000
1.650000	63.140000	51.520000	513.000000	0.000000	140.000000	56.000000	0.000000	-36.000000
1.660000	63.230000	51.170000	527.000000	0.000000	140.000000	56.000000	9.000000	-35.000000
1.670000	63.390000	50.950000	551.000000	0.000000	140.000000	56.000000	16.000000	-22.000000
1.680000	63.640000	50.820000	581.000000	0.000000	139.000000	56.000000	25.000000	-13.000000
1.690000	63.950000	50.710000	591.000000	0.000000	139.000000	56.000000	31.000000	-11.000000
1.700000	64.320000	50.710000	602.000000	0.000000	139.000000	56.000000	37.000000	0.000000
1.710000	64.720000	50.870000	608.000000	0.000000	139.000000	56.000000	40.000000	16.000000
1.720000	65.060000	51.000000	613.000000	0.000000	139.000000	56.000000	34.000000	13.000000
1.730000	65.360000	51.230000	616.000000	0.000000	139.000000	56.000000	30.000000	23.000000
1.740000	65.610000	51.520000	619.000000	0.000000	139.000000	56.000000	25.000000	29.000000
1.750000	65.820000	51.840000	610.000000	0.000000	139.000000	56.000000	21.000000	32.000000
1.760000	65.990000	52.250000	610.000000	0.000000	140.000000	56.000000	17.000000	41.000000
1.770000	66.200000	52.720000	613.000000	0.000000	140.000000	56.000000	21.000000	47.000000
1.780000	66.470000	52.950000	613.000000	0.000000	140.000000	56.000000	27.000000	23.000000
1.790000	66.780000	53.240000	619.000000	0.000000	142.000000	57.000000	31.000000	29.000000
1.800000	67.150000	53.570000	620.000000	0.000000	142.000000	57.000000	37.000000	33.000000
1.810000	67.540000	53.790000	620.000000	0.000000	142.000000	57.000000	39.000000	22.000000
1.820000	67.670000	53.850000	622.000000	0.000000	143.000000	57.000000	13.000000	6.000000
1.830000	67.670000	53.800000	620.000000	0.000000	143.000000	57.000000	0.000000	-5.000000
1.840000	67.670000	53.800000	622.000000	0.000000	143.000000	57.000000	0.000000	0.000000
1.850000	67.670000	53.800000	625.000000	0.000000	144.000000	58.000000	0.000000	0.000000
1.860000	67.670000	53.490000	630.000000	0.000000	144.000000	58.000000	0.000000	-31.000000
1.870000	67.670000	53.170000	641.000000	0.000000	144.000000	58.000000	0.000000	-32.000000
1.880000	67.540000	52.650000	636.000000	0.000000	146.000000	57.000000	-13.000000	-52.000000
1.890000	67.370000	52.200000	647.000000	0.000000	146.000000	57.000000	-17.000000	-45.000000
1.900000	67.290000	51.790000	661.000000	0.000000	146.000000	57.000000	-8.000000	-41.000000
1.910000	67.240000	51.350000	665.000000	0.000000	146.000000	57.000000	-5.000000	-44.000000
1.920000	67.240000	51.070000	670.000000	0.000000	144.000000	57.000000	0.000000	-28.000000
1.930000	67.320000	50.910000	673.000000	0.000000	144.000000	57.000000	8.000000	-16.000000
1.940000	67.440000	50.760000	662.000000	0.000000	144.000000	57.000000	12.000000	-15.000000
1.950000	67.520000	50.760000	666.000000	0.000000	144.000000	57.000000	8.000000	0.000000
1.960000	67.590000	50.760000	672.000000	0.000000	144.000000	57.000000	7.000000	0.000000
1.970000	67.590000	50.760000	682.000000	0.000000	144.000000	57.000000	0.000000	0.000000
1.980000	67.640000	50.850000	669.000000	0.000000	144.000000	57.000000	5.000000	9.000000
1.990000	67.640000	51.020000	666.000000	0.000000	144.000000	57.000000	0.000000	17.000000
2.000000	67.590000	51.410000	652.000000	0.000000	144.000000	57.000000	-5.000000	39.000000
2.010000	67.370000	51.690000	645.000000	0.000000	144.000000	57.000000	-22.000000	28.000000
2.020000	67.010000	51.910000	617.000000	0.000000	144.000000	57.000000	-36.000000	22.000000
2.030000	66.590000	51.990000	595.000000	0.000000	144.000000	57.000000	-42.000000	8.000000
2.040000	66.070000	51.990000	595.000000	0.000000	143.000000	56.000000	-52.000000	0.000000
2.050000	65.480000	51.990000	585.000000	0.000000	143.000000	56.000000	-59.000000	0.000000
2.060000	65.140000	51.940000	585.000000	0.000000	143.000000	56.000000	-34.000000	-5.000000
2.070000	65.040000	51.940000	585.000000	0.000000	141.000000	56.000000	-10.000000	0.000000
2.080000	65.110000	51.940000	585.000000	0.000000	141.000000	56.000000	7.000000	0.000000
2.090000	65.110000	51.940000	585.000000	0.000000	141.000000	56.000000	0.000000	0.000000
2.100000	65.200000	51.940000	591.000000	0.000000	140.000000	55.000000	9.000000	0.000000
2.110000	65.440000	51.890000	602.000000	0.000000	140.000000	55.000000	24.000000	-5.000000
2.120000	65.790000	51.890000	609.000000	0.000000	140.000000	55.000000	35.000000	0.000000
2.130000	66.260000	51.890000	610.000000	0.000000	140.000000	55.000000	47.000000	0.000000
2.140000	66.740000	51.960000	619.000000	0.000000	140.000000	55.000000	48.000000	7.000000
2.150000	67.290000	51.960000	628.000000	0.000000	141.000000	56.000000	55.000000	0.000000
2.160000	67.870000	52.070000	636.000000	0.000000	141.000000	56.000000	58.000000	11.000000
2.170000	68.510000	52.200000	638.000000	0.000000	141.000000	56.000000	64.000000	13.000000
2.180000	69.010000	52.270000	638.000000	0.000000	143.000000	56.000000	50.000000	7.000000
2.190000	69.420000	52.340000	638.000000	0.000000	144.000000	57.000000	41.000000	7.000000
2.200000	69.690000	52.400000	638.000000	0.000000	146.000000	57.000000	27.000000	6.000000
2.210000	69.830000	52.400000	638.000000	0.000000	147.000000	58.000000	14.000000	0.000000
2.220000	69.880000	52.400000	642.000000	0.000000	150.000000	57.000000	5.000000	0.000000
