t	x	y	pressure	penup	azimuth	inclination	v_x	v_y
0.000000	22.150000	86.570000	93.000000	1.000000	144.000000	62.000000	0.000000	0.000000
0.010000	22.150000	86.520000	180.000000	0.000000	144.000000	62.000000	0.000000	-5.000000
0.020000	22.080000	86.520000	267.000000	0.000000	144.000000	62.000000	-7.000000	0.000000
0.030000	22.080000	86.520000	338.000000	0.000000	144.000000	62.000000	0.000000	0.000000
0.040000	22.080000	86.520000	405.000000	0.000000	144.000000	62.000000	0.000000	0.000000
0.050000	22.020000	86.430000	471.000000	0.000000	144.000000	62.000000	-6.000000	-9.000000
0.060000	21.900000	86.250000	526.000000	0.000000	144.000000	62.000000	-12.000000	-18.000000
0.070000	21.850000	86.100000	589.000000	0.000000	144.000000	62.000000	-5.000000	-15.000000
0.080000	21.800000	85.970000	647.000000	0.000000	144.000000	62.000000	-5.000000	-13.000000
0.090000	21.750000	85.730000	661.000000	0.000000	144.000000	62.000000	-5.000000	-24.000000
0.100000	21.620000	85.480000	685.000000	0.000000	144.000000	62.000000	-13.000000	-25.000000
0.110000	21.440000	85.120000	707.000000	0.000000	144.000000	62.000000	-18.000000	-36.000000
0.120000	21.230000	84.690000	719.000000	0.000000	144.000000	62.000000	-21.000000	-43.000000
0.130000	20.890000	84.130000	721.000000	0.000000	144.000000	62.000000	-34.000000	-56.000000
0.140000	20.590000	83.650000	728.000000	0.000000	146.000000	62.000000	-30.000000	-48.000000
0.150000	20.350000	83.230000	739.000000	0.000000	146.000000	62.000000	-24.000000	-42.000000
0.160000	20.290000	82.750000	743.000000	0.000000	146.000000	62.000000	-6.000000	-48.000000
0.170000	20.340000	82.270000	749.000000	0.000000	146.000000	62.000000	5.000000	-48.000000
0.180000	20.420000	81.800000	754.000000	0.000000	144.000000	61.000000	8.000000	-47.000000
0.190000	20.670000	81.350000	752.000000	0.000000	144.000000	61.000000	25.000000	-45.000000
0.200000	21.030000	80.940000	754.000000	0.000000	144.000000	61.000000	36.000000	-41.000000
0.210000	21.470000	80.590000	752.000000	0.000000	142.000000	61.000000	44.000000	-35.000000
0.220000	21.890000	80.290000	749.000000	0.000000	141.000000	61.000000	42.000000	-30.000000
0.230000	22.300000	80.090000	748.000000	0.000000	141.000000	61.000000	41.000000	-20.000000
0.240000	22.750000	80.030000	745.000000	0.000000	139.000000	61.000000	45.000000	-6.000000
0.250000	23.110000	80.030000	745.000000	0.000000	139.000000	61.000000	36.000000	0.000000
0.260000	23.400000	80.140000	743.000000	0.000000	139.000000	61.000000	29.000000	11.000000
0.270000	23.750000	80.320000	740.000000	0.000000	139.000000	61.000000	35.000000	18.000000
0.280000	23.910000	80.570000	740.000000	0.000000	139.000000	61.000000	16.000000	25.000000
0.290000	23.910000	80.790000	742.000000	0.000000	139.000000	61.000000	0.000000	22.000000
0.300000	23.910000	81.010000	746.000000	0.000000	139.000000	61.000000	0.000000	22.000000
0.310000	23.810000	81.230000	746.000000	0.000000	139.000000	61.000000	-10.000000	22.000000
0.320000	23.610000	81.410000	745.000000	0.000000	139.000000	61.000000	-20.000000	18.000000
0.330000	23.160000	81.530000	746.000000	0.000000	139.000000	61.000000	-45.000000	12.000000
0.340000	22.430000	81.530000	748.000000	0.000000	139.000000	61.000000	-73.000000	0.000000
0.350000	21.520000	81.470000	746.000000	0.000000	139.000000	61.000000	-91.000000	-6.000000
0.360000	20.470000	81.360000	751.000000	0.000000	141.000000	60.000000	-105.000000	-11.000000
0.370000	19.300000	81.250000	746.000000	0.000000	141.000000	60.000000	-117.000000	-11.000000
0.380000	18.060000	81.120000	748.000000	0.000000	141.000000	61.000000	-124.000000	-13.000000
0.390000	16.570000	80.960000	755.000000	0.000000	141.000000	61.000000	-149.000000	-16.000000
0.400000	15.100000	80.760000	763.000000	0.000000	141.000000	61.000000	-147.000000	-20.000000
0.410000	13.650000	80.560000	761.000000	0.000000	140.000000	62.000000	-145.000000	-20.000000
0.420000	12.570000	80.390000	750.000000	0.000000	140.000000	62.000000	-108.000000	-17.000000
0.430000	11.740000	80.240000	753.000000	0.000000	138.000000	63.000000	-83.000000	-15.000000
0.440000	11.080000	80.100000	750.000000	0.000000	137.000000	63.000000	-66.000000	-14.000000
0.450000	10.930000	80.050000	757.000000	0.000000	137.000000	63.000000	-15.000000	-5.000000
0.460000	11.210000	80.050000	755.000000	0.000000	133.000000	63.000000	28.000000	0.000000
0.470000	11.780000	80.170000	755.000000	0.000000	133.000000	63.000000	57.000000	12.000000
0.480000	13.060000	80.460000	758.000000	0.000000	133.000000	63.000000	128.000000	29.000000
0.490000	15.120000	80.870000	757.000000	0.000000	133.000000	63.000000	206.000000	41.000000
0.500000	17.710000	81.250000	767.000000	0.000000	133.000000	63.000000	259.000000	38.000000
0.510000	20.740000	81.680000	770.000000	0.000000	137.000000	63.000000	303.000000	43.000000
0.520000	24.010000	82.140000	770.000000	0.000000	138.000000	63.000000	327.000000	46.000000
0.530000	27.450000	82.550000	768.000000	0.000000	138.000000	63.000000	344.000000	41.000000
0.540000	30.140000	82.810000	770.000000	0.000000	141.000000	63.000000	269.000000	26.000000
0.550000	32.190000	82.980000	771.000000	0.000000	146.000000	62.000000	205.000000	17.000000
0.560000	33.820000	82.980000	776.000000	0.000000	148.000000	61.000000	163.000000	0.000000
0.570000	34.870000	82.980000	776.000000	0.000000	151.000000	61.000000	105.000000	0.000000
0.580000	35.400000	82.920000	779.000000	0.000000	151.000000	61.000000	53.000000	-6.000000
0.590000	35.570000	82.920000	787.000000	0.000000	154.000000	60.000000	17.000000	0.000000
0.600000	35.570000	82.920000	776.000000	0.000000	156.000000	61.000000	0.000000	0.000000
0.610000	35.410000	82.920000	610.000000	0.000000	156.000000	61.000000	-16.000000	0.000000
0.620000	35.180000	82.990000	13.000000	1.000000	158.000000	60.000000	0.000000	0.000000
0.630000	35.180000	82.990000	0.000000	0.000000	158.000000	60.000000	0.000000	0.000000
0.640000	33.480000	83.330000	0.000000	0.000000	158.000000	60.000000	-170.000000	34.000000
0.650000	32.040000	83.490000	0.000000	0.000000	158.000000	60.000000	-144.000000	16.000000
0.660000	30.150000	83.650000	0.000000	0.000000	158.000000	60.000000	-189.000000	16.000000
0.670000	28.460000	83.650000	0.000000	0.000000	157.000000	61.000000	-169.000000	0.000000
0.680000	26.910000	83.570000	0.000000	0.000000	157.000000	61.000000	-155.000000	-8.000000
0.690000	25.340000	83.370000	0.000000	0.000000	156.000000	61.000000	-157.000000	-20.000000
0.700000	23.840000	83.070000	0.000000	0.000000	155.000000	62.000000	-150.000000	-30.000000
0.710000	22.320000	82.690000	0.000000	0.000000	153.000000	61.000000	-152.000000	-38.000000
0.720000	20.770000	82.260000	0.000000	0.000000	150.000000	62.000000	-155.000000	-43.000000
0.730000	19.400000	81.820000	0.000000	0.000000	147.000000	62.000000	-137.000000	-44.000000
0.740000	18.480000	81.570000	0.000000	0.000000	144.000000	62.000000	-92.000000	-25.000000
0.750000	17.850000	81.450000	0.000000	0.000000	143.000000	62.000000	-63.000000	-12.000000
0.760000	17.500000	81.450000	0.000000	0.000000	140.000000	62.000000	-35.000000	0.000000
0.770000	17.220000	81.520000	0.000000	0.000000	138.000000	63.000000	-28.000000	7.000000
0.780000	17.070000	81.590000	0.000000	0.000000	135.000000	63.000000	-15.000000	7.000000
0.790000	17.010000	81.690000	0.000000	0.000000	135.000000	63.000000	-6.000000	10.000000
0.800000	17.010000	81.780000	0.000000	0.000000	133.000000	62.000000	0.000000	9.000000
0.810000	17.100000	81.870000	0.000000	0.000000	133.000000	62.000000	9.000000	9.000000
0.820000	17.400000	82.020000	0.000000	0.000000	135.000000	63.000000	30.000000	15.000000
0.830000	17.820000	82.220000	0.000000	0.000000	135.000000	63.000000	42.000000	20.000000
0.840000	18.470000	82.410000	0.000000	0.000000	135.000000	63.000000	65.000000	19.000000
0.850000	19.160000	82.660000	0.000000	0.000000	137.000000	63.000000	69.000000	25.000000
0.860000	19.830000	82.940000	0.000000	0.000000	137.000000	63.000000	67.000000	28.000000
0.870000	20.460000	83.100000	0.000000	0.000000	137.000000	63.000000	63.000000	16.000000
0.880000	20.890000	83.260000	0.000000	0.000000	138.000000	63.000000	43.000000	16.000000
0.890000	21.330000	83.410000	0.000000	0.000000	138.000000	63.000000	44.000000	15.000000
0.900000	21.700000	83.580000	0.000000	0.000000	140.000000	62.000000	37.000000	17.000000
0.910000	22.020000	83.750000	0.000000	0.000000	140.000000	62.000000	32.000000	17.000000
0.920000	22.420000	84.000000	0.000000	0.000000	140.000000	62.000000	40.000000	25.000000
0.930000	22.830000	84.280000	0.000000	0.000000	143.000000	62.000000	41.000000	28.000000
0.940000	23.250000	84.580000	0.000000	0.000000	143.000000	62.000000	42.000000	30.000000
0.950000	23.690000	84.860000	0.000000	0.000000	143.000000	62.000000	44.000000	28.000000
0.960000	24.030000	85.060000	0.000000	0.000000	144.000000	62.000000	34.000000	20.000000
0.970000	24.310000	85.210000	0.000000	0.000000	144.000000	62.000000	28.000000	15.000000
0.980000	24.560000	85.280000	0.000000	0.000000	147.000000	62.000000	25.000000	7.000000
0.990000	24.560000	85.280000	95.000000	1.000000	147.000000	62.000000	0.000000	0.000000
1.000000	24.960000	85.480000	171.000000	0.000000	149.000000	63.000000	40.000000	20.000000
1.010000	25.030000	85.650000	312.000000	0.000000	149.000000	63.000000	7.000000	17.000000
1.020000	25.030000	85.730000	440.000000	0.000000	151.000000	63.000000	0.000000	8.000000
1.030000	25.030000	85.840000	514.000000	0.000000	151.000000	63.000000	0.000000	11.000000
1.040000	24.860000	85.960000	588.000000	0.000000	151.000000	63.000000	-17.000000	12.000000
1.050000	24.570000	86.050000	627.000000	0.000000	150.000000	64.000000	-29.000000	9.000000
1.060000	24.180000	86.140000	644.000000	0.000000	148.000000	63.000000	-39.000000	9.000000
1.070000	23.640000	86.270000	696.000000	0.000000	148.000000	63.000000	-54.000000	13.000000
1.080000	23.030000	86.430000	722.000000	0.000000	148.000000	63.000000	-61.000000	16.000000
1.090000	22.360000	86.430000	737.000000	0.000000	148.000000	63.000000	-67.000000	0.000000
1.100000	21.530000	86.430000	753.000000	0.000000	146.000000	63.000000	-83.000000	0.000000
1.110000	20.630000	86.380000	790.000000	0.000000	145.000000	64.000000	-90.000000	-5.000000
1.120000	19.690000	86.170000	808.000000	0.000000	145.000000	64.000000	-94.000000	-21.000000
1.130000	18.780000	85.960000	820.000000	0.000000	143.000000	63.000000	-91.000000	-21.000000
1.140000	17.860000	85.700000	825.000000	0.000000	143.000000	63.000000	-92.000000	-26.000000
1.150000	16.920000	85.390000	828.000000	0.000000	143.000000	63.000000	-94.000000	-31.000000
1.160000	16.050000	84.990000	834.000000	0.000000	141.000000	64.000000	-87.000000	-40.000000
1.170000	15.230000	84.470000	834.000000	0.000000	140.000000	63.000000	-82.000000	-52.000000
1.180000	14.510000	83.880000	836.000000	0.000000	140.000000	63.000000	-72.000000	-59.000000
1.190000	13.910000	83.370000	831.000000	0.000000	140.000000	63.000000	-60.000000	-51.000000
1.200000	13.440000	82.840000	833.000000	0.000000	140.000000	63.000000	-47.000000	-53.000000
1.210000	13.040000	82.250000	836.000000	0.000000	137.000000	63.000000	-40.000000	-59.000000
1.220000	12.800000	81.650000	833.000000	0.000000	137.000000	63.000000	-24.000000	-60.000000
1.230000	12.590000	81.020000	837.000000	0.000000	135.000000	63.000000	-21.000000	-63.000000
1.240000	12.460000	80.390000	834.000000	0.000000	135.000000	63.000000	-13.000000	-63.000000
1.250000	12.390000	79.780000	833.000000	0.000000	133.000000	62.000000	-7.000000	-61.000000
1.260000	12.460000	79.110000	831.000000	0.000000	132.000000	63.000000	7.000000	-67.000000
1.270000	12.610000	78.440000	833.000000	0.000000	130.000000	62.000000	15.000000	-67.000000
1.280000	12.810000	77.860000	831.000000	0.000000	130.000000	62.000000	20.000000	-58.000000
1.290000	13.250000	77.340000	828.000000	0.000000	130.000000	62.000000	44.000000	-52.000000
1.300000	13.860000	76.940000	833.000000	0.000000	130.000000	62.000000	61.000000	-40.000000
1.310000	14.460000	76.500000	834.000000	0.000000	132.000000	63.000000	60.000000	-44.000000
1.320000	15.440000	76.240000	839.000000	0.000000	132.000000	63.000000	98.000000	-26.000000
1.330000	16.680000	76.110000	843.000000	0.000000	132.000000	63.000000	124.000000	-13.000000
1.340000	18.250000	75.970000	845.000000	0.000000	133.000000	63.000000	157.000000	-14.000000
1.350000	19.860000	75.970000	846.000000	0.000000	133.000000	63.000000	161.000000	0.000000
1.360000	21.500000	76.020000	846.000000	0.000000	135.000000	64.000000	164.000000	5.000000
1.370000	23.140000	76.020000	846.000000	0.000000	137.000000	63.000000	164.000000	0.000000
1.380000	24.450000	75.970000	846.000000	0.000000	138.000000	64.000000	131.000000	-5.000000
1.390000	25.670000	75.970000	846.000000	0.000000	140.000000	63.000000	122.000000	0.000000
1.400000	26.830000	76.020000	846.000000	0.000000	141.000000	64.000000	116.000000	5.000000
1.410000	28.000000	76.190000	851.000000	0.000000	141.000000	64.000000	117.000000	17.000000
1.420000	29.190000	76.420000	846.000000	0.000000	143.000000	63.000000	119.000000	23.000000
1.430000	30.400000	76.710000	843.000000	0.000000	143.000000	63.000000	121.000000	29.000000
1.440000	31.630000	77.100000	842.000000	0.000000	143.000000	63.000000	123.000000	39.000000
1.450000	32.650000	77.560000	840.000000	0.000000	146.000000	63.000000	102.000000	46.000000
1.460000	33.530000	78.000000	834.000000	0.000000	146.000000	63.000000	88.000000	44.000000
1.470000	34.220000	78.470000	834.000000	0.000000	146.000000	63.000000	69.000000	47.000000
1.480000	34.800000	78.970000	837.000000	0.000000	147.000000	62.000000	58.000000	50.000000
1.490000	35.300000	79.460000	840.000000	0.000000	147.000000	62.000000	50.000000	49.000000
1.500000	35.700000	80.000000	843.000000	0.000000	149.000000	63.000000	40.000000	54.000000
1.510000	36.100000	80.570000	848.000000	0.000000	150.000000	62.000000	40.000000	57.000000
1.520000	36.400000	81.180000	854.000000	0.000000	152.000000	62.000000	30.000000	61.000000
1.530000	36.640000	81.790000	861.000000	0.000000	154.000000	63.000000	24.000000	61.000000
1.540000	36.640000	82.400000	860.000000	0.000000	154.000000	63.000000	0.000000	61.000000
1.550000	36.280000	83.010000	860.000000	0.000000	155.000000	63.000000	-36.000000	61.000000
1.560000	35.720000	83.630000	852.000000	0.000000	155.000000	63.000000	-56.000000	62.000000
1.570000	34.630000	84.250000	837.000000	0.000000	156.000000	62.000000	-109.000000	62.000000
1.580000	33.080000	84.720000	822.000000	0.000000	156.000000	62.000000	-155.000000	47.000000
1.590000	31.210000	85.150000	819.000000	0.000000	156.000000	62.000000	-187.000000	43.000000
1.600000	29.100000	85.260000	827.000000	0.000000	155.000000	62.000000	-211.000000	11.000000
1.610000	26.800000	85.180000	834.000000	0.000000	154.000000	63.000000	-230.000000	-8.000000
1.620000	24.370000	84.930000	843.000000	0.000000	152.000000	62.000000	-243.000000	-25.000000
1.630000	21.970000	84.440000	863.000000	0.000000	150.000000	62.000000	-240.000000	-49.000000
1.640000	19.480000	83.780000	863.000000	0.000000	147.000000	62.000000	-249.000000	-66.000000
1.650000	16.940000	82.870000	860.000000	0.000000	147.000000	62.000000	-254.000000	-91.000000
1.660000	14.520000	81.960000	845.000000	0.000000	144.000000	62.000000	-242.000000	-91.000000
1.670000	12.480000	81.050000	836.000000	0.000000	143.000000	63.000000	-204.000000	-91.000000
1.680000	10.680000	80.240000	823.000000	0.000000	140.000000	63.000000	-180.000000	-81.000000
1.690000	9.680000	79.600000	721.000000	0.000000	137.000000	63.000000	-100.000000	-64.000000
1.700000	9.460000	79.080000	516.000000	0.000000	135.000000	64.000000	-22.000000	-52.000000
1.710000	9.770000	78.740000	170.000000	0.000000	133.000000	63.000000	31.000000	-34.000000
1.720000	9.770000	78.740000	0.000000	1.000000	132.000000	64.000000	0.000000	0.000000
1.730000	12.340000	78.760000	0.000000	0.000000	132.000000	64.000000	257.000000	2.000000
1.740000	14.130000	79.330000	0.000000	0.000000	129.000000	64.000000	179.000000	57.000000
1.750000	15.610000	79.940000	0.000000	0.000000	129.000000	64.000000	148.000000	61.000000
1.760000	16.810000	80.570000	0.000000	0.000000	129.000000	64.000000	120.000000	63.000000
1.770000	17.810000	80.700000	0.000000	0.000000	125.000000	64.000000	100.000000	13.000000
1.780000	18.650000	80.810000	0.000000	0.000000	124.000000	63.000000	84.000000	11.000000
1.790000	19.210000	80.750000	0.000000	0.000000	121.000000	63.000000	56.000000	-6.000000
1.800000	19.570000	80.590000	0.000000	0.000000	118.000000	62.000000	36.000000	-16.000000
1.810000	19.380000	80.300000	0.000000	0.000000	115.000000	62.000000	-19.000000	-29.000000
1.820000	18.970000	79.980000	0.000000	0.000000	113.000000	61.000000	-41.000000	-32.000000
1.830000	18.410000	79.610000	0.000000	0.000000	112.000000	60.000000	-56.000000	-37.000000
1.840000	17.910000	79.220000	0.000000	0.000000	112.000000	60.000000	-50.000000	-39.000000
1.850000	17.450000	78.940000	0.000000	0.000000	114.000000	61.000000	-46.000000	-28.000000
1.860000	17.080000	78.740000	0.000000	0.000000	117.000000	61.000000	-37.000000	-20.000000
1.870000	16.790000	78.620000	0.000000	0.000000	120.000000	62.000000	-29.000000	-12.000000
1.880000	16.530000	78.490000	0.000000	0.000000	123.000000	62.000000	-26.000000	-13.000000
1.890000	16.320000	78.350000	0.000000	0.000000	126.000000	62.000000	-21.000000	-14.000000
1.900000	16.180000	78.200000	0.000000	0.000000	130.000000	62.000000	-14.000000	-15.000000
1.910000	16.110000	78.030000	0.000000	0.000000	133.000000	62.000000	-7.000000	-17.000000
1.920000	16.060000	77.840000	0.000000	0.000000	137.000000	63.000000	-5.000000	-19.000000
1.930000	15.980000	77.630000	0.000000	0.000000	140.000000	63.000000	-8.000000	-21.000000
1.940000	15.880000	77.430000	0.000000	0.000000	141.000000	64.000000	-10.000000	-20.000000
1.950000	15.810000	77.270000	0.000000	0.000000	143.000000	64.000000	-7.000000	-16.000000
1.960000	15.810000	77.140000	0.000000	0.000000	145.000000	65.000000	0.000000	-13.000000
1.970000	15.810000	77.140000	0.000000	0.000000	145.000000	65.000000	0.000000	0.000000
1.980000	15.890000	77.140000	0.000000	0.000000	147.000000	65.000000	8.000000	0.000000
1.990000	15.970000	77.220000	0.000000	0.000000	147.000000	65.000000	8.000000	8.000000
2.000000	16.060000	77.330000	0.000000	0.000000	147.000000	65.000000	9.000000	11.000000
2.010000	16.160000	77.450000	0.000000	0.000000	145.000000	65.000000	10.000000	12.000000
2.020000	16.240000	77.580000	0.000000	0.000000	142.000000	65.000000	8.000000	13.000000
2.030000	16.350000	77.700000	0.000000	0.000000	140.000000	65.000000	11.000000	12.000000
2.040000	16.500000	77.830000	0.000000	0.000000	138.000000	64.000000	15.000000	13.000000
2.050000	16.670000	77.980000	0.000000	0.000000	138.000000	64.000000	17.000000	15.000000
2.060000	16.860000	78.160000	0.000000	0.000000	137.000000	63.000000	19.000000	18.000000
2.070000	17.030000	78.340000	0.000000	0.000000	135.000000	63.000000	17.000000	18.000000
2.080000	17.220000	78.540000	0.000000	0.000000	135.000000	63.000000	19.000000	20.000000
2.090000	17.430000	78.760000	0.000000	0.000000	135.000000	63.000000	21.000000	22.000000
2.100000	17.700000	78.980000	0.000000	0.000000	137.000000	63.000000	27.000000	22.000000
2.110000	17.700000	78.980000	100.000000	1.000000	137.000000	63.000000	0.000000	0.000000
2.120000	17.820000	79.430000	198.000000	0.000000	137.000000	63.000000	12.000000	45.000000
2.130000	17.820000	79.650000	294.000000	0.000000	137.000000	63.000000	0.000000	22.000000
2.140000	17.820000	79.850000	428.000000	0.000000	135.000000	64.000000	0.000000	20.000000
2.150000	17.750000	80.040000	489.000000	0.000000	135.000000	64.000000	-7.000000	19.000000
2.160000	17.640000	80.190000	533.000000	0.000000	135.000000	64.000000	-11.000000	15.000000
2.170000	17.450000	80.290000	577.000000	0.000000	133.000000	65.000000	-19.000000	10.000000
2.180000	17.210000	80.370000	594.000000	0.000000	133.000000	65.000000	-24.000000	8.000000
2.190000	16.820000	80.280000	591.000000	0.000000	133.000000	65.000000	-39.000000	-9.000000
2.200000	16.330000	80.080000	606.000000	0.000000	132.000000	64.000000	-49.000000	-20.000000
