t	x	y	pressure	penup	azimuth	inclination	v_x	v_y
0.000000	91.320000	65.900000	88.000000	1.000000	153.000000	54.000000	0.000000	0.000000
0.010000	91.490000	66.160000	91.000000	0.000000	155.000000	54.000000	17.000000	26.000000
0.020000	91.540000	66.240000	91.000000	0.000000	155.000000	54.000000	5.000000	8.000000
0.030000	91.630000	66.150000	98.000000	0.000000	155.000000	55.000000	9.000000	-9.000000
0.040000	91.820000	65.950000	119.000000	0.000000	155.000000	55.000000	19.000000	-20.000000
0.050000	92.030000	65.540000	139.000000	0.000000	157.000000	56.000000	21.000000	-41.000000
0.060000	92.200000	64.880000	179.000000	0.000000	157.000000	56.000000	17.000000	-66.000000
0.070000	92.290000	64.050000	198.000000	0.000000	157.000000	56.000000	9.000000	-83.000000
0.080000	92.290000	62.980000	218.000000	0.000000	157.000000	56.000000	0.000000	-107.000000
0.090000	92.420000	61.950000	209.000000	0.000000	157.000000	56.000000	13.000000	-103.000000
0.100000	92.530000	60.950000	212.000000	0.000000	156.000000	55.000000	11.000000	-100.000000
0.110000	92.800000	60.160000	212.000000	0.000000	156.000000	55.000000	27.000000	-79.000000
0.120000	93.150000	59.570000	216.000000	0.000000	155.000000	54.000000	35.000000	-59.000000
0.130000	93.590000	59.110000	214.000000	0.000000	155.000000	54.000000	44.000000	-46.000000
0.140000	94.080000	58.920000	220.000000	0.000000	153.000000	55.000000	49.000000	-19.000000
0.150000	94.530000	59.010000	183.000000	0.000000	153.000000	55.000000	45.000000	9.000000
0.160000	94.940000	59.280000	179.000000	0.000000	151.000000	54.000000	41.000000	27.000000
0.170000	95.060000	59.750000	171.000000	0.000000	151.000000	54.000000	12.000000	47.000000
0.180000	94.820000	60.190000	191.000000	0.000000	151.000000	54.000000	-24.000000	44.000000
0.190000	94.340000	60.590000	212.000000	0.000000	150.000000	54.000000	-48.000000	40.000000
0.200000	93.500000	60.840000	228.000000	0.000000	150.000000	54.000000	-84.000000	25.000000
0.210000	92.470000	61.000000	237.000000	0.000000	151.000000	54.000000	-103.000000	16.000000
0.220000	91.320000	61.130000	237.000000	0.000000	151.000000	54.000000	-115.000000	13.000000
0.230000	89.970000	61.230000	242.000000	0.000000	151.000000	54.000000	-135.000000	10.000000
0.240000	88.600000	61.230000	273.000000	0.000000	153.000000	54.000000	-137.000000	0.000000
0.250000	87.210000	61.290000	311.000000	0.000000	153.000000	54.000000	-139.000000	6.000000
0.260000	86.540000	61.290000	305.000000	0.000000	153.000000	54.000000	-67.000000	0.000000
0.270000	86.440000	61.290000	315.000000	0.000000	155.000000	54.000000	-10.000000	0.000000
0.280000	86.720000	61.200000	324.000000	0.000000	156.000000	53.000000	28.000000	-9.000000
0.290000	87.880000	61.120000	342.000000	0.000000	156.000000	53.000000	116.000000	-8.000000
0.300000	89.890000	61.120000	373.000000	0.000000	155.000000	54.000000	201.000000	0.000000
0.310000	92.460000	61.070000	381.000000	0.000000	155.000000	54.000000	257.000000	-5.000000
0.320000	95.710000	61.070000	386.000000	0.000000	155.000000	54.000000	325.000000	0.000000
0.330000	99.260000	61.150000	379.000000	0.000000	156.000000	55.000000	355.000000	8.000000
0.340000	103.020000	61.290000	386.000000	0.000000	156.000000	55.000000	376.000000	14.000000
0.350000	106.690000	61.490000	376.000000	0.000000	156.000000	55.000000	367.000000	20.000000
0.360000	109.870000	61.600000	367.000000	0.000000	157.000000	56.000000	318.000000	11.000000
0.370000	112.720000	61.730000	343.000000	0.000000	157.000000	56.000000	285.000000	13.000000
0.380000	114.670000	61.870000	260.000000	0.000000	158.000000	56.000000	195.000000	14.000000
0.390000	115.650000	62.060000	95.000000	0.000000	158.000000	56.000000	98.000000	19.000000
0.400000	115.650000	62.060000	0.000000	1.000000	160.000000	56.000000	0.000000	0.000000
0.410000	115.630000	62.470000	0.000000	0.000000	160.000000	56.000000	-2.000000	41.000000
0.420000	114.820000	62.710000	0.000000	0.000000	161.000000	57.000000	-81.000000	24.000000
0.430000	113.710000	62.950000	0.000000	0.000000	161.000000	57.000000	-111.000000	24.000000
0.440000	112.270000	63.160000	0.000000	0.000000	160.000000	56.000000	-144.000000	21.000000
0.450000	110.470000	63.330000	0.000000	0.000000	160.000000	56.000000	-180.000000	17.000000
0.460000	108.440000	63.330000	0.000000	0.000000	158.000000	56.000000	-203.000000	0.000000
0.470000	106.500000	63.250000	0.000000	0.000000	158.000000	55.000000	-194.000000	-8.000000
0.480000	104.500000	63.030000	0.000000	0.000000	158.000000	55.000000	-200.000000	-22.000000
0.490000	102.470000	62.780000	0.000000	0.000000	156.000000	55.000000	-203.000000	-25.000000
0.500000	100.590000	62.490000	0.000000	0.000000	155.000000	54.000000	-188.000000	-29.000000
0.510000	98.740000	62.190000	0.000000	0.000000	153.000000	54.000000	-185.000000	-30.000000
0.520000	97.160000	61.870000	0.000000	0.000000	153.000000	54.000000	-158.000000	-32.000000
0.530000	95.740000	61.630000	0.000000	0.000000	152.000000	54.000000	-142.000000	-24.000000
0.540000	95.740000	61.630000	98.000000	1.000000	152.000000	54.000000	0.000000	0.000000
0.550000	93.940000	61.310000	67.000000	0.000000	152.000000	54.000000	-180.000000	-32.000000
0.560000	93.940000	61.310000	0.000000	1.000000	152.000000	54.000000	0.000000	0.000000
0.570000	93.630000	61.610000	0.000000	0.000000	152.000000	54.000000	-31.000000	30.000000
0.580000	93.900000	61.770000	0.000000	0.000000	152.000000	54.000000	27.000000	16.000000
0.590000	94.260000	61.990000	0.000000	0.000000	152.000000	54.000000	36.000000	22.000000
0.600000	94.700000	62.240000	0.000000	0.000000	152.000000	54.000000	44.000000	25.000000
0.610000	95.310000	62.450000	0.000000	0.000000	152.000000	54.000000	61.000000	21.000000
0.620000	96.040000	62.660000	0.000000	0.000000	152.000000	54.000000	73.000000	21.000000
0.630000	96.820000	62.870000	0.000000	0.000000	152.000000	54.000000	78.000000	21.000000
0.640000	97.610000	63.080000	0.000000	0.000000	152.000000	54.000000	79.000000	21.000000
0.650000	98.440000	63.320000	0.000000	0.000000	152.000000	53.000000	83.000000	24.000000
0.660000	99.120000	63.580000	0.000000	0.000000	153.000000	53.000000	68.000000	26.000000
0.670000	99.710000	63.860000	0.000000	0.000000	153.000000	53.000000	59.000000	28.000000
0.680000	99.950000	64.090000	0.000000	0.000000	153.000000	53.000000	24.000000	23.000000
0.690000	99.950000	64.090000	103.000000	1.000000	154.000000	53.000000	0.000000	0.000000
0.700000	99.750000	64.690000	141.000000	0.000000	153.000000	54.000000	-20.000000	60.000000
0.710000	99.160000	65.060000	161.000000	0.000000	153.000000	54.000000	-59.000000	37.000000
0.720000	98.250000	65.290000	183.000000	0.000000	155.000000	54.000000	-91.000000	23.000000
0.730000	97.120000	65.450000	210.000000	0.000000	155.000000	54.000000	-113.000000	16.000000
0.740000	95.500000	65.510000	256.000000	0.000000	156.000000	55.000000	-162.000000	6.000000
0.750000	93.460000	65.370000	299.000000	0.000000	156.000000	55.000000	-204.000000	-14.000000
0.760000	91.140000	65.120000	334.000000	0.000000	156.000000	55.000000	-232.000000	-25.000000
0.770000	88.910000	64.540000	379.000000	0.000000	158.000000	55.000000	-223.000000	-58.000000
0.780000	86.750000	63.710000	402.000000	0.000000	158.000000	55.000000	-216.000000	-83.000000
0.790000	85.240000	62.720000	412.000000	0.000000	158.000000	55.000000	-151.000000	-99.000000
0.800000	84.140000	61.710000	409.000000	0.000000	158.000000	55.000000	-110.000000	-101.000000
0.810000	84.000000	60.700000	410.000000	0.000000	156.000000	55.000000	-14.000000	-101.000000
0.820000	84.750000	59.680000	413.000000	0.000000	157.000000	54.000000	75.000000	-102.000000
0.830000	86.080000	58.600000	420.000000	0.000000	157.000000	54.000000	133.000000	-108.000000
0.840000	88.400000	57.940000	418.000000	0.000000	156.000000	55.000000	232.000000	-66.000000
0.850000	91.490000	57.560000	427.000000	0.000000	155.000000	54.000000	309.000000	-38.000000
0.860000	95.100000	57.470000	435.000000	0.000000	154.000000	55.000000	361.000000	-9.000000
0.870000	98.950000	57.520000	448.000000	0.000000	154.000000	55.000000	385.000000	5.000000
0.880000	102.620000	57.670000	448.000000	0.000000	153.000000	56.000000	367.000000	15.000000
0.890000	106.170000	57.770000	438.000000	0.000000	152.000000	57.000000	355.000000	10.000000
0.900000	109.010000	57.830000	438.000000	0.000000	154.000000	57.000000	284.000000	6.000000
0.910000	111.170000	57.830000	415.000000	0.000000	153.000000	58.000000	216.000000	0.000000
0.920000	112.870000	57.830000	373.000000	0.000000	154.000000	58.000000	170.000000	0.000000
0.930000	113.680000	57.830000	255.000000	0.000000	154.000000	58.000000	81.000000	0.000000
0.940000	113.760000	57.890000	80.000000	0.000000	156.000000	59.000000	8.000000	6.000000
0.950000	113.760000	57.890000	0.000000	1.000000	157.000000	59.000000	0.000000	0.000000
0.960000	112.320000	58.250000	0.000000	0.000000	157.000000	59.000000	-144.000000	36.000000
0.970000	110.820000	58.480000	0.000000	0.000000	157.000000	59.000000	-150.000000	23.000000
0.980000	109.010000	58.690000	0.000000	0.000000	157.000000	59.000000	-181.000000	21.000000
0.990000	107.020000	58.880000	0.000000	0.000000	157.000000	59.000000	-199.000000	19.000000
1.000000	104.860000	59.010000	0.000000	0.000000	157.000000	60.000000	-216.000000	13.000000
1.010000	102.580000	59.110000	0.000000	0.000000	155.000000	60.000000	-228.000000	10.000000
1.020000	100.440000	59.110000	0.000000	0.000000	153.000000	59.000000	-214.000000	0.000000
1.030000	98.580000	59.050000	0.000000	0.000000	152.000000	59.000000	-186.000000	-6.000000
1.040000	96.900000	58.920000	0.000000	0.000000	150.000000	58.000000	-168.000000	-13.000000
1.050000	95.760000	58.740000	0.000000	0.000000	149.000000	58.000000	-114.000000	-18.000000
1.060000	94.980000	58.560000	0.000000	0.000000	149.000000	58.000000	-78.000000	-18.000000
1.070000	94.440000	58.410000	0.000000	0.000000	149.000000	58.000000	-54.000000	-15.000000
1.080000	94.260000	58.410000	0.000000	0.000000	148.000000	57.000000	-18.000000	0.000000
1.090000	94.260000	58.490000	0.000000	0.000000	149.000000	56.000000	0.000000	8.000000
1.100000	94.320000	58.630000	0.000000	0.000000	149.000000	56.000000	6.000000	14.000000
1.110000	94.530000	58.810000	0.000000	0.000000	150.000000	55.000000	21.000000	18.000000
1.120000	94.800000	59.020000	0.000000	0.000000	150.000000	55.000000	27.000000	21.000000
1.130000	95.170000	59.180000	0.000000	0.000000	150.000000	55.000000	37.000000	16.000000
1.140000	95.570000	59.330000	0.000000	0.000000	150.000000	55.000000	40.000000	15.000000
1.150000	95.960000	59.450000	0.000000	0.000000	149.000000	55.000000	39.000000	12.000000
1.160000	96.290000	59.500000	0.000000	0.000000	149.000000	55.000000	33.000000	5.000000
1.170000	96.580000	59.500000	0.000000	0.000000	147.000000	55.000000	29.000000	0.000000
1.180000	96.760000	59.500000	0.000000	0.000000	147.000000	55.000000	18.000000	0.000000
1.190000	96.890000	59.550000	0.000000	0.000000	147.000000	55.000000	13.000000	5.000000
1.200000	96.990000	59.650000	0.000000	0.000000	146.000000	54.000000	10.000000	10.000000
1.210000	96.990000	59.650000	10.000000	0.000000	146.000000	54.000000	0.000000	0.000000
1.220000	96.990000	59.650000	25.000000	1.000000	146.000000	54.000000	0.000000	0.000000
1.230000	96.400000	59.990000	65.000000	0.000000	146.000000	54.000000	-59.000000	34.000000
1.240000	95.810000	60.220000	107.000000	0.000000	148.000000	54.000000	-59.000000	23.000000
1.250000	95.100000	60.120000	160.000000	0.000000	148.000000	54.000000	-71.000000	-10.000000
1.260000	94.300000	59.970000	186.000000	0.000000	148.000000	54.000000	-80.000000	-15.000000
1.270000	93.710000	59.710000	171.000000	0.000000	148.000000	54.000000	-59.000000	-26.000000
1.280000	93.510000	59.470000	176.000000	0.000000	150.000000	54.000000	-20.000000	-24.000000
1.290000	93.570000	59.240000	171.000000	0.000000	151.000000	53.000000	6.000000	-23.000000
1.300000	93.900000	59.050000	175.000000	0.000000	151.000000	53.000000	33.000000	-19.000000
1.310000	94.460000	58.980000	184.000000	0.000000	151.000000	53.000000	56.000000	-7.000000
1.320000	95.160000	58.980000	175.000000	0.000000	151.000000	53.000000	70.000000	0.000000
1.330000	95.740000	58.980000	143.000000	0.000000	151.000000	53.000000	58.000000	0.000000
1.340000	96.060000	59.040000	144.000000	0.000000	151.000000	53.000000	32.000000	6.000000
1.350000	96.210000	59.040000	156.000000	0.000000	151.000000	53.000000	15.000000	0.000000
1.360000	96.090000	59.040000	171.000000	0.000000	149.000000	53.000000	-12.000000	0.000000
1.370000	95.770000	59.040000	186.000000	0.000000	149.000000	53.000000	-32.000000	0.000000
1.380000	95.320000	59.040000	190.000000	0.000000	149.000000	53.000000	-45.000000	0.000000
1.390000	94.920000	59.040000	182.000000	0.000000	149.000000	53.000000	-40.000000	0.000000
1.400000	94.710000	59.040000	94.000000	0.000000	149.000000	53.000000	-21.000000	0.000000
1.410000	94.710000	59.040000	0.000000	1.000000	149.000000	53.000000	0.000000	0.000000
1.420000	94.760000	59.150000	0.000000	0.000000	149.000000	53.000000	5.000000	11.000000
1.430000	95.110000	59.230000	0.000000	0.000000	149.000000	53.000000	35.000000	8.000000
1.440000	95.590000	59.300000	0.000000	0.000000	149.000000	53.000000	48.000000	7.000000
1.450000	96.170000	59.300000	0.000000	0.000000	149.000000	53.000000	58.000000	0.000000
1.460000	96.750000	59.360000	0.000000	0.000000	149.000000	53.000000	58.000000	6.000000
1.470000	96.750000	59.360000	54.000000	1.000000	148.000000	54.000000	0.000000	0.000000
1.480000	97.580000	58.920000	93.000000	0.000000	148.000000	54.000000	83.000000	-44.000000
1.490000	97.890000	58.320000	120.000000	0.000000	148.000000	54.000000	31.000000	-60.000000
1.500000	98.180000	57.700000	131.000000	0.000000	150.000000	54.000000	29.000000	-62.000000
1.510000	98.460000	57.080000	132.000000	0.000000	149.000000	55.000000	28.000000	-62.000000
1.520000	98.570000	56.360000	117.000000	0.000000	150.000000	55.000000	11.000000	-72.000000
1.530000	98.570000	55.680000	90.000000	0.000000	150.000000	55.000000	0.000000	-68.000000
1.540000	98.570000	55.310000	61.000000	0.000000	151.000000	56.000000	0.000000	-37.000000
1.550000	98.570000	55.310000	0.000000	1.000000	151.000000	56.000000	0.000000	0.000000
1.560000	98.120000	55.260000	0.000000	0.000000	151.000000	58.000000	-45.000000	-5.000000
1.570000	97.780000	55.710000	0.000000	0.000000	151.000000	58.000000	-34.000000	45.000000
1.580000	97.500000	56.370000	0.000000	0.000000	151.000000	58.000000	-28.000000	66.000000
1.590000	97.280000	57.190000	0.000000	0.000000	151.000000	58.000000	-22.000000	82.000000
1.600000	97.170000	58.000000	0.000000	0.000000	150.000000	57.000000	-11.000000	81.000000
1.610000	97.170000	58.000000	24.000000	1.000000	151.000000	56.000000	0.000000	0.000000
1.620000	97.490000	59.370000	70.000000	0.000000	151.000000	56.000000	32.000000	137.000000
1.630000	97.870000	59.670000	113.000000	0.000000	149.000000	56.000000	38.000000	30.000000
1.640000	98.440000	59.810000	153.000000	0.000000	150.000000	55.000000	57.000000	14.000000
1.650000	99.140000	59.860000	183.000000	0.000000	149.000000	55.000000	70.000000	5.000000
1.660000	99.900000	59.860000	198.000000	0.000000	151.000000	54.000000	76.000000	0.000000
1.670000	100.450000	59.630000	200.000000	0.000000	151.000000	54.000000	55.000000	-23.000000
1.680000	100.850000	59.290000	203.000000	0.000000	151.000000	54.000000	40.000000	-34.000000
1.690000	100.990000	58.840000	208.000000	0.000000	153.000000	55.000000	14.000000	-45.000000
1.700000	100.940000	58.340000	212.000000	0.000000	154.000000	55.000000	-5.000000	-50.000000
1.710000	100.750000	58.030000	215.000000	0.000000	154.000000	55.000000	-19.000000	-31.000000
1.720000	100.670000	57.870000	213.000000	0.000000	155.000000	55.000000	-8.000000	-16.000000
1.730000	100.610000	57.870000	193.000000	0.000000	155.000000	55.000000	-6.000000	0.000000
1.740000	100.610000	57.960000	120.000000	0.000000	155.000000	55.000000	0.000000	9.000000
1.750000	100.610000	58.140000	93.000000	0.000000	155.000000	55.000000	0.000000	18.000000
1.760000	100.780000	58.550000	10.000000	1.000000	155.000000	55.000000	0.000000	0.000000
1.770000	101.040000	58.940000	1.000000	0.000000	155.000000	55.000000	26.000000	39.000000
1.780000	101.320000	59.330000	53.000000	1.000000	155.000000	55.000000	0.000000	0.000000
1.790000	101.550000	59.330000	104.000000	0.000000	155.000000	55.000000	23.000000	0.000000
1.800000	101.680000	59.240000	149.000000	0.000000	157.000000	56.000000	13.000000	-9.000000
1.810000	101.760000	59.030000	167.000000	0.000000	157.000000	56.000000	8.000000	-21.000000
1.820000	101.810000	58.770000	171.000000	0.000000	158.000000	56.000000	5.000000	-26.000000
1.830000	101.810000	58.510000	180.000000	0.000000	158.000000	56.000000	0.000000	-26.000000
1.840000	101.890000	58.280000	108.000000	0.000000	158.000000	56.000000	8.000000	-23.000000
1.850000	101.890000	58.280000	0.000000	1.000000	158.000000	56.000000	0.000000	0.000000
1.860000	101.890000	58.220000	0.000000	0.000000	157.000000	56.000000	0.000000	-6.000000
1.870000	101.890000	58.590000	0.000000	0.000000	157.000000	56.000000	0.000000	37.000000
1.880000	101.750000	59.090000	0.000000	0.000000	157.000000	56.000000	-14.000000	50.000000
1.890000	101.590000	59.700000	0.000000	0.000000	155.000000	55.000000	-16.000000	61.000000
1.900000	101.400000	60.410000	0.000000	0.000000	155.000000	55.000000	-19.000000	71.000000
1.910000	101.400000	60.940000	0.000000	0.000000	155.000000	55.000000	0.000000	53.000000
1.920000	101.400000	61.350000	0.000000	0.000000	155.000000	55.000000	0.000000	41.000000
1.930000	101.400000	61.350000	181.000000	1.000000	157.000000	56.000000	0.000000	0.000000
1.940000	101.400000	61.350000	186.000000	0.000000	157.000000	56.000000	0.000000	0.000000
1.950000	101.400000	61.350000	190.000000	0.000000	159.000000	55.000000	0.000000	0.000000
1.960000	101.400000	61.350000	170.000000	0.000000	159.000000	55.000000	0.000000	0.000000
1.970000	101.400000	61.350000	100.000000	0.000000	160.000000	55.000000	0.000000	0.000000
1.980000	101.400000	61.350000	0.000000	1.000000	161.000000	55.000000	0.000000	0.000000
1.990000	101.920000	61.040000	0.000000	0.000000	161.000000	55.000000	52.000000	-31.000000
2.000000	102.110000	60.680000	0.000000	0.000000	161.000000	55.000000	19.000000	-36.000000
2.010000	102.250000	60.310000	0.000000	0.000000	160.000000	55.000000	14.000000	-37.000000
2.020000	102.400000	59.950000	0.000000	0.000000	160.000000	55.000000	15.000000	-36.000000
2.030000	102.580000	59.660000	0.000000	0.000000	159.000000	55.000000	18.000000	-29.000000
2.040000	102.800000	59.400000	0.000000	0.000000	158.000000	56.000000	22.000000	-26.000000
2.050000	102.800000	59.400000	156.000000	1.000000	158.000000	56.000000	0.000000	0.000000
2.060000	102.900000	59.090000	183.000000	0.000000	157.000000	56.000000	10.000000	-31.000000
2.070000	102.900000	59.090000	223.000000	0.000000	157.000000	56.000000	0.000000	0.000000
2.080000	102.900000	59.010000	267.000000	0.000000	157.000000	56.000000	0.000000	-8.000000
2.090000	102.970000	58.940000	317.000000	0.000000	154.000000	56.000000	7.000000	-7.000000
2.100000	103.070000	58.880000	334.000000	0.000000	154.000000	56.000000	10.000000	-6.000000
2.110000	103.300000	58.760000	341.000000	0.000000	154.000000	56.000000	23.000000	-12.000000
2.120000	103.610000	58.650000	349.000000	0.000000	154.000000	56.000000	31.000000	-11.000000
2.130000	103.990000	58.540000	349.000000	0.000000	154.000000	56.000000	38.000000	-11.000000
2.140000	104.400000	58.450000	348.000000	0.000000	154.000000	56.000000	41.000000	-9.000000
2.150000	104.980000	58.380000	334.000000	0.000000	154.000000	56.000000	58.000000	-7.000000
2.160000	105.670000	58.330000	325.000000	0.000000	153.000000	56.000000	69.000000	-5.000000
2.170000	106.350000	58.330000	324.000000	0.000000	153.000000	56.000000	68.000000	0.000000
2.180000	107.020000	58.260000	319.000000	0.000000	152.000000	56.000000	67.000000	-7.000000
2.190000	107.560000	58.260000	322.000000	0.000000	150.000000	55.000000	54.000000	0.000000
2.200000	108.020000	58.340000	327.000000	0.000000	150.000000	55.000000	46.000000	8.000000
