t	x	y	pressure	penup	azimuth	inclination	v_x	v_y
0.000000	52.930000	15.210000	42.000000	1.000000	145.000000	55.000000	0.000000	0.000000
0.010000	53.330000	15.950000	65.000000	0.000000	145.000000	55.000000	40.000000	74.000000
0.020000	53.470000	16.410000	94.000000	0.000000	145.000000	55.000000	14.000000	46.000000
0.030000	53.580000	16.780000	134.000000	0.000000	145.000000	55.000000	11.000000	37.000000
0.040000	53.740000	16.900000	184.000000	0.000000	146.000000	54.000000	16.000000	12.000000
0.050000	53.860000	16.900000	225.000000	0.000000	146.000000	54.000000	12.000000	0.000000
0.060000	53.950000	16.680000	277.000000	0.000000	146.000000	54.000000	9.000000	-22.000000
0.070000	54.010000	15.950000	309.000000	0.000000	146.000000	54.000000	6.000000	-73.000000
0.080000	54.080000	14.860000	344.000000	0.000000	146.000000	54.000000	7.000000	-109.000000
0.090000	54.150000	13.470000	356.000000	0.000000	145.000000	55.000000	7.000000	-139.000000
0.100000	54.240000	12.080000	363.000000	0.000000	145.000000	56.000000	9.000000	-139.000000
0.110000	54.360000	10.950000	369.000000	0.000000	144.000000	57.000000	12.000000	-113.000000
0.120000	54.620000	9.990000	368.000000	0.000000	142.000000	58.000000	26.000000	-96.000000
0.130000	54.990000	9.500000	364.000000	0.000000	142.000000	59.000000	37.000000	-49.000000
0.140000	55.580000	9.270000	346.000000	0.000000	139.000000	61.000000	59.000000	-23.000000
0.150000	56.220000	9.210000	339.000000	0.000000	138.000000	61.000000	64.000000	-6.000000
0.160000	56.920000	9.400000	317.000000	0.000000	138.000000	63.000000	70.000000	19.000000
0.170000	57.550000	9.720000	309.000000	0.000000	138.000000	63.000000	63.000000	32.000000
0.180000	57.680000	10.130000	325.000000	0.000000	140.000000	63.000000	13.000000	41.000000
0.190000	57.510000	10.470000	325.000000	0.000000	140.000000	63.000000	-17.000000	34.000000
0.200000	56.700000	10.810000	344.000000	0.000000	141.000000	64.000000	-81.000000	34.000000
0.210000	55.330000	11.100000	353.000000	0.000000	140.000000	65.000000	-137.000000	29.000000
0.220000	53.590000	11.230000	349.000000	0.000000	140.000000	65.000000	-174.000000	13.000000
0.230000	51.160000	11.280000	389.000000	0.000000	140.000000	65.000000	-243.000000	5.000000
0.240000	48.740000	11.280000	455.000000	0.000000	138.000000	64.000000	-242.000000	0.000000
0.250000	46.830000	11.380000	497.000000	0.000000	138.000000	64.000000	-191.000000	10.000000
0.260000	45.250000	11.450000	543.000000	0.000000	137.000000	63.000000	-158.000000	7.000000
0.270000	44.740000	11.500000	553.000000	0.000000	137.000000	63.000000	-51.000000	5.000000
0.280000	45.230000	11.560000	553.000000	0.000000	135.000000	63.000000	49.000000	6.000000
0.290000	46.380000	11.700000	553.000000	0.000000	135.000000	63.000000	115.000000	14.000000
0.300000	48.680000	11.890000	554.000000	0.000000	135.000000	63.000000	230.000000	19.000000
0.310000	51.620000	12.200000	556.000000	0.000000	135.000000	63.000000	294.000000	31.000000
0.320000	54.990000	12.520000	562.000000	0.000000	133.000000	63.000000	337.000000	32.000000
0.330000	59.160000	12.840000	540.000000	0.000000	135.000000	64.000000	417.000000	32.000000
0.340000	63.140000	13.040000	519.000000	0.000000	135.000000	64.000000	398.000000	20.000000
0.350000	67.000000	13.190000	491.000000	0.000000	135.000000	64.000000	386.000000	15.000000
0.360000	70.310000	13.280000	443.000000	0.000000	138.000000	64.000000	331.000000	9.000000
0.370000	72.620000	13.280000	344.000000	0.000000	140.000000	65.000000	231.000000	0.000000
0.380000	74.250000	13.280000	91.000000	0.000000	140.000000	65.000000	163.000000	0.000000
0.390000	74.250000	13.280000	0.000000	1.000000	141.000000	64.000000	0.000000	0.000000
0.400000	74.410000	13.580000	0.000000	0.000000	141.000000	64.000000	16.000000	30.000000
0.410000	73.490000	13.840000	0.000000	0.000000	145.000000	64.000000	-92.000000	26.000000
0.420000	72.210000	14.130000	0.000000	0.000000	146.000000	63.000000	-128.000000	29.000000
0.430000	70.600000	14.400000	0.000000	0.000000	147.000000	62.000000	-161.000000	27.000000
0.440000	68.770000	14.630000	0.000000	0.000000	148.000000	61.000000	-183.000000	23.000000
0.450000	66.720000	14.810000	0.000000	0.000000	150.000000	60.000000	-205.000000	18.000000
0.460000	64.870000	14.860000	0.000000	0.000000	151.000000	60.000000	-185.000000	5.000000
0.470000	63.160000	14.860000	0.000000	0.000000	151.000000	58.000000	-171.000000	0.000000
0.480000	61.550000	14.810000	0.000000	0.000000	152.000000	57.000000	-161.000000	-5.000000
0.490000	60.260000	14.750000	0.000000	0.000000	152.000000	56.000000	-129.000000	-6.000000
0.500000	59.190000	14.690000	0.000000	0.000000	151.000000	54.000000	-107.000000	-6.000000
0.510000	58.270000	14.690000	0.000000	0.000000	151.000000	54.000000	-92.000000	0.000000
0.520000	57.560000	14.640000	0.000000	0.000000	150.000000	54.000000	-71.000000	-5.000000
0.530000	57.000000	14.640000	0.000000	0.000000	151.000000	53.000000	-56.000000	0.000000
0.540000	56.550000	14.750000	0.000000	0.000000	151.000000	53.000000	-45.000000	11.000000
0.550000	56.330000	14.820000	0.000000	0.000000	152.000000	54.000000	-22.000000	7.000000
0.560000	56.250000	14.890000	0.000000	0.000000	153.000000	54.000000	-8.000000	7.000000
0.570000	56.350000	15.030000	0.000000	0.000000	153.000000	54.000000	10.000000	14.000000
0.580000	56.680000	15.220000	0.000000	0.000000	155.000000	54.000000	33.000000	19.000000
0.590000	57.150000	15.350000	0.000000	0.000000	156.000000	55.000000	47.000000	13.000000
0.600000	57.840000	15.540000	0.000000	0.000000	156.000000	55.000000	69.000000	19.000000
0.610000	58.580000	15.780000	0.000000	0.000000	156.000000	55.000000	74.000000	24.000000
0.620000	59.380000	16.010000	0.000000	0.000000	155.000000	54.000000	80.000000	23.000000
0.630000	60.060000	16.250000	0.000000	0.000000	155.000000	54.000000	68.000000	24.000000
0.640000	60.670000	16.480000	0.000000	0.000000	155.000000	54.000000	61.000000	23.000000
0.650000	60.960000	16.740000	0.000000	0.000000	153.000000	54.000000	29.000000	26.000000
0.660000	60.960000	16.740000	110.000000	1.000000	153.000000	54.000000	0.000000	0.000000
0.670000	60.380000	17.330000	139.000000	0.000000	153.000000	55.000000	-58.000000	59.000000
0.680000	59.490000	17.660000	132.000000	0.000000	151.000000	54.000000	-89.000000	33.000000
0.690000	57.960000	17.710000	205.000000	0.000000	150.000000	55.000000	-153.000000	5.000000
0.700000	55.990000	17.460000	279.000000	0.000000	150.000000	55.000000	-197.000000	-25.000000
0.710000	53.780000	17.020000	366.000000	0.000000	149.000000	56.000000	-221.000000	-44.000000
0.720000	51.400000	16.120000	442.000000	0.000000	149.000000	56.000000	-238.000000	-90.000000
0.730000	48.900000	14.740000	491.000000	0.000000	148.000000	57.000000	-250.000000	-138.000000
0.740000	47.130000	13.030000	496.000000	0.000000	147.000000	58.000000	-177.000000	-171.000000
0.750000	46.250000	11.230000	489.000000	0.000000	146.000000	58.000000	-88.000000	-180.000000
0.760000	45.970000	9.940000	489.000000	0.000000	145.000000	59.000000	-28.000000	-129.000000
0.770000	46.800000	8.980000	492.000000	0.000000	144.000000	60.000000	83.000000	-96.000000
0.780000	48.480000	8.150000	504.000000	0.000000	144.000000	60.000000	168.000000	-83.000000
0.790000	50.720000	7.600000	507.000000	0.000000	142.000000	61.000000	224.000000	-55.000000
0.800000	53.740000	7.240000	497.000000	0.000000	142.000000	61.000000	302.000000	-36.000000
0.810000	57.340000	7.160000	475.000000	0.000000	145.000000	60.000000	360.000000	-8.000000
0.820000	61.320000	7.230000	456.000000	0.000000	145.000000	60.000000	398.000000	7.000000
0.830000	65.250000	7.390000	423.000000	0.000000	148.000000	60.000000	393.000000	16.000000
0.840000	68.520000	7.390000	391.000000	0.000000	149.000000	59.000000	327.000000	0.000000
0.850000	71.360000	7.210000	334.000000	0.000000	152.000000	59.000000	284.000000	-18.000000
0.860000	73.250000	7.010000	168.000000	0.000000	152.000000	59.000000	189.000000	-20.000000
0.870000	73.250000	7.010000	0.000000	1.000000	153.000000	58.000000	0.000000	0.000000
0.880000	74.350000	6.790000	0.000000	0.000000	153.000000	58.000000	110.000000	-22.000000
0.890000	73.670000	6.790000	0.000000	0.000000	153.000000	58.000000	-68.000000	0.000000
0.900000	72.420000	6.920000	0.000000	0.000000	154.000000	57.000000	-125.000000	13.000000
0.910000	70.800000	7.160000	0.000000	0.000000	154.000000	57.000000	-162.000000	24.000000
0.920000	68.920000	7.470000	0.000000	0.000000	154.000000	57.000000	-188.000000	31.000000
0.930000	66.810000	7.770000	0.000000	0.000000	154.000000	57.000000	-211.000000	30.000000
0.940000	64.540000	8.060000	0.000000	0.000000	154.000000	57.000000	-227.000000	29.000000
0.950000	62.280000	8.320000	0.000000	0.000000	151.000000	58.000000	-226.000000	26.000000
0.960000	60.270000	8.480000	0.000000	0.000000	150.000000	57.000000	-201.000000	16.000000
0.970000	58.420000	8.590000	0.000000	0.000000	150.000000	57.000000	-185.000000	11.000000
0.980000	56.710000	8.680000	0.000000	0.000000	149.000000	58.000000	-171.000000	9.000000
0.990000	55.460000	8.790000	0.000000	0.000000	147.000000	58.000000	-125.000000	11.000000
1.000000	54.510000	8.920000	0.000000	0.000000	147.000000	58.000000	-95.000000	13.000000
1.010000	53.940000	9.060000	0.000000	0.000000	146.000000	58.000000	-57.000000	14.000000
1.020000	53.700000	9.220000	0.000000	0.000000	144.000000	58.000000	-24.000000	16.000000
1.030000	53.700000	9.370000	0.000000	0.000000	144.000000	58.000000	0.000000	15.000000
1.040000	53.910000	9.540000	0.000000	0.000000	144.000000	58.000000	21.000000	17.000000
1.050000	54.140000	9.720000	0.000000	0.000000	144.000000	58.000000	23.000000	18.000000
1.060000	54.390000	9.720000	0.000000	0.000000	144.000000	58.000000	25.000000	0.000000
1.070000	54.580000	9.720000	0.000000	0.000000	144.000000	58.000000	19.000000	0.000000
1.080000	54.730000	9.720000	0.000000	0.000000	144.000000	58.000000	15.000000	0.000000
1.090000	54.950000	9.720000	0.000000	0.000000	143.000000	57.000000	22.000000	0.000000
1.100000	55.160000	9.650000	0.000000	0.000000	143.000000	57.000000	21.000000	-7.000000
1.110000	55.370000	9.570000	0.000000	0.000000	143.000000	59.000000	21.000000	-8.000000
1.120000	55.370000	9.570000	42.000000	1.000000	143.000000	59.000000	0.000000	0.000000
1.130000	55.880000	9.400000	83.000000	0.000000	143.000000	59.000000	51.000000	-17.000000
1.140000	56.070000	9.460000	91.000000	0.000000	142.000000	59.000000	19.000000	6.000000
1.150000	56.240000	9.610000	142.000000	0.000000	142.000000	59.000000	17.000000	15.000000
1.160000	56.410000	9.760000	212.000000	0.000000	141.000000	60.000000	17.000000	15.000000
1.170000	56.360000	9.970000	279.000000	0.000000	141.000000	60.000000	-5.000000	21.000000
1.180000	56.150000	10.220000	351.000000	0.000000	139.000000	61.000000	-21.000000	25.000000
1.190000	55.650000	10.400000	387.000000	0.000000	139.000000	61.000000	-50.000000	18.000000
1.200000	54.910000	10.400000	414.000000	0.000000	138.000000	61.000000	-74.000000	0.000000
1.210000	54.020000	10.250000	425.000000	0.000000	138.000000	61.000000	-89.000000	-15.000000
1.220000	53.240000	10.000000	449.000000	0.000000	138.000000	61.000000	-78.000000	-25.000000
1.230000	52.880000	9.730000	441.000000	0.000000	138.000000	61.000000	-36.000000	-27.000000
1.240000	52.790000	9.460000	423.000000	0.000000	138.000000	61.000000	-9.000000	-27.000000
1.250000	53.110000	9.200000	409.000000	0.000000	138.000000	61.000000	32.000000	-26.000000
1.260000	53.730000	8.990000	394.000000	0.000000	136.000000	61.000000	62.000000	-21.000000
1.270000	54.550000	8.790000	359.000000	0.000000	138.000000	61.000000	82.000000	-20.000000
1.280000	55.430000	8.610000	317.000000	0.000000	139.000000	61.000000	88.000000	-18.000000
1.290000	56.040000	8.500000	279.000000	0.000000	139.000000	61.000000	61.000000	-11.000000
1.300000	56.460000	8.430000	279.000000	0.000000	141.000000	61.000000	42.000000	-7.000000
1.310000	56.460000	8.430000	287.000000	0.000000	142.000000	61.000000	0.000000	0.000000
1.320000	56.140000	8.380000	304.000000	0.000000	142.000000	61.000000	-32.000000	-5.000000
1.330000	55.510000	8.300000	317.000000	0.000000	142.000000	61.000000	-63.000000	-8.000000
1.340000	54.710000	8.210000	325.000000	0.000000	142.000000	61.000000	-80.000000	-9.000000
1.350000	54.170000	8.210000	314.000000	0.000000	144.000000	60.000000	-54.000000	0.000000
1.360000	53.800000	8.210000	222.000000	0.000000	144.000000	60.000000	-37.000000	0.000000
1.370000	53.800000	8.210000	34.000000	0.000000	144.000000	60.000000	0.000000	0.000000
1.380000	53.800000	8.210000	0.000000	1.000000	144.000000	60.000000	0.000000	0.000000
1.390000	54.730000	8.510000	0.000000	0.000000	144.000000	60.000000	93.000000	30.000000
1.400000	55.500000	8.650000	0.000000	0.000000	142.000000	59.000000	77.000000	14.000000
1.410000	56.280000	8.770000	0.000000	0.000000	142.000000	59.000000	78.000000	12.000000
1.420000	56.280000	8.770000	48.000000	1.000000	142.000000	61.000000	0.000000	0.000000
1.430000	57.520000	8.690000	122.000000	0.000000	142.000000	61.000000	124.000000	-8.000000
1.440000	57.830000	8.520000	161.000000	0.000000	142.000000	61.000000	31.000000	-17.000000
1.450000	58.000000	8.190000	196.000000	0.000000	144.000000	61.000000	17.000000	-33.000000
1.460000	58.070000	7.750000	215.000000	0.000000	145.000000	60.000000	7.000000	-44.000000
1.470000	58.070000	7.290000	220.000000	0.000000	145.000000	60.000000	0.000000	-46.000000
1.480000	58.160000	6.830000	217.000000	0.000000	145.000000	60.000000	9.000000	-46.000000
1.490000	58.230000	6.490000	188.000000	0.000000	145.000000	59.000000	7.000000	-34.000000
1.500000	58.280000	6.240000	112.000000	0.000000	146.000000	58.000000	5.000000	-25.000000
1.510000	58.280000	6.240000	0.000000	1.000000	146.000000	58.000000	0.000000	0.000000
1.520000	58.330000	6.380000	0.000000	0.000000	147.000000	58.000000	5.000000	14.000000
1.530000	58.230000	6.640000	0.000000	0.000000	148.000000	57.000000	-10.000000	26.000000
1.540000	58.010000	7.070000	0.000000	0.000000	148.000000	57.000000	-22.000000	43.000000
1.550000	57.780000	7.550000	0.000000	0.000000	148.000000	57.000000	-23.000000	48.000000
1.560000	57.530000	8.070000	0.000000	0.000000	150.000000	57.000000	-25.000000	52.000000
1.570000	57.530000	8.070000	132.000000	1.000000	150.000000	57.000000	0.000000	0.000000
1.580000	57.450000	9.020000	167.000000	0.000000	151.000000	58.000000	-8.000000	95.000000
1.590000	57.500000	9.340000	191.000000	0.000000	150.000000	58.000000	5.000000	32.000000
1.600000	57.850000	9.560000	214.000000	0.000000	150.000000	58.000000	35.000000	22.000000
1.610000	58.370000	9.660000	241.000000	0.000000	149.000000	59.000000	52.000000	10.000000
1.620000	58.970000	9.590000	282.000000	0.000000	149.000000	59.000000	60.000000	-7.000000
1.630000	59.510000	9.400000	276.000000	0.000000	148.000000	60.000000	54.000000	-19.000000
1.640000	60.000000	9.040000	281.000000	0.000000	148.000000	60.000000	49.000000	-36.000000
1.650000	60.300000	8.670000	277.000000	0.000000	148.000000	60.000000	30.000000	-37.000000
1.660000	60.410000	8.300000	262.000000	0.000000	146.000000	60.000000	11.000000	-37.000000
1.670000	60.410000	8.040000	239.000000	0.000000	146.000000	60.000000	0.000000	-26.000000
1.680000	60.320000	7.830000	203.000000	0.000000	147.000000	59.000000	-9.000000	-21.000000
1.690000	60.210000	7.830000	143.000000	0.000000	147.000000	59.000000	-11.000000	0.000000
1.700000	60.090000	7.940000	93.000000	0.000000	146.000000	58.000000	-12.000000	11.000000
1.710000	60.090000	8.160000	58.000000	0.000000	147.000000	58.000000	0.000000	22.000000
1.720000	60.090000	8.490000	93.000000	0.000000	147.000000	58.000000	0.000000	33.000000
1.730000	60.310000	8.760000	108.000000	0.000000	147.000000	58.000000	22.000000	27.000000
1.740000	60.560000	8.900000	183.000000	0.000000	147.000000	58.000000	25.000000	14.000000
1.750000	60.800000	8.950000	256.000000	0.000000	147.000000	58.000000	24.000000	5.000000
1.760000	61.050000	8.880000	291.000000	0.000000	146.000000	58.000000	25.000000	-7.000000
1.770000	61.240000	8.740000	315.000000	0.000000	144.000000	58.000000	19.000000	-14.000000
1.780000	61.400000	8.450000	319.000000	0.000000	144.000000	58.000000	16.000000	-29.000000
1.790000	61.510000	8.300000	284.000000	0.000000	144.000000	58.000000	11.000000	-15.000000
1.800000	61.510000	8.300000	96.000000	0.000000	144.000000	58.000000	0.000000	0.000000
1.810000	61.510000	8.300000	0.000000	1.000000	144.000000	58.000000	0.000000	0.000000
1.820000	61.510000	8.300000	0.000000	0.000000	144.000000	58.000000	0.000000	0.000000
1.830000	61.260000	8.760000	0.000000	0.000000	144.000000	58.000000	-25.000000	46.000000
1.840000	60.930000	9.180000	0.000000	0.000000	144.000000	58.000000	-33.000000	42.000000
1.850000	60.720000	9.690000	0.000000	0.000000	144.000000	58.000000	-21.000000	51.000000
1.860000	60.560000	10.250000	0.000000	0.000000	144.000000	58.000000	-16.000000	56.000000
1.870000	60.560000	10.740000	0.000000	0.000000	143.000000	57.000000	0.000000	49.000000
1.880000	60.560000	10.880000	0.000000	0.000000	143.000000	57.000000	0.000000	14.000000
1.890000	60.560000	10.880000	344.000000	1.000000	142.000000	58.000000	0.000000	0.000000
1.900000	60.560000	10.880000	330.000000	0.000000	142.000000	58.000000	0.000000	0.000000
1.910000	60.560000	10.880000	305.000000	0.000000	142.000000	58.000000	0.000000	0.000000
1.920000	60.560000	10.880000	274.000000	0.000000	141.000000	59.000000	0.000000	0.000000
1.930000	60.820000	10.630000	193.000000	0.000000	141.000000	60.000000	26.000000	-25.000000
1.940000	60.820000	10.630000	0.000000	1.000000	141.000000	60.000000	0.000000	0.000000
1.950000	61.480000	10.320000	0.000000	0.000000	139.000000	61.000000	66.000000	-31.000000
1.960000	61.720000	10.090000	0.000000	0.000000	139.000000	61.000000	24.000000	-23.000000
1.970000	61.910000	9.850000	0.000000	0.000000	138.000000	61.000000	19.000000	-24.000000
1.980000	62.070000	9.680000	0.000000	0.000000	139.000000	61.000000	16.000000	-17.000000
1.990000	62.300000	9.550000	0.000000	0.000000	139.000000	61.000000	23.000000	-13.000000
2.000000	62.660000	9.390000	0.000000	0.000000	139.000000	61.000000	36.000000	-16.000000
2.010000	62.940000	9.200000	0.000000	0.000000	141.000000	60.000000	28.000000	-19.000000
2.020000	62.940000	9.200000	284.000000	1.000000	141.000000	60.000000	0.000000	0.000000
2.030000	63.160000	8.820000	312.000000	0.000000	139.000000	60.000000	22.000000	-38.000000
2.040000	63.160000	8.770000	319.000000	0.000000	141.000000	59.000000	0.000000	-5.000000
2.050000	63.160000	8.770000	327.000000	0.000000	142.000000	59.000000	0.000000	0.000000
2.060000	63.160000	8.770000	348.000000	0.000000	141.000000	60.000000	0.000000	0.000000
2.070000	63.260000	8.770000	371.000000	0.000000	141.000000	60.000000	10.000000	0.000000
2.080000	63.340000	8.770000	364.000000	0.000000	141.000000	60.000000	8.000000	0.000000
2.090000	63.640000	8.770000	364.000000	0.000000	141.000000	60.000000	30.000000	0.000000
2.100000	63.960000	8.720000	366.000000	0.000000	141.000000	60.000000	32.000000	-5.000000
2.110000	64.280000	8.640000	359.000000	0.000000	142.000000	61.000000	32.000000	-8.000000
2.120000	64.730000	8.530000	342.000000	0.000000	142.000000	61.000000	45.000000	-11.000000
2.130000	65.190000	8.460000	289.000000	0.000000	142.000000	61.000000	46.000000	-7.000000
2.140000	65.710000	8.400000	247.000000	0.000000	142.000000	61.000000	52.000000	-6.000000
2.150000	66.270000	8.400000	212.000000	0.000000	144.000000	61.000000	56.000000	0.000000
2.160000	66.840000	8.460000	212.000000	0.000000	144.000000	61.000000	57.000000	6.000000
2.170000	67.410000	8.570000	217.000000	0.000000	144.000000	61.000000	57.000000	11.000000
2.180000	67.840000	8.750000	233.000000	0.000000	146.000000	62.000000	43.000000	18.000000
2.190000	68.180000	8.950000	292.000000	0.000000	146.000000	62.000000	34.000000	20.000000
2.200000	68.340000	9.170000	354.000000	0.000000	147.000000	62.000000	16.000000	22.000000
2.210000	68.340000	9.350000	405.000000	0.000000	147.000000	62.000000	0.000000	18.000000
2.220000	68.220000	9.500000	417.000000	0.000000	146.000000	63.000000	-12.000000	15.000000
2.230000	67.890000	9.570000	440.000000	0.000000	146.000000	63.000000	-33.000000	7.000000
