t	x	y	pressure	penup	azimuth	inclination	v_x	v_y
0.000000	52.750000	83.960000	60.000000	1.000000	147.000000	56.000000	0.000000	0.000000
0.010000	52.910000	84.520000	96.000000	0.000000	147.000000	56.000000	16.000000	56.000000
0.020000	53.020000	84.770000	178.000000	0.000000	147.000000	56.000000	11.000000	25.000000
0.030000	53.120000	85.020000	247.000000	0.000000	147.000000	56.000000	10.000000	25.000000
0.040000	53.210000	85.100000	294.000000	0.000000	147.000000	56.000000	9.000000	8.000000
0.050000	53.260000	85.100000	342.000000	0.000000	147.000000	56.000000	5.000000	0.000000
0.060000	53.260000	84.920000	376.000000	0.000000	147.000000	56.000000	0.000000	-18.000000
0.070000	53.260000	84.370000	409.000000	0.000000	147.000000	56.000000	0.000000	-55.000000
0.080000	53.160000	83.560000	433.000000	0.000000	147.000000	56.000000	-10.000000	-81.000000
0.090000	53.010000	82.340000	448.000000	0.000000	147.000000	56.000000	-15.000000	-122.000000
0.100000	52.820000	81.090000	453.000000	0.000000	147.000000	56.000000	-19.000000	-125.000000
0.110000	52.930000	79.800000	455.000000	0.000000	146.000000	57.000000	11.000000	-129.000000
0.120000	53.190000	78.860000	460.000000	0.000000	146.000000	57.000000	26.000000	-94.000000
0.130000	53.550000	78.170000	466.000000	0.000000	146.000000	57.000000	36.000000	-69.000000
0.140000	54.040000	77.750000	466.000000	0.000000	144.000000	58.000000	49.000000	-42.000000
0.150000	54.570000	77.610000	466.000000	0.000000	144.000000	58.000000	53.000000	-14.000000
0.160000	55.170000	77.660000	469.000000	0.000000	144.000000	58.000000	60.000000	5.000000
0.170000	55.660000	77.950000	469.000000	0.000000	143.000000	59.000000	49.000000	29.000000
0.180000	56.060000	78.280000	464.000000	0.000000	143.000000	59.000000	40.000000	33.000000
0.190000	56.060000	78.630000	481.000000	0.000000	143.000000	59.000000	0.000000	35.000000
0.200000	55.630000	79.010000	499.000000	0.000000	145.000000	59.000000	-43.000000	38.000000
0.210000	55.010000	79.380000	509.000000	0.000000	145.000000	59.000000	-62.000000	37.000000
0.220000	53.960000	79.730000	515.000000	0.000000	146.000000	58.000000	-105.000000	35.000000
0.230000	52.450000	80.050000	512.000000	0.000000	146.000000	58.000000	-151.000000	32.000000
0.240000	50.630000	80.300000	530.000000	0.000000	147.000000	59.000000	-182.000000	25.000000
0.250000	48.720000	80.470000	542.000000	0.000000	147.000000	59.000000	-191.000000	17.000000
0.260000	47.170000	80.590000	569.000000	0.000000	147.000000	59.000000	-155.000000	12.000000
0.270000	45.850000	80.590000	619.000000	0.000000	146.000000	60.000000	-132.000000	0.000000
0.280000	45.520000	80.590000	620.000000	0.000000	146.000000	60.000000	-33.000000	0.000000
0.290000	46.010000	80.540000	611.000000	0.000000	145.000000	59.000000	49.000000	-5.000000
0.300000	47.050000	80.450000	617.000000	0.000000	145.000000	59.000000	104.000000	-9.000000
0.310000	48.890000	80.320000	627.000000	0.000000	145.000000	59.000000	184.000000	-13.000000
0.320000	51.450000	80.210000	624.000000	0.000000	145.000000	59.000000	256.000000	-11.000000
0.330000	54.490000	80.100000	624.000000	0.000000	145.000000	60.000000	304.000000	-11.000000
0.340000	58.040000	80.100000	624.000000	0.000000	145.000000	60.000000	355.000000	0.000000
0.350000	61.600000	80.050000	616.000000	0.000000	147.000000	61.000000	356.000000	-5.000000
0.360000	65.180000	80.050000	588.000000	0.000000	147.000000	61.000000	358.000000	0.000000
0.370000	68.290000	80.050000	546.000000	0.000000	148.000000	61.000000	311.000000	0.000000
0.380000	71.090000	80.250000	460.000000	0.000000	150.000000	62.000000	280.000000	20.000000
0.390000	73.010000	80.250000	158.000000	0.000000	151.000000	61.000000	192.000000	0.000000
0.400000	73.010000	80.250000	0.000000	1.000000	151.000000	61.000000	0.000000	0.000000
0.410000	74.070000	80.250000	0.000000	0.000000	151.000000	61.000000	106.000000	0.000000
0.420000	73.170000	80.310000	0.000000	0.000000	151.000000	61.000000	-90.000000	6.000000
0.430000	71.820000	80.480000	0.000000	0.000000	151.000000	61.000000	-135.000000	17.000000
0.440000	70.160000	80.670000	0.000000	0.000000	151.000000	61.000000	-166.000000	19.000000
0.450000	68.010000	80.840000	0.000000	0.000000	150.000000	62.000000	-215.000000	17.000000
0.460000	65.680000	81.000000	0.000000	0.000000	148.000000	61.000000	-233.000000	16.000000
0.470000	63.230000	81.000000	0.000000	0.000000	148.000000	61.000000	-245.000000	0.000000
0.480000	60.840000	81.000000	0.000000	0.000000	148.000000	61.000000	-239.000000	0.000000
0.490000	58.530000	80.860000	0.000000	0.000000	147.000000	61.000000	-231.000000	-14.000000
0.500000	56.600000	80.860000	0.000000	0.000000	147.000000	61.000000	-193.000000	0.000000
0.510000	54.880000	80.860000	0.000000	0.000000	147.000000	61.000000	-172.000000	0.000000
0.520000	53.640000	80.930000	0.000000	0.000000	145.000000	60.000000	-124.000000	7.000000
0.530000	52.670000	81.130000	0.000000	0.000000	145.000000	60.000000	-97.000000	20.000000
0.540000	51.890000	81.410000	0.000000	0.000000	145.000000	60.000000	-78.000000	28.000000
0.550000	51.400000	81.720000	0.000000	0.000000	144.000000	60.000000	-49.000000	31.000000
0.560000	51.270000	82.030000	0.000000	0.000000	145.000000	59.000000	-13.000000	31.000000
0.570000	51.370000	82.380000	0.000000	0.000000	145.000000	59.000000	10.000000	35.000000
0.580000	51.650000	82.760000	0.000000	0.000000	145.000000	59.000000	28.000000	38.000000
0.590000	52.070000	83.060000	0.000000	0.000000	146.000000	58.000000	42.000000	30.000000
0.600000	52.590000	83.330000	0.000000	0.000000	146.000000	58.000000	52.000000	27.000000
0.610000	53.190000	83.570000	0.000000	0.000000	146.000000	58.000000	60.000000	24.000000
0.620000	53.830000	83.760000	0.000000	0.000000	147.000000	58.000000	64.000000	19.000000
0.630000	54.540000	83.890000	0.000000	0.000000	146.000000	57.000000	71.000000	13.000000
0.640000	55.250000	83.980000	0.000000	0.000000	147.000000	58.000000	71.000000	9.000000
0.650000	55.980000	83.900000	0.000000	0.000000	147.000000	58.000000	73.000000	-8.000000
0.660000	56.590000	83.700000	0.000000	0.000000	148.000000	57.000000	61.000000	-20.000000
0.670000	57.110000	83.440000	0.000000	0.000000	150.000000	57.000000	52.000000	-26.000000
0.680000	57.420000	83.240000	0.000000	0.000000	150.000000	57.000000	31.000000	-20.000000
0.690000	57.420000	83.240000	42.000000	1.000000	151.000000	58.000000	0.000000	0.000000
0.700000	57.420000	83.240000	137.000000	0.000000	151.000000	58.000000	0.000000	0.000000
0.710000	57.420000	83.240000	193.000000	0.000000	153.000000	58.000000	0.000000	0.000000
0.720000	56.660000	83.540000	249.000000	0.000000	153.000000	58.000000	-76.000000	30.000000
0.730000	55.850000	83.630000	273.000000	0.000000	153.000000	58.000000	-81.000000	9.000000
0.740000	54.570000	83.630000	337.000000	0.000000	153.000000	58.000000	-128.000000	0.000000
0.750000	52.770000	83.530000	412.000000	0.000000	153.000000	58.000000	-180.000000	-10.000000
0.760000	50.630000	83.340000	469.000000	0.000000	153.000000	58.000000	-214.000000	-19.000000
0.770000	48.450000	83.060000	512.000000	0.000000	153.000000	58.000000	-218.000000	-28.000000
0.780000	46.680000	82.410000	554.000000	0.000000	152.000000	57.000000	-177.000000	-65.000000
0.790000	45.170000	81.520000	565.000000	0.000000	152.000000	57.000000	-151.000000	-89.000000
0.800000	44.500000	80.480000	570.000000	0.000000	150.000000	57.000000	-67.000000	-104.000000
0.810000	44.500000	79.520000	570.000000	0.000000	148.000000	57.000000	0.000000	-96.000000
0.820000	45.050000	78.620000	577.000000	0.000000	147.000000	58.000000	55.000000	-90.000000
0.830000	46.450000	77.790000	592.000000	0.000000	146.000000	57.000000	140.000000	-83.000000
0.840000	48.590000	77.270000	586.000000	0.000000	144.000000	58.000000	214.000000	-52.000000
0.850000	51.220000	76.970000	592.000000	0.000000	144.000000	58.000000	263.000000	-30.000000
0.860000	54.380000	76.890000	597.000000	0.000000	144.000000	58.000000	316.000000	-8.000000
0.870000	57.630000	77.030000	592.000000	0.000000	143.000000	59.000000	325.000000	14.000000
0.880000	60.950000	77.330000	591.000000	0.000000	145.000000	59.000000	332.000000	30.000000
0.890000	64.000000	77.590000	589.000000	0.000000	145.000000	59.000000	305.000000	26.000000
0.900000	66.220000	77.810000	551.000000	0.000000	146.000000	60.000000	222.000000	22.000000
0.910000	67.890000	77.930000	481.000000	0.000000	149.000000	59.000000	167.000000	12.000000
0.920000	68.900000	78.010000	312.000000	0.000000	151.000000	60.000000	101.000000	8.000000
0.930000	69.130000	78.120000	117.000000	0.000000	152.000000	60.000000	23.000000	11.000000
0.940000	69.130000	78.120000	0.000000	1.000000	152.000000	60.000000	0.000000	0.000000
0.950000	67.990000	78.410000	0.000000	0.000000	152.000000	60.000000	-114.000000	29.000000
0.960000	66.760000	78.500000	0.000000	0.000000	154.000000	60.000000	-123.000000	9.000000
0.970000	65.290000	78.570000	0.000000	0.000000	155.000000	60.000000	-147.000000	7.000000
0.980000	63.700000	78.650000	0.000000	0.000000	155.000000	60.000000	-159.000000	8.000000
0.990000	61.990000	78.650000	0.000000	0.000000	153.000000	59.000000	-171.000000	0.000000
1.000000	60.200000	78.480000	0.000000	0.000000	153.000000	59.000000	-179.000000	-17.000000
1.010000	58.780000	78.480000	0.000000	0.000000	153.000000	58.000000	-142.000000	0.000000
1.020000	57.720000	78.350000	0.000000	0.000000	151.000000	58.000000	-106.000000	-13.000000
1.030000	56.890000	78.180000	0.000000	0.000000	151.000000	58.000000	-83.000000	-17.000000
1.040000	56.450000	77.970000	0.000000	0.000000	151.000000	56.000000	-44.000000	-21.000000
1.050000	56.280000	77.730000	0.000000	0.000000	151.000000	56.000000	-17.000000	-24.000000
1.060000	56.280000	77.590000	0.000000	0.000000	151.000000	56.000000	0.000000	-14.000000
1.070000	56.360000	77.530000	0.000000	0.000000	151.000000	56.000000	8.000000	-6.000000
1.080000	56.420000	77.580000	0.000000	0.000000	151.000000	56.000000	6.000000	5.000000
1.090000	56.470000	77.660000	0.000000	0.000000	150.000000	57.000000	5.000000	8.000000
1.100000	56.470000	77.750000	0.000000	0.000000	150.000000	57.000000	0.000000	9.000000
1.110000	56.360000	77.750000	0.000000	0.000000	150.000000	57.000000	-11.000000	0.000000
1.120000	56.210000	77.750000	0.000000	0.000000	150.000000	57.000000	-15.000000	0.000000
1.130000	56.080000	77.690000	0.000000	0.000000	150.000000	57.000000	-13.000000	-6.000000
1.140000	55.960000	77.690000	0.000000	0.000000	148.000000	57.000000	-12.000000	0.000000
1.150000	55.850000	77.770000	0.000000	0.000000	148.000000	57.000000	-11.000000	8.000000
1.160000	55.760000	77.770000	0.000000	0.000000	147.000000	58.000000	-9.000000	0.000000
1.170000	55.680000	77.770000	0.000000	0.000000	147.000000	58.000000	-8.000000	0.000000
1.180000	55.750000	77.830000	0.000000	0.000000	147.000000	58.000000	7.000000	6.000000
1.190000	55.870000	77.880000	0.000000	0.000000	147.000000	58.000000	12.000000	5.000000
1.200000	56.060000	77.950000	0.000000	0.000000	147.000000	58.000000	19.000000	7.000000
1.210000	56.290000	78.090000	0.000000	0.000000	146.000000	57.000000	23.000000	14.000000
1.220000	56.290000	78.090000	60.000000	1.000000	146.000000	57.000000	0.000000	0.000000
1.230000	56.700000	78.470000	167.000000	0.000000	146.000000	57.000000	41.000000	38.000000
1.240000	56.700000	78.680000	270.000000	0.000000	146.000000	57.000000	0.000000	21.000000
1.250000	56.560000	78.830000	314.000000	0.000000	146.000000	57.000000	-14.000000	15.000000
1.260000	56.190000	78.930000	363.000000	0.000000	146.000000	57.000000	-37.000000	10.000000
1.270000	55.680000	79.030000	433.000000	0.000000	146.000000	57.000000	-51.000000	10.000000
1.280000	55.080000	78.940000	446.000000	0.000000	147.000000	56.000000	-60.000000	-9.000000
1.290000	54.560000	78.820000	448.000000	0.000000	147.000000	56.000000	-52.000000	-12.000000
1.300000	54.330000	78.690000	423.000000	0.000000	147.000000	56.000000	-23.000000	-13.000000
1.310000	54.280000	78.570000	400.000000	0.000000	148.000000	56.000000	-5.000000	-12.000000
1.320000	54.490000	78.420000	386.000000	0.000000	148.000000	56.000000	21.000000	-15.000000
1.330000	55.020000	78.300000	371.000000	0.000000	148.000000	56.000000	53.000000	-12.000000
1.340000	55.750000	78.210000	349.000000	0.000000	145.000000	56.000000	73.000000	-9.000000
1.350000	56.440000	78.120000	334.000000	0.000000	145.000000	56.000000	69.000000	-9.000000
1.360000	56.760000	78.030000	329.000000	0.000000	147.000000	56.000000	32.000000	-9.000000
1.370000	56.830000	77.930000	339.000000	0.000000	147.000000	56.000000	7.000000	-10.000000
1.380000	56.580000	77.800000	336.000000	0.000000	146.000000	57.000000	-25.000000	-13.000000
1.390000	56.050000	77.600000	356.000000	0.000000	146.000000	57.000000	-53.000000	-20.000000
1.400000	55.340000	77.490000	359.000000	0.000000	146.000000	57.000000	-71.000000	-11.000000
1.410000	54.790000	77.490000	351.000000	0.000000	144.000000	58.000000	-55.000000	0.000000
1.420000	54.530000	77.490000	314.000000	0.000000	144.000000	58.000000	-26.000000	0.000000
1.430000	54.470000	77.560000	175.000000	0.000000	144.000000	58.000000	-6.000000	7.000000
1.440000	54.640000	77.680000	91.000000	0.000000	144.000000	58.000000	17.000000	12.000000
1.450000	54.640000	77.680000	0.000000	1.000000	143.000000	57.000000	0.000000	0.000000
1.460000	55.780000	78.130000	0.000000	0.000000	143.000000	57.000000	114.000000	45.000000
1.470000	55.780000	78.130000	48.000000	1.000000	143.000000	57.000000	0.000000	0.000000
1.480000	57.290000	78.530000	143.000000	0.000000	144.000000	58.000000	151.000000	40.000000
1.490000	57.920000	78.340000	233.000000	0.000000	144.000000	58.000000	63.000000	-19.000000
1.500000	58.260000	77.910000	306.000000	0.000000	146.000000	57.000000	34.000000	-43.000000
1.510000	58.480000	77.320000	342.000000	0.000000	147.000000	58.000000	22.000000	-59.000000
1.520000	58.610000	76.650000	341.000000	0.000000	147.000000	58.000000	13.000000	-67.000000
1.530000	58.660000	75.920000	333.000000	0.000000	149.000000	58.000000	5.000000	-73.000000
1.540000	58.660000	75.090000	327.000000	0.000000	149.000000	58.000000	0.000000	-83.000000
1.550000	58.510000	74.660000	309.000000	0.000000	149.000000	58.000000	-15.000000	-43.000000
1.560000	58.400000	74.500000	245.000000	0.000000	149.000000	58.000000	-11.000000	-16.000000
1.570000	58.290000	74.680000	141.000000	0.000000	149.000000	58.000000	-11.000000	18.000000
1.580000	58.150000	75.170000	54.000000	0.000000	149.000000	58.000000	-14.000000	49.000000
1.590000	57.990000	75.860000	63.000000	0.000000	149.000000	58.000000	-16.000000	69.000000
1.600000	57.890000	76.730000	63.000000	0.000000	149.000000	58.000000	-10.000000	87.000000
1.610000	57.830000	77.670000	110.000000	0.000000	149.000000	58.000000	-6.000000	94.000000
1.620000	57.830000	78.650000	170.000000	0.000000	149.000000	58.000000	0.000000	98.000000
1.630000	57.890000	79.160000	242.000000	0.000000	149.000000	58.000000	6.000000	51.000000
1.640000	58.020000	79.340000	279.000000	0.000000	147.000000	58.000000	13.000000	18.000000
1.650000	58.180000	79.340000	312.000000	0.000000	148.000000	57.000000	16.000000	0.000000
1.660000	58.590000	79.480000	333.000000	0.000000	150.000000	57.000000	41.000000	14.000000
1.670000	59.150000	79.430000	363.000000	0.000000	150.000000	57.000000	56.000000	-5.000000
1.680000	59.660000	79.230000	376.000000	0.000000	150.000000	57.000000	51.000000	-20.000000
1.690000	59.980000	78.820000	381.000000	0.000000	151.000000	58.000000	32.000000	-41.000000
1.700000	60.170000	78.400000	391.000000	0.000000	151.000000	58.000000	19.000000	-42.000000
1.710000	60.170000	77.940000	387.000000	0.000000	151.000000	58.000000	0.000000	-46.000000
1.720000	60.000000	77.640000	386.000000	0.000000	152.000000	59.000000	-17.000000	-30.000000
1.730000	59.720000	77.440000	369.000000	0.000000	152.000000	59.000000	-28.000000	-20.000000
1.740000	59.480000	77.360000	353.000000	0.000000	152.000000	59.000000	-24.000000	-8.000000
1.750000	59.310000	77.450000	297.000000	0.000000	152.000000	59.000000	-17.000000	9.000000
1.760000	59.260000	77.660000	232.000000	0.000000	152.000000	59.000000	-5.000000	21.000000
1.770000	59.440000	77.950000	214.000000	0.000000	152.000000	59.000000	18.000000	29.000000
1.780000	59.760000	78.220000	218.000000	0.000000	152.000000	59.000000	32.000000	27.000000
1.790000	60.180000	78.480000	250.000000	0.000000	152.000000	59.000000	42.000000	26.000000
1.800000	60.510000	78.480000	335.000000	0.000000	152.000000	59.000000	33.000000	0.000000
1.810000	60.770000	78.280000	396.000000	0.000000	152.000000	59.000000	26.000000	-20.000000
1.820000	60.880000	78.010000	420.000000	0.000000	152.000000	59.000000	11.000000	-27.000000
1.830000	60.930000	77.670000	433.000000	0.000000	152.000000	59.000000	5.000000	-34.000000
1.840000	60.930000	77.420000	435.000000	0.000000	152.000000	59.000000	0.000000	-25.000000
1.850000	61.010000	77.340000	417.000000	0.000000	152.000000	59.000000	8.000000	-8.000000
1.860000	61.070000	77.340000	285.000000	0.000000	150.000000	58.000000	6.000000	0.000000
1.870000	61.070000	77.340000	0.000000	1.000000	149.000000	59.000000	0.000000	0.000000
1.880000	61.000000	77.850000	0.000000	0.000000	149.000000	59.000000	-7.000000	51.000000
1.890000	60.920000	78.350000	0.000000	0.000000	149.000000	59.000000	-8.000000	50.000000
1.900000	60.920000	78.960000	0.000000	0.000000	149.000000	59.000000	0.000000	61.000000
1.910000	60.920000	79.620000	0.000000	0.000000	149.000000	59.000000	0.000000	66.000000
1.920000	61.010000	80.310000	0.000000	0.000000	149.000000	58.000000	9.000000	69.000000
1.930000	61.010000	80.310000	142.000000	1.000000	149.000000	58.000000	0.000000	0.000000
1.940000	61.010000	80.310000	314.000000	0.000000	149.000000	58.000000	0.000000	0.000000
1.950000	61.010000	80.310000	369.000000	0.000000	147.000000	58.000000	0.000000	0.000000
1.960000	61.010000	80.310000	399.000000	0.000000	148.000000	57.000000	0.000000	0.000000
1.970000	61.010000	80.310000	410.000000	0.000000	150.000000	57.000000	0.000000	0.000000
1.980000	61.010000	80.310000	410.000000	0.000000	150.000000	57.000000	0.000000	0.000000
1.990000	61.010000	80.310000	351.000000	0.000000	150.000000	57.000000	0.000000	0.000000
2.000000	61.260000	80.260000	110.000000	0.000000	150.000000	57.000000	25.000000	-5.000000
2.010000	61.260000	80.260000	0.000000	1.000000	150.000000	57.000000	0.000000	0.000000
2.020000	61.670000	79.290000	0.000000	0.000000	150.000000	57.000000	41.000000	-97.000000
2.030000	61.800000	78.880000	0.000000	0.000000	150.000000	57.000000	13.000000	-41.000000
2.040000	61.920000	78.650000	0.000000	0.000000	150.000000	57.000000	12.000000	-23.000000
2.050000	62.260000	78.540000	0.000000	0.000000	150.000000	57.000000	34.000000	-11.000000
2.060000	62.620000	78.460000	0.000000	0.000000	150.000000	57.000000	36.000000	-8.000000
2.070000	62.620000	78.460000	417.000000	1.000000	150.000000	57.000000	0.000000	0.000000
2.080000	62.620000	78.460000	448.000000	0.000000	148.000000	57.000000	0.000000	0.000000
2.090000	62.620000	78.460000	504.000000	0.000000	148.000000	57.000000	0.000000	0.000000
2.100000	62.330000	78.370000	545.000000	0.000000	148.000000	57.000000	-29.000000	-9.000000
2.110000	62.330000	78.370000	563.000000	0.000000	148.000000	57.000000	0.000000	0.000000
2.120000	62.390000	78.370000	581.000000	0.000000	148.000000	57.000000	6.000000	0.000000
2.130000	62.450000	78.320000	592.000000	0.000000	150.000000	57.000000	6.000000	-5.000000
2.140000	62.570000	78.320000	595.000000	0.000000	150.000000	57.000000	12.000000	0.000000
2.150000	62.780000	78.210000	588.000000	0.000000	150.000000	57.000000	21.000000	-11.000000
2.160000	63.050000	78.100000	565.000000	0.000000	150.000000	57.000000	27.000000	-11.000000
2.170000	63.360000	77.970000	516.000000	0.000000	150.000000	57.000000	31.000000	-13.000000
2.180000	63.720000	77.840000	445.000000	0.000000	149.000000	58.000000	36.000000	-13.000000
2.190000	64.170000	77.700000	341.000000	0.000000	149.000000	58.000000	45.000000	-14.000000
2.200000	64.690000	77.650000	220.000000	0.000000	149.000000	58.000000	52.000000	-5.000000
2.210000	65.260000	77.650000	149.000000	0.000000	149.000000	58.000000	57.000000	0.000000
