t	x	y	pressure	penup	azimuth	inclination	v_x	v_y
0.000000	59.150000	33.770000	3.000000	1.000000	161.000000	57.000000	0.000000	0.000000
0.010000	59.150000	33.770000	42.000000	1.000000	161.000000	57.000000	0.000000	0.000000
0.020000	59.150000	33.770000	58.000000	0.000000	161.000000	57.000000	0.000000	0.000000
0.030000	59.150000	33.770000	106.000000	0.000000	161.000000	57.000000	0.000000	0.000000
0.040000	59.150000	33.770000	141.000000	0.000000	161.000000	57.000000	0.000000	0.000000
0.050000	59.150000	33.770000	179.000000	0.000000	161.000000	57.000000	0.000000	0.000000
0.060000	59.200000	34.040000	215.000000	0.000000	161.000000	57.000000	5.000000	27.000000
0.070000	59.200000	34.100000	254.000000	0.000000	161.000000	57.000000	0.000000	6.000000
0.080000	59.200000	34.150000	270.000000	0.000000	161.000000	57.000000	0.000000	5.000000
0.090000	59.140000	34.150000	280.000000	0.000000	161.000000	57.000000	-6.000000	0.000000
0.100000	59.140000	34.210000	286.000000	0.000000	161.000000	57.000000	0.000000	6.000000
0.110000	59.140000	34.260000	301.000000	0.000000	161.000000	57.000000	0.000000	5.000000
0.120000	59.140000	34.260000	304.000000	0.000000	161.000000	57.000000	0.000000	0.000000
0.130000	59.080000	34.260000	311.000000	0.000000	161.000000	57.000000	-6.000000	0.000000
0.140000	58.940000	34.180000	305.000000	0.000000	161.000000	57.000000	-14.000000	-8.000000
0.150000	58.720000	33.780000	310.000000	0.000000	161.000000	57.000000	-22.000000	-40.000000
0.160000	58.370000	33.160000	325.000000	0.000000	161.000000	57.000000	-35.000000	-62.000000
0.170000	58.000000	32.330000	349.000000	0.000000	161.000000	57.000000	-37.000000	-83.000000
0.180000	57.610000	31.500000	361.000000	0.000000	159.000000	57.000000	-39.000000	-83.000000
0.190000	57.460000	30.670000	369.000000	0.000000	159.000000	57.000000	-15.000000	-83.000000
0.200000	57.610000	29.970000	371.000000	0.000000	159.000000	57.000000	15.000000	-70.000000
0.210000	57.960000	29.360000	372.000000	0.000000	157.000000	57.000000	35.000000	-61.000000
0.220000	58.500000	28.820000	372.000000	0.000000	157.000000	57.000000	54.000000	-54.000000
0.230000	59.270000	28.500000	367.000000	0.000000	157.000000	57.000000	77.000000	-32.000000
0.240000	60.190000	28.340000	361.000000	0.000000	157.000000	58.000000	92.000000	-16.000000
0.250000	60.980000	28.340000	349.000000	0.000000	157.000000	58.000000	79.000000	0.000000
0.260000	61.610000	28.540000	336.000000	0.000000	157.000000	58.000000	63.000000	20.000000
0.270000	62.130000	28.850000	325.000000	0.000000	157.000000	58.000000	52.000000	31.000000
0.280000	62.330000	29.200000	319.000000	0.000000	157.000000	58.000000	20.000000	35.000000
0.290000	62.160000	29.550000	304.000000	0.000000	158.000000	58.000000	-17.000000	35.000000
0.300000	61.740000	29.910000	311.000000	0.000000	158.000000	58.000000	-42.000000	36.000000
0.310000	60.900000	30.030000	305.000000	0.000000	158.000000	58.000000	-84.000000	12.000000
0.320000	59.670000	30.090000	324.000000	0.000000	158.000000	58.000000	-123.000000	6.000000
0.330000	58.180000	30.010000	339.000000	0.000000	158.000000	58.000000	-149.000000	-8.000000
0.340000	56.430000	29.870000	333.000000	0.000000	158.000000	58.000000	-175.000000	-14.000000
0.350000	54.750000	29.730000	324.000000	0.000000	159.000000	57.000000	-168.000000	-14.000000
0.360000	53.110000	29.560000	339.000000	0.000000	159.000000	57.000000	-164.000000	-17.000000
0.370000	51.370000	29.350000	353.000000	0.000000	159.000000	57.000000	-174.000000	-21.000000
0.380000	50.120000	29.160000	349.000000	0.000000	160.000000	56.000000	-125.000000	-19.000000
0.390000	49.190000	29.000000	341.000000	0.000000	160.000000	56.000000	-93.000000	-16.000000
0.400000	48.450000	28.840000	343.000000	0.000000	158.000000	56.000000	-74.000000	-16.000000
0.410000	47.910000	28.660000	341.000000	0.000000	158.000000	56.000000	-54.000000	-18.000000
0.420000	47.500000	28.510000	341.000000	0.000000	156.000000	57.000000	-41.000000	-15.000000
0.430000	47.260000	28.390000	341.000000	0.000000	156.000000	57.000000	-24.000000	-12.000000
0.440000	47.180000	28.390000	341.000000	0.000000	156.000000	57.000000	-8.000000	0.000000
0.450000	47.180000	28.320000	343.000000	0.000000	156.000000	57.000000	0.000000	-7.000000
0.460000	47.290000	28.270000	364.000000	0.000000	156.000000	57.000000	11.000000	-5.000000
0.470000	47.660000	28.210000	387.000000	0.000000	156.000000	57.000000	37.000000	-6.000000
0.480000	48.230000	28.210000	396.000000	0.000000	154.000000	56.000000	57.000000	0.000000
0.490000	48.950000	28.290000	415.000000	0.000000	156.000000	57.000000	72.000000	8.000000
0.500000	49.700000	28.290000	449.000000	0.000000	156.000000	57.000000	75.000000	0.000000
0.510000	50.910000	28.390000	464.000000	0.000000	156.000000	57.000000	121.000000	10.000000
0.520000	52.430000	28.490000	485.000000	0.000000	156.000000	57.000000	152.000000	10.000000
0.530000	54.590000	28.600000	485.000000	0.000000	156.000000	57.000000	216.000000	11.000000
0.540000	56.940000	28.600000	499.000000	0.000000	157.000000	57.000000	235.000000	0.000000
0.550000	59.410000	28.600000	520.000000	0.000000	159.000000	57.000000	247.000000	0.000000
0.560000	61.560000	28.650000	530.000000	0.000000	161.000000	57.000000	215.000000	5.000000
0.570000	63.950000	28.910000	556.000000	0.000000	162.000000	58.000000	239.000000	26.000000
0.580000	66.490000	29.330000	565.000000	0.000000	164.000000	58.000000	254.000000	42.000000
0.590000	69.250000	29.710000	564.000000	0.000000	165.000000	58.000000	276.000000	38.000000
0.600000	71.440000	30.050000	564.000000	0.000000	167.000000	58.000000	219.000000	34.000000
0.610000	73.260000	30.290000	559.000000	0.000000	168.000000	58.000000	182.000000	24.000000
0.620000	74.810000	30.430000	543.000000	0.000000	170.000000	58.000000	155.000000	14.000000
0.630000	75.900000	30.520000	517.000000	0.000000	170.000000	58.000000	109.000000	9.000000
0.640000	76.670000	30.600000	361.000000	0.000000	172.000000	58.000000	77.000000	8.000000
0.650000	76.670000	30.600000	0.000000	1.000000	172.000000	58.000000	0.000000	0.000000
0.660000	77.210000	30.670000	0.000000	0.000000	172.000000	57.000000	54.000000	7.000000
0.670000	77.040000	30.880000	0.000000	0.000000	172.000000	57.000000	-17.000000	21.000000
0.680000	76.720000	31.230000	0.000000	0.000000	172.000000	57.000000	-32.000000	35.000000
0.690000	76.420000	31.500000	0.000000	0.000000	172.000000	57.000000	-30.000000	27.000000
0.700000	76.220000	31.650000	0.000000	0.000000	174.000000	57.000000	-20.000000	15.000000
0.710000	76.080000	31.730000	0.000000	0.000000	174.000000	56.000000	-14.000000	8.000000
0.720000	75.700000	31.730000	0.000000	0.000000	174.000000	56.000000	-38.000000	0.000000
0.730000	75.280000	31.670000	0.000000	0.000000	176.000000	56.000000	-42.000000	-6.000000
0.740000	74.840000	31.670000	0.000000	0.000000	176.000000	55.000000	-44.000000	0.000000
0.750000	74.250000	31.120000	0.000000	0.000000	176.000000	55.000000	-59.000000	-55.000000
0.760000	73.700000	30.890000	0.000000	0.000000	176.000000	55.000000	-55.000000	-23.000000
0.770000	72.970000	30.890000	0.000000	0.000000	175.000000	54.000000	-73.000000	0.000000
0.780000	72.110000	30.670000	0.000000	0.000000	173.000000	55.000000	-86.000000	-22.000000
0.790000	71.310000	30.470000	0.000000	0.000000	170.000000	55.000000	-80.000000	-20.000000
0.800000	70.520000	30.240000	0.000000	0.000000	167.000000	54.000000	-79.000000	-23.000000
0.810000	69.780000	29.850000	0.000000	0.000000	163.000000	55.000000	-74.000000	-39.000000
0.820000	69.230000	29.350000	0.000000	0.000000	158.000000	55.000000	-55.000000	-50.000000
0.830000	68.820000	28.900000	0.000000	0.000000	152.000000	56.000000	-41.000000	-45.000000
0.840000	68.600000	28.540000	0.000000	0.000000	145.000000	56.000000	-22.000000	-36.000000
0.850000	68.600000	28.240000	0.000000	0.000000	141.000000	56.000000	0.000000	-30.000000
0.860000	68.810000	28.190000	0.000000	0.000000	138.000000	57.000000	21.000000	-5.000000
0.870000	68.720000	28.300000	0.000000	0.000000	134.000000	57.000000	-9.000000	11.000000
0.880000	68.720000	28.510000	0.000000	0.000000	132.000000	58.000000	0.000000	21.000000
0.890000	68.660000	28.750000	0.000000	0.000000	131.000000	58.000000	-6.000000	24.000000
0.900000	68.310000	29.000000	0.000000	0.000000	132.000000	59.000000	-35.000000	25.000000
0.910000	67.870000	29.250000	0.000000	0.000000	135.000000	60.000000	-44.000000	25.000000
0.920000	67.370000	29.530000	0.000000	0.000000	140.000000	62.000000	-50.000000	28.000000
0.930000	66.780000	29.800000	0.000000	0.000000	146.000000	63.000000	-59.000000	27.000000
0.940000	66.450000	29.990000	0.000000	0.000000	151.000000	63.000000	-33.000000	19.000000
0.950000	66.280000	30.090000	0.000000	0.000000	157.000000	63.000000	-17.000000	10.000000
0.960000	66.760000	30.490000	0.000000	0.000000	163.000000	62.000000	48.000000	40.000000
0.970000	67.580000	31.140000	0.000000	0.000000	167.000000	61.000000	82.000000	65.000000
0.980000	68.620000	32.150000	0.000000	0.000000	170.000000	60.000000	104.000000	101.000000
0.990000	69.720000	32.550000	0.000000	0.000000	172.000000	59.000000	110.000000	40.000000
1.000000	70.450000	32.550000	0.000000	0.000000	172.000000	57.000000	73.000000	0.000000
1.010000	70.770000	32.470000	0.000000	0.000000	173.000000	55.000000	32.000000	-8.000000
1.020000	70.940000	32.090000	0.000000	0.000000	172.000000	54.000000	17.000000	-38.000000
1.030000	70.740000	31.510000	0.000000	0.000000	172.000000	53.000000	-20.000000	-58.000000
1.040000	70.430000	30.840000	0.000000	0.000000	171.000000	53.000000	-31.000000	-67.000000
1.050000	70.040000	30.440000	0.000000	0.000000	170.000000	52.000000	-39.000000	-40.000000
1.060000	69.720000	30.210000	0.000000	0.000000	170.000000	52.000000	-32.000000	-23.000000
1.070000	69.290000	30.050000	0.000000	0.000000	168.000000	52.000000	-43.000000	-16.000000
1.080000	68.790000	30.050000	0.000000	0.000000	168.000000	52.000000	-50.000000	0.000000
1.090000	68.100000	30.160000	0.000000	0.000000	169.000000	53.000000	-69.000000	11.000000
1.100000	67.430000	30.310000	0.000000	0.000000	169.000000	53.000000	-67.000000	15.000000
1.110000	66.760000	30.460000	0.000000	0.000000	170.000000	54.000000	-67.000000	15.000000
1.120000	66.290000	30.460000	0.000000	0.000000	170.000000	54.000000	-47.000000	0.000000
1.130000	65.840000	30.350000	0.000000	0.000000	170.000000	54.000000	-45.000000	-11.000000
1.140000	65.390000	30.050000	0.000000	0.000000	170.000000	55.000000	-45.000000	-30.000000
1.150000	65.040000	29.740000	0.000000	0.000000	170.000000	55.000000	-35.000000	-31.000000
1.160000	64.740000	29.400000	0.000000	0.000000	170.000000	56.000000	-30.000000	-34.000000
1.170000	64.540000	29.220000	0.000000	0.000000	168.000000	55.000000	-20.000000	-18.000000
1.180000	64.410000	29.140000	0.000000	0.000000	166.000000	56.000000	-13.000000	-8.000000
1.190000	64.410000	29.140000	0.000000	0.000000	164.000000	57.000000	0.000000	0.000000
1.200000	64.470000	29.190000	0.000000	0.000000	162.000000	58.000000	6.000000	5.000000
1.210000	64.470000	29.240000	0.000000	0.000000	161.000000	59.000000	0.000000	5.000000
1.220000	64.370000	29.240000	0.000000	0.000000	161.000000	59.000000	-10.000000	0.000000
1.230000	64.130000	29.240000	0.000000	0.000000	159.000000	59.000000	-24.000000	0.000000
1.240000	63.840000	29.370000	0.000000	0.000000	159.000000	59.000000	-29.000000	13.000000
1.250000	63.510000	29.530000	0.000000	0.000000	159.000000	59.000000	-33.000000	16.000000
1.260000	63.070000	29.690000	0.000000	0.000000	159.000000	59.000000	-44.000000	16.000000
1.270000	62.640000	29.900000	0.000000	0.000000	159.000000	59.000000	-43.000000	21.000000
1.280000	62.220000	30.190000	0.000000	0.000000	158.000000	58.000000	-42.000000	29.000000
1.290000	61.930000	30.520000	0.000000	0.000000	158.000000	58.000000	-29.000000	33.000000
1.300000	61.670000	30.850000	0.000000	0.000000	159.000000	57.000000	-26.000000	33.000000
1.310000	61.450000	31.170000	0.000000	0.000000	159.000000	57.000000	-22.000000	32.000000
1.320000	61.100000	31.450000	0.000000	0.000000	160.000000	56.000000	-35.000000	28.000000
1.330000	60.650000	31.620000	0.000000	0.000000	160.000000	55.000000	-45.000000	17.000000
1.340000	60.260000	31.720000	0.000000	0.000000	161.000000	55.000000	-39.000000	10.000000
1.350000	59.840000	31.850000	0.000000	0.000000	163.000000	55.000000	-42.000000	13.000000
1.360000	59.410000	31.970000	0.000000	0.000000	163.000000	54.000000	-43.000000	12.000000
1.370000	59.060000	32.080000	0.000000	0.000000	163.000000	54.000000	-35.000000	11.000000
1.380000	58.740000	32.180000	0.000000	0.000000	165.000000	53.000000	-32.000000	10.000000
1.390000	58.510000	32.270000	0.000000	0.000000	165.000000	53.000000	-23.000000	9.000000
1.400000	58.510000	32.380000	0.000000	0.000000	165.000000	53.000000	0.000000	11.000000
1.410000	58.630000	32.510000	0.000000	0.000000	166.000000	53.000000	12.000000	13.000000
1.420000	59.070000	32.660000	0.000000	0.000000	166.000000	53.000000	44.000000	15.000000
1.430000	59.620000	32.820000	0.000000	0.000000	168.000000	53.000000	55.000000	16.000000
1.440000	60.240000	32.980000	0.000000	0.000000	169.000000	53.000000	62.000000	16.000000
1.450000	60.730000	33.140000	0.000000	0.000000	169.000000	53.000000	49.000000	16.000000
1.460000	61.220000	33.290000	0.000000	0.000000	170.000000	54.000000	49.000000	15.000000
1.470000	61.740000	33.410000	0.000000	0.000000	172.000000	54.000000	52.000000	12.000000
1.480000	62.280000	33.530000	0.000000	0.000000	172.000000	54.000000	54.000000	12.000000
1.490000	62.820000	33.660000	0.000000	0.000000	173.000000	55.000000	54.000000	13.000000
1.500000	62.820000	33.660000	106.000000	1.000000	173.000000	55.000000	0.000000	0.000000
1.510000	63.690000	34.000000	142.000000	0.000000	173.000000	55.000000	87.000000	34.000000
1.520000	63.890000	34.230000	131.000000	0.000000	173.000000	56.000000	20.000000	23.000000
1.530000	63.940000	34.490000	177.000000	0.000000	173.000000	56.000000	5.000000	26.000000
1.540000	63.850000	34.690000	206.000000	0.000000	173.000000	56.000000	-9.000000	20.000000
1.550000	63.660000	34.840000	215.000000	0.000000	174.000000	57.000000	-19.000000	15.000000
1.560000	63.040000	34.920000	175.000000	0.000000	174.000000	57.000000	-62.000000	8.000000
1.570000	61.860000	34.680000	175.000000	0.000000	174.000000	57.000000	-118.000000	-24.000000
1.580000	60.310000	34.230000	195.000000	0.000000	175.000000	57.000000	-155.000000	-45.000000
1.590000	58.090000	33.230000	218.000000	0.000000	175.000000	57.000000	-222.000000	-100.000000
1.600000	55.550000	31.800000	297.000000	0.000000	175.000000	57.000000	-254.000000	-143.000000
1.610000	52.800000	30.080000	361.000000	0.000000	174.000000	57.000000	-275.000000	-172.000000
1.620000	50.200000	28.020000	402.000000	0.000000	172.000000	58.000000	-260.000000	-206.000000
1.630000	48.590000	26.240000	423.000000	0.000000	170.000000	58.000000	-161.000000	-178.000000
1.640000	47.640000	24.650000	445.000000	0.000000	169.000000	58.000000	-95.000000	-159.000000
1.650000	48.380000	23.770000	473.000000	0.000000	165.000000	58.000000	74.000000	-88.000000
1.660000	50.080000	23.150000	502.000000	0.000000	163.000000	59.000000	170.000000	-62.000000
1.670000	52.430000	22.710000	519.000000	0.000000	161.000000	59.000000	235.000000	-44.000000
1.680000	54.940000	22.710000	504.000000	0.000000	161.000000	60.000000	251.000000	0.000000
1.690000	57.510000	22.890000	452.000000	0.000000	160.000000	60.000000	257.000000	18.000000
1.700000	60.110000	23.250000	205.000000	0.000000	160.000000	60.000000	260.000000	36.000000
1.710000	60.110000	23.250000	0.000000	1.000000	162.000000	61.000000	0.000000	0.000000
1.720000	63.630000	24.330000	0.000000	0.000000	162.000000	61.000000	352.000000	108.000000
1.730000	64.700000	24.990000	0.000000	0.000000	163.000000	61.000000	107.000000	66.000000
1.740000	64.960000	25.400000	0.000000	0.000000	166.000000	60.000000	26.000000	41.000000
1.750000	64.720000	25.630000	0.000000	0.000000	166.000000	60.000000	-24.000000	23.000000
1.760000	64.140000	25.750000	0.000000	0.000000	166.000000	59.000000	-58.000000	12.000000
1.770000	63.860000	25.800000	0.000000	0.000000	166.000000	59.000000	-28.000000	5.000000
1.780000	63.670000	25.860000	0.000000	0.000000	165.000000	58.000000	-19.000000	6.000000
1.790000	63.540000	25.930000	0.000000	0.000000	166.000000	57.000000	-13.000000	7.000000
1.800000	63.320000	25.930000	0.000000	0.000000	165.000000	55.000000	-22.000000	0.000000
1.810000	63.040000	25.930000	0.000000	0.000000	166.000000	54.000000	-28.000000	0.000000
1.820000	62.730000	25.930000	0.000000	0.000000	166.000000	53.000000	-31.000000	0.000000
1.830000	62.570000	25.930000	0.000000	0.000000	166.000000	52.000000	-16.000000	0.000000
1.840000	62.420000	26.010000	0.000000	0.000000	166.000000	52.000000	-15.000000	8.000000
1.850000	62.310000	26.010000	0.000000	0.000000	166.000000	52.000000	-11.000000	0.000000
1.860000	62.220000	26.080000	0.000000	0.000000	166.000000	51.000000	-9.000000	7.000000
1.870000	62.130000	26.080000	0.000000	0.000000	165.000000	51.000000	-9.000000	0.000000
1.880000	61.880000	26.080000	0.000000	0.000000	164.000000	52.000000	-25.000000	0.000000
1.890000	61.530000	26.080000	0.000000	0.000000	164.000000	52.000000	-35.000000	0.000000
1.900000	61.110000	26.080000	0.000000	0.000000	164.000000	52.000000	-42.000000	0.000000
1.910000	60.660000	26.080000	0.000000	0.000000	164.000000	53.000000	-45.000000	0.000000
1.920000	60.190000	26.080000	0.000000	0.000000	162.000000	53.000000	-47.000000	0.000000
1.930000	59.830000	26.020000	0.000000	0.000000	162.000000	54.000000	-36.000000	-6.000000
1.940000	59.670000	25.950000	0.000000	0.000000	162.000000	54.000000	-16.000000	-7.000000
1.950000	59.670000	25.950000	0.000000	0.000000	160.000000	53.000000	0.000000	0.000000
1.960000	59.730000	25.880000	0.000000	0.000000	160.000000	54.000000	6.000000	-7.000000
1.970000	59.870000	25.930000	0.000000	0.000000	160.000000	54.000000	14.000000	5.000000
1.980000	60.080000	25.990000	0.000000	0.000000	159.000000	55.000000	21.000000	6.000000
1.990000	60.330000	26.060000	0.000000	0.000000	159.000000	55.000000	25.000000	7.000000
2.000000	60.470000	26.060000	0.000000	0.000000	158.000000	56.000000	14.000000	0.000000
2.010000	60.540000	26.150000	0.000000	0.000000	158.000000	56.000000	7.000000	9.000000
2.020000	60.490000	26.150000	0.000000	0.000000	157.000000	57.000000	-5.000000	0.000000
2.030000	60.360000	26.150000	0.000000	0.000000	159.000000	57.000000	-13.000000	0.000000
2.040000	60.180000	26.150000	0.000000	0.000000	159.000000	57.000000	-18.000000	0.000000
2.050000	59.950000	26.080000	0.000000	0.000000	159.000000	57.000000	-23.000000	-7.000000
2.060000	59.700000	26.020000	0.000000	0.000000	159.000000	57.000000	-25.000000	-6.000000
2.070000	59.440000	25.900000	0.000000	0.000000	159.000000	57.000000	-26.000000	-12.000000
2.080000	59.220000	25.770000	0.000000	0.000000	159.000000	57.000000	-22.000000	-13.000000
2.090000	58.990000	25.650000	0.000000	0.000000	158.000000	58.000000	-23.000000	-12.000000
2.100000	58.720000	25.530000	0.000000	0.000000	158.000000	58.000000	-27.000000	-12.000000
2.110000	58.720000	25.530000	109.000000	1.000000	158.000000	58.000000	0.000000	0.000000
2.120000	58.090000	24.980000	203.000000	0.000000	157.000000	59.000000	-63.000000	-55.000000
2.130000	57.830000	24.680000	212.000000	0.000000	157.000000	59.000000	-26.000000	-30.000000
2.140000	57.830000	24.590000	237.000000	0.000000	157.000000	59.000000	0.000000	-9.000000
2.150000	58.060000	24.500000	273.000000	0.000000	157.000000	60.000000	23.000000	-9.000000
2.160000	58.540000	24.500000	315.000000	0.000000	157.000000	60.000000	48.000000	0.000000
2.170000	59.180000	24.640000	344.000000	0.000000	157.000000	61.000000	64.000000	14.000000
2.180000	59.930000	24.930000	344.000000	0.000000	157.000000	61.000000	75.000000	29.000000
2.190000	60.600000	25.250000	345.000000	0.000000	156.000000	62.000000	67.000000	32.000000
2.200000	60.980000	25.580000	344.000000	0.000000	158.000000	62.000000	38.000000	33.000000
2.210000	61.170000	25.810000	340.000000	0.000000	158.000000	62.000000	19.000000	23.000000
2.220000	61.170000	26.000000	342.000000	0.000000	160.000000	63.000000	0.000000	19.000000
