t	x	y	pressure	penup	azimuth	inclination	v_x	v_y
0.000000	18.640000	58.710000	13.000000	1.000000	138.000000	61.000000	0.000000	0.000000
0.010000	18.640000	58.710000	50.000000	1.000000	138.000000	61.000000	0.000000	0.000000
0.020000	18.310000	58.650000	99.000000	0.000000	139.000000	61.000000	-33.000000	-6.000000
0.030000	18.310000	58.590000	107.000000	0.000000	139.000000	61.000000	0.000000	-6.000000
0.040000	18.250000	58.590000	125.000000	0.000000	141.000000	61.000000	-6.000000	0.000000
0.050000	18.250000	58.590000	141.000000	0.000000	141.000000	61.000000	0.000000	0.000000
0.060000	18.180000	58.590000	131.000000	0.000000	141.000000	61.000000	-7.000000	0.000000
0.070000	18.180000	58.500000	149.000000	0.000000	141.000000	61.000000	0.000000	-9.000000
0.080000	18.180000	58.370000	177.000000	0.000000	141.000000	61.000000	0.000000	-13.000000
0.090000	18.340000	58.160000	185.000000	0.000000	141.000000	61.000000	16.000000	-21.000000
0.100000	18.580000	57.930000	203.000000	0.000000	141.000000	61.000000	24.000000	-23.000000
0.110000	18.890000	57.660000	222.000000	0.000000	141.000000	61.000000	31.000000	-27.000000
0.120000	19.390000	57.500000	247.000000	0.000000	140.000000	62.000000	50.000000	-16.000000
0.130000	20.020000	57.420000	250.000000	0.000000	140.000000	62.000000	63.000000	-8.000000
0.140000	20.800000	57.420000	284.000000	0.000000	140.000000	62.000000	78.000000	0.000000
0.150000	21.750000	57.700000	296.000000	0.000000	140.000000	62.000000	95.000000	28.000000
0.160000	22.810000	58.080000	309.000000	0.000000	140.000000	62.000000	106.000000	38.000000
0.170000	23.760000	58.540000	317.000000	0.000000	138.000000	61.000000	95.000000	46.000000
0.180000	24.710000	59.100000	304.000000	0.000000	138.000000	61.000000	95.000000	56.000000
0.190000	25.650000	59.740000	311.000000	0.000000	138.000000	61.000000	94.000000	64.000000
0.200000	26.700000	60.460000	314.000000	0.000000	138.000000	61.000000	105.000000	72.000000
0.210000	27.720000	61.380000	294.000000	0.000000	139.000000	61.000000	102.000000	92.000000
0.220000	28.710000	62.440000	285.000000	0.000000	141.000000	61.000000	99.000000	106.000000
0.230000	29.710000	63.770000	274.000000	0.000000	142.000000	61.000000	100.000000	133.000000
0.240000	30.520000	65.070000	255.000000	0.000000	144.000000	60.000000	81.000000	130.000000
0.250000	31.210000	66.020000	260.000000	0.000000	144.000000	60.000000	69.000000	95.000000
0.260000	31.660000	66.740000	260.000000	0.000000	145.000000	59.000000	45.000000	72.000000
0.270000	31.860000	67.300000	269.000000	0.000000	145.000000	59.000000	20.000000	56.000000
0.280000	31.860000	67.630000	284.000000	0.000000	145.000000	59.000000	0.000000	33.000000
0.290000	31.770000	67.810000	287.000000	0.000000	146.000000	58.000000	-9.000000	18.000000
0.300000	31.610000	67.810000	287.000000	0.000000	146.000000	58.000000	-16.000000	0.000000
0.310000	31.420000	67.810000	287.000000	0.000000	146.000000	58.000000	-19.000000	0.000000
0.320000	31.220000	67.510000	274.000000	0.000000	146.000000	58.000000	-20.000000	-30.000000
0.330000	31.040000	67.050000	286.000000	0.000000	146.000000	58.000000	-18.000000	-46.000000
0.340000	30.910000	66.370000	296.000000	0.000000	146.000000	58.000000	-13.000000	-68.000000
0.350000	31.120000	65.570000	296.000000	0.000000	146.000000	58.000000	21.000000	-80.000000
0.360000	31.540000	64.690000	299.000000	0.000000	146.000000	58.000000	42.000000	-88.000000
0.370000	32.450000	63.950000	292.000000	0.000000	146.000000	58.000000	91.000000	-74.000000
0.380000	33.210000	63.430000	292.000000	0.000000	146.000000	58.000000	76.000000	-52.000000
0.390000	33.860000	63.070000	289.000000	0.000000	146.000000	58.000000	65.000000	-36.000000
0.400000	34.440000	62.670000	279.000000	0.000000	146.000000	58.000000	58.000000	-40.000000
0.410000	34.870000	62.390000	274.000000	0.000000	147.000000	59.000000	43.000000	-28.000000
0.420000	35.200000	62.200000	274.000000	0.000000	147.000000	59.000000	33.000000	-19.000000
0.430000	35.290000	62.080000	281.000000	0.000000	147.000000	59.000000	9.000000	-12.000000
0.440000	35.150000	62.080000	284.000000	0.000000	149.000000	59.000000	-14.000000	0.000000
0.450000	34.850000	62.080000	297.000000	0.000000	149.000000	59.000000	-30.000000	0.000000
0.460000	34.290000	62.080000	307.000000	0.000000	149.000000	59.000000	-56.000000	0.000000
0.470000	33.610000	62.210000	305.000000	0.000000	149.000000	59.000000	-68.000000	13.000000
0.480000	32.860000	62.500000	304.000000	0.000000	149.000000	59.000000	-75.000000	29.000000
0.490000	31.970000	62.850000	306.000000	0.000000	149.000000	59.000000	-89.000000	35.000000
0.500000	30.890000	63.160000	289.000000	0.000000	149.000000	59.000000	-108.000000	31.000000
0.510000	29.680000	63.420000	299.000000	0.000000	149.000000	59.000000	-121.000000	26.000000
0.520000	28.380000	63.680000	312.000000	0.000000	149.000000	59.000000	-130.000000	26.000000
0.530000	27.030000	63.850000	309.000000	0.000000	149.000000	59.000000	-135.000000	17.000000
0.540000	25.650000	63.960000	314.000000	0.000000	151.000000	60.000000	-138.000000	11.000000
0.550000	24.560000	64.110000	305.000000	0.000000	152.000000	59.000000	-109.000000	15.000000
0.560000	23.490000	64.270000	312.000000	0.000000	151.000000	60.000000	-107.000000	16.000000
0.570000	22.590000	64.540000	304.000000	0.000000	151.000000	60.000000	-90.000000	27.000000
0.580000	21.790000	64.890000	314.000000	0.000000	151.000000	60.000000	-80.000000	35.000000
0.590000	21.280000	65.400000	307.000000	0.000000	151.000000	60.000000	-51.000000	51.000000
0.600000	21.070000	65.830000	314.000000	0.000000	151.000000	60.000000	-21.000000	43.000000
0.610000	21.070000	66.210000	314.000000	0.000000	151.000000	60.000000	0.000000	38.000000
0.620000	21.140000	66.320000	309.000000	0.000000	150.000000	60.000000	7.000000	11.000000
0.630000	21.230000	66.400000	305.000000	0.000000	150.000000	60.000000	9.000000	8.000000
0.640000	21.320000	66.460000	304.000000	0.000000	150.000000	60.000000	9.000000	6.000000
0.650000	21.560000	66.510000	304.000000	0.000000	150.000000	60.000000	24.000000	5.000000
0.660000	22.300000	66.670000	304.000000	0.000000	150.000000	60.000000	74.000000	16.000000
0.670000	23.370000	66.910000	297.000000	0.000000	150.000000	60.000000	107.000000	24.000000
0.680000	24.640000	67.110000	291.000000	0.000000	151.000000	61.000000	127.000000	20.000000
0.690000	26.010000	67.290000	289.000000	0.000000	151.000000	61.000000	137.000000	18.000000
0.700000	27.440000	67.420000	281.000000	0.000000	151.000000	61.000000	143.000000	13.000000
0.710000	28.940000	67.680000	281.000000	0.000000	151.000000	61.000000	150.000000	26.000000
0.720000	30.480000	68.030000	291.000000	0.000000	151.000000	61.000000	154.000000	35.000000
0.730000	32.060000	68.030000	291.000000	0.000000	151.000000	61.000000	158.000000	0.000000
0.740000	33.620000	68.030000	284.000000	0.000000	151.000000	61.000000	156.000000	0.000000
0.750000	35.150000	67.840000	284.000000	0.000000	152.000000	60.000000	153.000000	-19.000000
0.760000	36.710000	67.620000	284.000000	0.000000	152.000000	60.000000	156.000000	-22.000000
0.770000	38.300000	67.340000	284.000000	0.000000	152.000000	60.000000	159.000000	-28.000000
0.780000	39.610000	67.000000	284.000000	0.000000	152.000000	60.000000	131.000000	-34.000000
0.790000	40.740000	66.590000	286.000000	0.000000	152.000000	60.000000	113.000000	-41.000000
0.800000	41.610000	66.100000	284.000000	0.000000	152.000000	60.000000	87.000000	-49.000000
0.810000	42.150000	65.490000	284.000000	0.000000	152.000000	60.000000	54.000000	-61.000000
0.820000	42.470000	64.810000	287.000000	0.000000	152.000000	60.000000	32.000000	-68.000000
0.830000	42.470000	64.160000	292.000000	0.000000	152.000000	60.000000	0.000000	-65.000000
0.840000	42.060000	63.660000	299.000000	0.000000	152.000000	60.000000	-41.000000	-50.000000
0.850000	41.340000	63.230000	279.000000	0.000000	153.000000	59.000000	-72.000000	-43.000000
0.860000	40.120000	62.840000	255.000000	0.000000	153.000000	59.000000	-122.000000	-39.000000
0.870000	38.310000	62.440000	249.000000	0.000000	153.000000	59.000000	-181.000000	-40.000000
0.880000	36.100000	62.150000	214.000000	0.000000	153.000000	59.000000	-221.000000	-29.000000
0.890000	33.490000	61.930000	214.000000	0.000000	153.000000	59.000000	-261.000000	-22.000000
0.900000	30.780000	61.690000	209.000000	0.000000	153.000000	59.000000	-271.000000	-24.000000
0.910000	28.010000	61.450000	239.000000	0.000000	153.000000	59.000000	-277.000000	-24.000000
0.920000	25.220000	61.210000	253.000000	0.000000	153.000000	59.000000	-279.000000	-24.000000
0.930000	22.580000	60.890000	230.000000	0.000000	153.000000	59.000000	-264.000000	-32.000000
0.940000	20.160000	60.840000	228.000000	0.000000	152.000000	59.000000	-242.000000	-5.000000
0.950000	18.200000	60.990000	226.000000	0.000000	152.000000	59.000000	-196.000000	15.000000
0.960000	16.570000	61.200000	249.000000	0.000000	152.000000	59.000000	-163.000000	21.000000
0.970000	15.070000	61.440000	257.000000	0.000000	152.000000	59.000000	-150.000000	24.000000
0.980000	14.040000	61.700000	280.000000	0.000000	152.000000	59.000000	-103.000000	26.000000
0.990000	13.320000	61.880000	297.000000	0.000000	150.000000	58.000000	-72.000000	18.000000
1.000000	12.990000	62.010000	317.000000	0.000000	150.000000	58.000000	-33.000000	13.000000
1.010000	13.160000	62.010000	305.000000	0.000000	150.000000	58.000000	17.000000	0.000000
1.020000	13.670000	62.070000	315.000000	0.000000	150.000000	57.000000	51.000000	6.000000
1.030000	14.980000	62.170000	335.000000	0.000000	151.000000	58.000000	131.000000	10.000000
1.040000	16.970000	62.320000	337.000000	0.000000	151.000000	58.000000	199.000000	15.000000
1.050000	19.420000	62.610000	333.000000	0.000000	151.000000	58.000000	245.000000	29.000000
1.060000	21.870000	62.670000	346.000000	0.000000	150.000000	58.000000	245.000000	6.000000
1.070000	24.280000	62.570000	373.000000	0.000000	152.000000	59.000000	241.000000	-10.000000
1.080000	26.620000	62.310000	391.000000	0.000000	152.000000	59.000000	234.000000	-26.000000
1.090000	29.060000	62.040000	417.000000	0.000000	153.000000	59.000000	244.000000	-27.000000
1.100000	31.580000	61.950000	417.000000	0.000000	152.000000	60.000000	252.000000	-9.000000
1.110000	34.060000	62.000000	422.000000	0.000000	152.000000	60.000000	248.000000	5.000000
1.120000	36.470000	62.050000	418.000000	0.000000	152.000000	60.000000	241.000000	5.000000
1.130000	38.470000	62.110000	391.000000	0.000000	154.000000	60.000000	200.000000	6.000000
1.140000	39.830000	62.110000	334.000000	0.000000	154.000000	60.000000	136.000000	0.000000
1.150000	40.770000	62.110000	96.000000	0.000000	155.000000	60.000000	94.000000	0.000000
1.160000	40.770000	62.110000	0.000000	1.000000	155.000000	60.000000	0.000000	0.000000
1.170000	40.840000	61.910000	0.000000	0.000000	155.000000	60.000000	7.000000	-20.000000
1.180000	40.150000	61.910000	0.000000	0.000000	153.000000	59.000000	-69.000000	0.000000
1.190000	39.180000	61.980000	0.000000	0.000000	153.000000	59.000000	-97.000000	7.000000
1.200000	38.030000	61.980000	0.000000	0.000000	153.000000	59.000000	-115.000000	0.000000
1.210000	36.770000	61.890000	0.000000	0.000000	153.000000	59.000000	-126.000000	-9.000000
1.220000	35.510000	61.770000	0.000000	0.000000	153.000000	59.000000	-126.000000	-12.000000
1.230000	34.390000	61.770000	0.000000	0.000000	153.000000	59.000000	-112.000000	0.000000
1.240000	33.370000	61.870000	0.000000	0.000000	153.000000	59.000000	-102.000000	10.000000
1.250000	32.480000	61.960000	0.000000	0.000000	153.000000	59.000000	-89.000000	9.000000
1.260000	31.360000	62.070000	0.000000	0.000000	152.000000	59.000000	-112.000000	11.000000
1.270000	30.290000	62.230000	0.000000	0.000000	152.000000	59.000000	-107.000000	16.000000
1.280000	29.320000	62.420000	0.000000	0.000000	150.000000	58.000000	-97.000000	19.000000
1.290000	28.270000	62.610000	0.000000	0.000000	150.000000	57.000000	-105.000000	19.000000
1.300000	27.220000	62.860000	0.000000	0.000000	150.000000	57.000000	-105.000000	25.000000
1.310000	26.160000	63.140000	0.000000	0.000000	149.000000	56.000000	-106.000000	28.000000
1.320000	25.250000	63.200000	0.000000	0.000000	148.000000	56.000000	-91.000000	6.000000
1.330000	24.600000	63.200000	0.000000	0.000000	149.000000	55.000000	-65.000000	0.000000
1.340000	24.110000	63.110000	0.000000	0.000000	150.000000	55.000000	-49.000000	-9.000000
1.350000	24.160000	63.330000	0.000000	0.000000	150.000000	55.000000	5.000000	22.000000
1.360000	24.290000	63.530000	0.000000	0.000000	153.000000	55.000000	13.000000	20.000000
1.370000	24.460000	63.830000	0.000000	0.000000	154.000000	55.000000	17.000000	30.000000
1.380000	24.680000	64.210000	0.000000	0.000000	155.000000	55.000000	22.000000	38.000000
1.390000	24.960000	64.630000	0.000000	0.000000	158.000000	55.000000	28.000000	42.000000
1.400000	25.340000	65.100000	0.000000	0.000000	159.000000	55.000000	38.000000	47.000000
1.410000	25.740000	65.610000	0.000000	0.000000	161.000000	55.000000	40.000000	51.000000
1.420000	26.130000	66.010000	0.000000	0.000000	163.000000	55.000000	39.000000	40.000000
1.430000	26.510000	66.240000	0.000000	0.000000	163.000000	54.000000	38.000000	23.000000
1.440000	26.710000	66.350000	0.000000	0.000000	163.000000	54.000000	20.000000	11.000000
1.450000	26.780000	66.350000	0.000000	0.000000	164.000000	53.000000	7.000000	0.000000
1.460000	26.610000	66.300000	0.000000	0.000000	162.000000	53.000000	-17.000000	-5.000000
1.470000	26.290000	66.130000	0.000000	0.000000	161.000000	52.000000	-32.000000	-17.000000
1.480000	25.880000	65.880000	0.000000	0.000000	162.000000	52.000000	-41.000000	-25.000000
1.490000	25.350000	65.590000	0.000000	0.000000	160.000000	52.000000	-53.000000	-29.000000
1.500000	24.660000	65.300000	0.000000	0.000000	160.000000	52.000000	-69.000000	-29.000000
1.510000	23.870000	65.040000	0.000000	0.000000	158.000000	52.000000	-79.000000	-26.000000
1.520000	23.070000	64.810000	0.000000	0.000000	158.000000	53.000000	-80.000000	-23.000000
1.530000	22.240000	64.550000	0.000000	0.000000	159.000000	53.000000	-83.000000	-26.000000
1.540000	21.390000	64.290000	0.000000	0.000000	159.000000	53.000000	-85.000000	-26.000000
1.550000	20.640000	64.000000	0.000000	0.000000	158.000000	54.000000	-75.000000	-29.000000
1.560000	20.240000	63.850000	0.000000	0.000000	157.000000	54.000000	-40.000000	-15.000000
1.570000	20.080000	63.790000	0.000000	0.000000	156.000000	53.000000	-16.000000	-6.000000
1.580000	19.690000	63.720000	0.000000	0.000000	154.000000	53.000000	-39.000000	-7.000000
1.590000	19.620000	63.720000	0.000000	0.000000	154.000000	53.000000	-7.000000	0.000000
1.600000	19.750000	63.850000	0.000000	0.000000	153.000000	54.000000	13.000000	13.000000
1.610000	19.880000	63.920000	0.000000	0.000000	152.000000	54.000000	13.000000	7.000000
1.620000	20.010000	64.020000	0.000000	0.000000	153.000000	54.000000	13.000000	10.000000
1.630000	20.160000	64.130000	0.000000	0.000000	153.000000	54.000000	15.000000	11.000000
1.640000	20.350000	64.270000	0.000000	0.000000	153.000000	54.000000	19.000000	14.000000
1.650000	20.540000	64.430000	0.000000	0.000000	155.000000	54.000000	19.000000	16.000000
1.660000	20.720000	64.570000	0.000000	0.000000	155.000000	54.000000	18.000000	14.000000
1.670000	20.870000	64.700000	0.000000	0.000000	155.000000	54.000000	15.000000	13.000000
1.680000	20.980000	64.820000	0.000000	0.000000	155.000000	54.000000	11.000000	12.000000
1.690000	21.050000	64.910000	0.000000	0.000000	156.000000	55.000000	7.000000	9.000000
1.700000	21.160000	65.000000	0.000000	0.000000	156.000000	55.000000	11.000000	9.000000
1.710000	21.160000	65.080000	0.000000	0.000000	156.000000	55.000000	0.000000	8.000000
1.720000	21.050000	65.150000	0.000000	0.000000	156.000000	55.000000	-11.000000	7.000000
1.730000	20.910000	65.230000	0.000000	0.000000	155.000000	55.000000	-14.000000	8.000000
1.740000	20.670000	65.310000	0.000000	0.000000	155.000000	55.000000	-24.000000	8.000000
1.750000	20.370000	65.380000	0.000000	0.000000	157.000000	56.000000	-30.000000	7.000000
1.760000	20.000000	65.380000	0.000000	0.000000	157.000000	56.000000	-37.000000	0.000000
1.770000	19.640000	65.440000	0.000000	0.000000	157.000000	56.000000	-36.000000	6.000000
1.780000	19.300000	65.440000	0.000000	0.000000	158.000000	56.000000	-34.000000	0.000000
1.790000	18.960000	65.440000	0.000000	0.000000	158.000000	56.000000	-34.000000	0.000000
1.800000	18.820000	65.440000	0.000000	0.000000	158.000000	56.000000	-14.000000	0.000000
1.810000	18.720000	65.510000	0.000000	0.000000	160.000000	56.000000	-10.000000	7.000000
1.820000	18.720000	65.510000	0.000000	0.000000	160.000000	56.000000	0.000000	0.000000
1.830000	18.830000	65.570000	0.000000	0.000000	161.000000	57.000000	11.000000	6.000000
1.840000	18.990000	65.630000	0.000000	0.000000	161.000000	57.000000	16.000000	6.000000
1.850000	19.230000	65.720000	0.000000	0.000000	161.000000	57.000000	24.000000	9.000000
1.860000	19.570000	65.830000	0.000000	0.000000	161.000000	57.000000	34.000000	11.000000
1.870000	20.080000	66.060000	0.000000	0.000000	161.000000	57.000000	51.000000	23.000000
1.880000	20.080000	66.060000	22.000000	1.000000	159.000000	57.000000	0.000000	0.000000
1.890000	21.250000	66.590000	56.000000	0.000000	159.000000	57.000000	117.000000	53.000000
1.900000	21.640000	66.820000	106.000000	0.000000	159.000000	57.000000	39.000000	23.000000
1.910000	21.930000	67.010000	136.000000	0.000000	159.000000	57.000000	29.000000	19.000000
1.920000	22.080000	67.130000	160.000000	0.000000	159.000000	57.000000	15.000000	12.000000
1.930000	22.080000	67.130000	193.000000	0.000000	158.000000	58.000000	0.000000	0.000000
1.940000	22.010000	67.130000	185.000000	0.000000	157.000000	58.000000	-7.000000	0.000000
1.950000	21.540000	67.130000	187.000000	0.000000	157.000000	58.000000	-47.000000	0.000000
1.960000	20.710000	66.930000	170.000000	0.000000	157.000000	58.000000	-83.000000	-20.000000
1.970000	19.630000	66.640000	173.000000	0.000000	157.000000	58.000000	-108.000000	-29.000000
1.980000	18.490000	66.140000	212.000000	0.000000	157.000000	58.000000	-114.000000	-50.000000
1.990000	17.370000	65.430000	251.000000	0.000000	157.000000	58.000000	-112.000000	-71.000000
2.000000	16.630000	64.590000	250.000000	0.000000	157.000000	57.000000	-74.000000	-84.000000
2.010000	16.130000	64.170000	254.000000	0.000000	157.000000	57.000000	-50.000000	-42.000000
2.020000	16.210000	63.890000	274.000000	0.000000	157.000000	57.000000	8.000000	-28.000000
2.030000	16.500000	63.710000	273.000000	0.000000	157.000000	57.000000	29.000000	-18.000000
2.040000	16.930000	63.710000	281.000000	0.000000	157.000000	56.000000	43.000000	0.000000
2.050000	17.500000	63.790000	282.000000	0.000000	157.000000	56.000000	57.000000	8.000000
2.060000	18.160000	64.010000	277.000000	0.000000	157.000000	56.000000	66.000000	22.000000
2.070000	18.880000	64.280000	273.000000	0.000000	157.000000	56.000000	72.000000	27.000000
2.080000	19.290000	64.550000	279.000000	0.000000	157.000000	56.000000	41.000000	27.000000
2.090000	19.370000	64.600000	269.000000	0.000000	157.000000	56.000000	8.000000	5.000000
2.100000	19.230000	64.510000	269.000000	0.000000	158.000000	56.000000	-14.000000	-9.000000
2.110000	18.670000	64.110000	279.000000	0.000000	158.000000	56.000000	-56.000000	-40.000000
2.120000	17.830000	63.440000	309.000000	0.000000	158.000000	56.000000	-84.000000	-67.000000
2.130000	16.810000	62.580000	329.000000	0.000000	158.000000	56.000000	-102.000000	-86.000000
2.140000	15.710000	61.560000	356.000000	0.000000	158.000000	56.000000	-110.000000	-102.000000
2.150000	15.260000	61.140000	353.000000	0.000000	157.000000	56.000000	-45.000000	-42.000000
2.160000	15.260000	61.140000	351.000000	0.000000	155.000000	55.000000	0.000000	0.000000
2.170000	15.440000	61.090000	337.000000	0.000000	155.000000	55.000000	18.000000	-5.000000
2.180000	15.880000	61.000000	260.000000	0.000000	154.000000	55.000000	44.000000	-9.000000
2.190000	16.460000	61.160000	149.000000	0.000000	153.000000	55.000000	58.000000	16.000000
2.200000	16.460000	61.160000	0.000000	1.000000	153.000000	55.000000	0.000000	0.000000
