t	x	y	pressure	penup	azimuth	inclination	v_x	v_y
0.000000	84.450000	64.370000	61.000000	1.000000	187.000000	53.000000	0.000000	0.000000
0.010000	84.840000	64.510000	144.000000	0.000000	187.000000	53.000000	39.000000	14.000000
0.020000	84.840000	64.570000	262.000000	0.000000	187.000000	53.000000	0.000000	6.000000
0.030000	84.840000	64.570000	362.000000	0.000000	187.000000	53.000000	0.000000	0.000000
0.040000	84.840000	64.570000	445.000000	0.000000	185.000000	53.000000	0.000000	0.000000
0.050000	84.750000	64.490000	507.000000	0.000000	185.000000	53.000000	-9.000000	-8.000000
0.060000	84.650000	64.280000	553.000000	0.000000	185.000000	53.000000	-10.000000	-21.000000
0.070000	84.500000	63.980000	575.000000	0.000000	185.000000	53.000000	-15.000000	-30.000000
0.080000	84.360000	63.660000	616.000000	0.000000	187.000000	53.000000	-14.000000	-32.000000
0.090000	84.300000	63.320000	636.000000	0.000000	187.000000	53.000000	-6.000000	-34.000000
0.100000	84.300000	62.960000	667.000000	0.000000	187.000000	53.000000	0.000000	-36.000000
0.110000	84.360000	62.610000	714.000000	0.000000	187.000000	53.000000	6.000000	-35.000000
0.120000	84.490000	62.240000	737.000000	0.000000	186.000000	52.000000	13.000000	-37.000000
0.130000	84.650000	61.830000	756.000000	0.000000	186.000000	52.000000	16.000000	-41.000000
0.140000	84.920000	61.490000	779.000000	0.000000	188.000000	52.000000	27.000000	-34.000000
0.150000	85.270000	61.310000	797.000000	0.000000	188.000000	53.000000	35.000000	-18.000000
0.160000	85.670000	61.230000	805.000000	0.000000	187.000000	53.000000	40.000000	-8.000000
0.170000	86.310000	61.230000	815.000000	0.000000	187.000000	53.000000	64.000000	0.000000
0.180000	86.930000	61.230000	806.000000	0.000000	187.000000	53.000000	62.000000	0.000000
0.190000	87.530000	61.330000	776.000000	0.000000	187.000000	53.000000	60.000000	10.000000
0.200000	87.970000	61.450000	697.000000	0.000000	187.000000	54.000000	44.000000	12.000000
0.210000	88.290000	61.570000	516.000000	0.000000	187.000000	54.000000	32.000000	12.000000
0.220000	88.510000	61.700000	55.000000	0.000000	187.000000	54.000000	22.000000	13.000000
0.230000	88.510000	61.700000	0.000000	1.000000	187.000000	54.000000	0.000000	0.000000
0.240000	88.440000	62.020000	0.000000	0.000000	187.000000	54.000000	-7.000000	32.000000
0.250000	88.190000	62.210000	0.000000	0.000000	187.000000	54.000000	-25.000000	19.000000
0.260000	87.910000	62.410000	0.000000	0.000000	187.000000	54.000000	-28.000000	20.000000
0.270000	87.560000	62.560000	0.000000	0.000000	187.000000	54.000000	-35.000000	15.000000
0.280000	87.200000	62.700000	0.000000	0.000000	187.000000	54.000000	-36.000000	14.000000
0.290000	86.830000	62.790000	0.000000	0.000000	187.000000	54.000000	-37.000000	9.000000
0.300000	86.410000	62.790000	0.000000	0.000000	187.000000	54.000000	-42.000000	0.000000
0.310000	85.960000	62.790000	0.000000	0.000000	188.000000	54.000000	-45.000000	0.000000
0.320000	85.960000	62.790000	195.000000	1.000000	188.000000	53.000000	0.000000	0.000000
0.330000	85.120000	62.650000	241.000000	0.000000	188.000000	53.000000	-84.000000	-14.000000
0.340000	84.870000	62.650000	335.000000	0.000000	188.000000	53.000000	-25.000000	0.000000
0.350000	84.820000	62.790000	444.000000	0.000000	188.000000	53.000000	-5.000000	14.000000
0.360000	84.820000	62.790000	522.000000	0.000000	188.000000	53.000000	0.000000	0.000000
0.370000	84.820000	62.790000	546.000000	0.000000	187.000000	53.000000	0.000000	0.000000
0.380000	84.820000	62.790000	572.000000	0.000000	187.000000	53.000000	0.000000	0.000000
0.390000	85.060000	62.790000	581.000000	0.000000	187.000000	53.000000	24.000000	0.000000
0.400000	85.400000	62.740000	581.000000	0.000000	187.000000	53.000000	34.000000	-5.000000
0.410000	85.780000	62.740000	537.000000	0.000000	187.000000	53.000000	38.000000	0.000000
0.420000	86.120000	62.740000	422.000000	0.000000	187.000000	53.000000	34.000000	0.000000
0.430000	86.440000	62.800000	203.000000	0.000000	187.000000	53.000000	32.000000	6.000000
0.440000	86.440000	62.800000	0.000000	1.000000	187.000000	53.000000	0.000000	0.000000
0.450000	86.900000	62.960000	0.000000	0.000000	185.000000	53.000000	46.000000	16.000000
0.460000	86.970000	63.100000	0.000000	0.000000	185.000000	53.000000	7.000000	14.000000
0.470000	86.920000	63.340000	0.000000	0.000000	185.000000	53.000000	-5.000000	24.000000
0.480000	86.790000	63.570000	0.000000	0.000000	185.000000	53.000000	-13.000000	23.000000
0.490000	86.540000	63.770000	0.000000	0.000000	185.000000	53.000000	-25.000000	20.000000
0.500000	86.210000	63.920000	0.000000	0.000000	187.000000	53.000000	-33.000000	15.000000
0.510000	85.880000	64.060000	0.000000	0.000000	185.000000	53.000000	-33.000000	14.000000
0.520000	85.520000	64.150000	0.000000	0.000000	185.000000	53.000000	-36.000000	9.000000
0.530000	85.520000	64.150000	89.000000	1.000000	185.000000	53.000000	0.000000	0.000000
0.540000	84.600000	64.230000	171.000000	0.000000	185.000000	53.000000	-92.000000	8.000000
0.550000	84.120000	64.310000	314.000000	0.000000	185.000000	53.000000	-48.000000	8.000000
0.560000	83.840000	64.390000	402.000000	0.000000	185.000000	53.000000	-28.000000	8.000000
0.570000	83.660000	64.390000	480.000000	0.000000	185.000000	53.000000	-18.000000	0.000000
0.580000	83.660000	64.450000	524.000000	0.000000	184.000000	53.000000	0.000000	6.000000
0.590000	83.740000	64.450000	562.000000	0.000000	184.000000	53.000000	8.000000	0.000000
0.600000	83.870000	64.450000	595.000000	0.000000	184.000000	53.000000	13.000000	0.000000
0.610000	84.270000	64.450000	610.000000	0.000000	184.000000	53.000000	40.000000	0.000000
0.620000	84.670000	64.450000	617.000000	0.000000	184.000000	53.000000	40.000000	0.000000
0.630000	85.090000	64.530000	619.000000	0.000000	184.000000	53.000000	42.000000	8.000000
0.640000	85.540000	64.530000	620.000000	0.000000	184.000000	53.000000	45.000000	0.000000
0.650000	85.990000	64.530000	591.000000	0.000000	184.000000	54.000000	45.000000	0.000000
0.660000	86.330000	64.460000	507.000000	0.000000	183.000000	54.000000	34.000000	-7.000000
0.670000	86.610000	64.360000	274.000000	0.000000	183.000000	54.000000	28.000000	-10.000000
0.680000	86.610000	64.360000	0.000000	1.000000	183.000000	54.000000	0.000000	0.000000
0.690000	87.050000	64.130000	0.000000	0.000000	183.000000	54.000000	44.000000	-23.000000
0.700000	87.300000	64.060000	0.000000	0.000000	183.000000	54.000000	25.000000	-7.000000
0.710000	87.620000	64.060000	0.000000	0.000000	183.000000	54.000000	32.000000	0.000000
0.720000	87.990000	63.990000	0.000000	0.000000	183.000000	54.000000	37.000000	-7.000000
0.730000	88.460000	63.930000	0.000000	0.000000	183.000000	54.000000	47.000000	-6.000000
0.740000	88.880000	63.850000	0.000000	0.000000	184.000000	54.000000	42.000000	-8.000000
0.750000	89.240000	63.750000	0.000000	0.000000	184.000000	53.000000	36.000000	-10.000000
0.760000	89.520000	63.630000	0.000000	0.000000	184.000000	53.000000	28.000000	-12.000000
0.770000	89.620000	63.510000	0.000000	0.000000	184.000000	53.000000	10.000000	-12.000000
0.780000	89.620000	63.430000	0.000000	0.000000	184.000000	53.000000	0.000000	-8.000000
0.790000	89.620000	63.430000	70.000000	1.000000	184.000000	53.000000	0.000000	0.000000
0.800000	89.620000	63.430000	146.000000	0.000000	184.000000	53.000000	0.000000	0.000000
0.810000	89.200000	63.460000	277.000000	0.000000	184.000000	53.000000	-42.000000	3.000000
0.820000	88.970000	63.520000	330.000000	0.000000	184.000000	54.000000	-23.000000	6.000000
0.830000	88.650000	63.520000	417.000000	0.000000	184.000000	54.000000	-32.000000	0.000000
0.840000	88.250000	63.520000	474.000000	0.000000	184.000000	54.000000	-40.000000	0.000000
0.850000	87.790000	63.380000	507.000000	0.000000	184.000000	54.000000	-46.000000	-14.000000
0.860000	87.400000	63.250000	515.000000	0.000000	184.000000	54.000000	-39.000000	-13.000000
0.870000	87.260000	63.140000	530.000000	0.000000	184.000000	54.000000	-14.000000	-11.000000
0.880000	87.260000	63.030000	546.000000	0.000000	184.000000	54.000000	0.000000	-11.000000
0.890000	87.330000	62.930000	561.000000	0.000000	183.000000	54.000000	7.000000	-10.000000
0.900000	87.650000	62.800000	563.000000	0.000000	183.000000	53.000000	32.000000	-13.000000
0.910000	88.140000	62.660000	583.000000	0.000000	183.000000	53.000000	49.000000	-14.000000
0.920000	88.700000	62.510000	588.000000	0.000000	183.000000	53.000000	56.000000	-15.000000
0.930000	89.230000	62.350000	606.000000	0.000000	183.000000	53.000000	53.000000	-16.000000
0.940000	89.700000	62.190000	617.000000	0.000000	183.000000	54.000000	47.000000	-16.000000
0.950000	89.970000	62.050000	610.000000	0.000000	183.000000	54.000000	27.000000	-14.000000
0.960000	90.100000	61.950000	617.000000	0.000000	183.000000	54.000000	13.000000	-10.000000
0.970000	90.100000	61.890000	630.000000	0.000000	183.000000	54.000000	0.000000	-6.000000
0.980000	90.050000	61.890000	665.000000	0.000000	184.000000	54.000000	-5.000000	0.000000
0.990000	89.790000	61.790000	690.000000	0.000000	184.000000	54.000000	-26.000000	-10.000000
1.000000	89.370000	61.690000	697.000000	0.000000	184.000000	54.000000	-42.000000	-10.000000
1.010000	88.840000	61.620000	708.000000	0.000000	184.000000	54.000000	-53.000000	-7.000000
1.020000	88.400000	61.570000	716.000000	0.000000	184.000000	54.000000	-44.000000	-5.000000
1.030000	88.030000	61.520000	714.000000	0.000000	184.000000	54.000000	-37.000000	-5.000000
1.040000	87.730000	61.520000	700.000000	0.000000	184.000000	54.000000	-30.000000	0.000000
1.050000	87.560000	61.590000	673.000000	0.000000	184.000000	54.000000	-17.000000	7.000000
1.060000	87.480000	61.660000	610.000000	0.000000	184.000000	54.000000	-8.000000	7.000000
1.070000	87.400000	61.770000	491.000000	0.000000	184.000000	54.000000	-8.000000	11.000000
1.080000	87.400000	61.950000	262.000000	0.000000	184.000000	54.000000	0.000000	18.000000
1.090000	87.400000	61.950000	0.000000	1.000000	183.000000	54.000000	0.000000	0.000000
1.100000	87.790000	62.440000	0.000000	0.000000	183.000000	54.000000	39.000000	49.000000
1.110000	88.160000	62.780000	0.000000	0.000000	183.000000	54.000000	37.000000	34.000000
1.120000	88.560000	63.190000	0.000000	0.000000	183.000000	54.000000	40.000000	41.000000
1.130000	88.980000	63.650000	0.000000	0.000000	183.000000	54.000000	42.000000	46.000000
1.140000	89.400000	64.100000	0.000000	0.000000	183.000000	54.000000	42.000000	45.000000
1.150000	89.810000	64.540000	0.000000	0.000000	183.000000	54.000000	41.000000	44.000000
1.160000	89.970000	64.990000	0.000000	0.000000	184.000000	54.000000	16.000000	45.000000
1.170000	89.970000	64.990000	168.000000	1.000000	184.000000	54.000000	0.000000	0.000000
1.180000	89.970000	65.620000	251.000000	0.000000	184.000000	54.000000	0.000000	63.000000
1.190000	89.970000	65.620000	340.000000	0.000000	185.000000	54.000000	0.000000	0.000000
1.200000	90.050000	65.440000	417.000000	0.000000	185.000000	54.000000	8.000000	-18.000000
1.210000	90.170000	65.020000	502.000000	0.000000	185.000000	54.000000	12.000000	-42.000000
1.220000	90.370000	64.460000	546.000000	0.000000	187.000000	54.000000	20.000000	-56.000000
1.230000	90.550000	63.810000	574.000000	0.000000	187.000000	54.000000	18.000000	-65.000000
1.240000	90.680000	63.160000	592.000000	0.000000	187.000000	54.000000	13.000000	-65.000000
1.250000	90.760000	62.510000	611.000000	0.000000	187.000000	54.000000	8.000000	-65.000000
1.260000	90.810000	61.980000	613.000000	0.000000	187.000000	54.000000	5.000000	-53.000000
1.270000	90.810000	61.530000	613.000000	0.000000	187.000000	54.000000	0.000000	-45.000000
1.280000	90.810000	61.310000	599.000000	0.000000	188.000000	54.000000	0.000000	-22.000000
1.290000	90.810000	61.220000	554.000000	0.000000	188.000000	54.000000	0.000000	-9.000000
1.300000	90.750000	61.220000	453.000000	0.000000	188.000000	54.000000	-6.000000	0.000000
1.310000	90.660000	61.270000	299.000000	0.000000	189.000000	55.000000	-9.000000	5.000000
1.320000	90.490000	61.430000	247.000000	0.000000	189.000000	55.000000	-17.000000	16.000000
1.330000	90.400000	61.680000	175.000000	0.000000	187.000000	55.000000	-9.000000	25.000000
1.340000	90.400000	61.920000	180.000000	0.000000	187.000000	55.000000	0.000000	24.000000
1.350000	90.490000	62.130000	191.000000	0.000000	187.000000	55.000000	9.000000	21.000000
1.360000	90.670000	62.280000	259.000000	0.000000	187.000000	55.000000	18.000000	15.000000
1.370000	90.890000	62.420000	334.000000	0.000000	187.000000	55.000000	22.000000	14.000000
1.380000	91.080000	62.530000	361.000000	0.000000	187.000000	55.000000	19.000000	11.000000
1.390000	91.380000	62.650000	399.000000	0.000000	187.000000	55.000000	30.000000	12.000000
1.400000	91.750000	62.760000	418.000000	0.000000	187.000000	55.000000	37.000000	11.000000
1.410000	92.070000	62.880000	436.000000	0.000000	187.000000	55.000000	32.000000	12.000000
1.420000	92.370000	62.980000	446.000000	0.000000	187.000000	55.000000	30.000000	10.000000
1.430000	92.660000	63.130000	446.000000	0.000000	187.000000	54.000000	29.000000	15.000000
1.440000	92.930000	63.310000	449.000000	0.000000	187.000000	55.000000	27.000000	18.000000
1.450000	93.120000	63.490000	440.000000	0.000000	187.000000	55.000000	19.000000	18.000000
1.460000	93.250000	63.760000	445.000000	0.000000	187.000000	55.000000	13.000000	27.000000
1.470000	93.350000	64.080000	445.000000	0.000000	187.000000	55.000000	10.000000	32.000000
1.480000	93.290000	64.340000	440.000000	0.000000	189.000000	55.000000	-6.000000	26.000000
1.490000	93.110000	64.570000	442.000000	0.000000	189.000000	55.000000	-18.000000	23.000000
1.500000	92.960000	64.630000	442.000000	0.000000	190.000000	55.000000	-15.000000	6.000000
1.510000	92.690000	64.580000	455.000000	0.000000	190.000000	55.000000	-27.000000	-5.000000
1.520000	92.340000	64.430000	456.000000	0.000000	190.000000	55.000000	-35.000000	-15.000000
1.530000	92.180000	64.230000	468.000000	0.000000	191.000000	54.000000	-16.000000	-20.000000
1.540000	92.180000	63.940000	465.000000	0.000000	191.000000	54.000000	0.000000	-29.000000
1.550000	92.250000	63.600000	481.000000	0.000000	190.000000	55.000000	7.000000	-34.000000
1.560000	92.430000	63.240000	498.000000	0.000000	190.000000	55.000000	18.000000	-36.000000
1.570000	92.660000	62.840000	504.000000	0.000000	190.000000	55.000000	23.000000	-40.000000
1.580000	92.920000	62.480000	533.000000	0.000000	189.000000	55.000000	26.000000	-36.000000
1.590000	93.250000	62.150000	553.000000	0.000000	189.000000	55.000000	33.000000	-33.000000
1.600000	93.610000	61.920000	561.000000	0.000000	189.000000	55.000000	36.000000	-23.000000
1.610000	93.980000	61.760000	565.000000	0.000000	189.000000	55.000000	37.000000	-16.000000
1.620000	94.080000	61.660000	570.000000	0.000000	189.000000	55.000000	10.000000	-10.000000
1.630000	94.140000	61.660000	565.000000	0.000000	189.000000	55.000000	6.000000	0.000000
1.640000	94.140000	61.610000	561.000000	0.000000	189.000000	55.000000	0.000000	-5.000000
1.650000	94.090000	61.610000	564.000000	0.000000	189.000000	55.000000	-5.000000	0.000000
1.660000	93.960000	61.670000	562.000000	0.000000	189.000000	55.000000	-13.000000	6.000000
1.670000	93.840000	61.730000	570.000000	0.000000	189.000000	55.000000	-12.000000	6.000000
1.680000	93.730000	61.800000	583.000000	0.000000	189.000000	55.000000	-11.000000	7.000000
1.690000	93.730000	61.850000	606.000000	0.000000	189.000000	55.000000	0.000000	5.000000
1.700000	93.670000	61.850000	633.000000	0.000000	189.000000	55.000000	-6.000000	0.000000
1.710000	93.670000	62.010000	640.000000	0.000000	190.000000	55.000000	0.000000	16.000000
1.720000	93.770000	62.180000	661.000000	0.000000	190.000000	55.000000	10.000000	17.000000
1.730000	93.890000	62.480000	664.000000	0.000000	190.000000	55.000000	12.000000	30.000000
1.740000	94.000000	62.770000	693.000000	0.000000	190.000000	55.000000	11.000000	29.000000
1.750000	94.110000	63.080000	697.000000	0.000000	190.000000	55.000000	11.000000	31.000000
1.760000	94.320000	63.410000	699.000000	0.000000	190.000000	55.000000	21.000000	33.000000
1.770000	94.520000	63.530000	696.000000	0.000000	190.000000	55.000000	20.000000	12.000000
1.780000	94.760000	63.620000	691.000000	0.000000	189.000000	55.000000	24.000000	9.000000
1.790000	95.020000	63.620000	653.000000	0.000000	189.000000	55.000000	26.000000	0.000000
1.800000	95.240000	63.620000	488.000000	0.000000	189.000000	55.000000	22.000000	0.000000
1.810000	95.240000	63.620000	0.000000	1.000000	189.000000	55.000000	0.000000	0.000000
1.820000	95.580000	63.460000	0.000000	0.000000	189.000000	55.000000	34.000000	-16.000000
1.830000	95.670000	63.460000	0.000000	0.000000	189.000000	55.000000	9.000000	0.000000
1.840000	95.720000	63.460000	0.000000	0.000000	187.000000	55.000000	5.000000	0.000000
1.850000	96.010000	63.520000	0.000000	0.000000	187.000000	55.000000	29.000000	6.000000
1.860000	96.450000	63.520000	0.000000	0.000000	187.000000	55.000000	44.000000	0.000000
1.870000	97.030000	63.520000	0.000000	0.000000	187.000000	55.000000	58.000000	0.000000
1.880000	97.720000	63.520000	0.000000	0.000000	187.000000	55.000000	69.000000	0.000000
1.890000	98.470000	63.520000	0.000000	0.000000	189.000000	55.000000	75.000000	0.000000
1.900000	99.150000	63.470000	0.000000	0.000000	188.000000	54.000000	68.000000	-5.000000
1.910000	99.830000	63.310000	0.000000	0.000000	188.000000	54.000000	68.000000	-16.000000
1.920000	100.510000	63.120000	0.000000	0.000000	188.000000	54.000000	68.000000	-19.000000
1.930000	100.880000	62.910000	0.000000	0.000000	188.000000	53.000000	37.000000	-21.000000
1.940000	101.030000	62.700000	0.000000	0.000000	188.000000	53.000000	15.000000	-21.000000
1.950000	100.650000	62.510000	0.000000	0.000000	187.000000	53.000000	-38.000000	-19.000000
1.960000	100.130000	62.380000	0.000000	0.000000	185.000000	54.000000	-52.000000	-13.000000
1.970000	99.510000	62.290000	0.000000	0.000000	184.000000	54.000000	-62.000000	-9.000000
1.980000	98.900000	62.290000	0.000000	0.000000	184.000000	54.000000	-61.000000	0.000000
1.990000	98.270000	62.290000	0.000000	0.000000	183.000000	54.000000	-63.000000	0.000000
2.000000	97.740000	62.420000	0.000000	0.000000	183.000000	54.000000	-53.000000	13.000000
2.010000	97.270000	62.550000	0.000000	0.000000	183.000000	54.000000	-47.000000	13.000000
2.020000	97.000000	62.700000	0.000000	0.000000	183.000000	54.000000	-27.000000	15.000000
2.030000	96.900000	62.860000	0.000000	0.000000	184.000000	54.000000	-10.000000	16.000000
2.040000	96.900000	63.020000	0.000000	0.000000	184.000000	54.000000	0.000000	16.000000
2.050000	96.900000	63.200000	0.000000	0.000000	184.000000	54.000000	0.000000	18.000000
2.060000	96.980000	63.400000	0.000000	0.000000	184.000000	54.000000	8.000000	20.000000
2.070000	96.980000	63.660000	0.000000	0.000000	184.000000	54.000000	0.000000	26.000000
2.080000	96.980000	63.970000	0.000000	0.000000	184.000000	54.000000	0.000000	31.000000
2.090000	96.850000	64.320000	0.000000	0.000000	184.000000	53.000000	-13.000000	35.000000
2.100000	96.750000	64.760000	0.000000	0.000000	184.000000	53.000000	-10.000000	44.000000
2.110000	96.650000	65.240000	0.000000	0.000000	184.000000	54.000000	-10.000000	48.000000
2.120000	96.580000	65.750000	0.000000	0.000000	184.000000	54.000000	-7.000000	51.000000
2.130000	96.530000	66.390000	0.000000	0.000000	184.000000	54.000000	-5.000000	64.000000
2.140000	96.530000	66.390000	91.000000	1.000000	186.000000	55.000000	0.000000	0.000000
2.150000	96.530000	67.150000	148.000000	0.000000	186.000000	55.000000	0.000000	76.000000
2.160000	96.580000	67.150000	235.000000	0.000000	186.000000	55.000000	5.000000	0.000000
2.170000	96.580000	66.990000	337.000000	0.000000	186.000000	56.000000	0.000000	-16.000000
2.180000	96.580000	66.720000	425.000000	0.000000	186.000000	56.000000	0.000000	-27.000000
2.190000	96.650000	66.250000	465.000000	0.000000	186.000000	56.000000	7.000000	-47.000000
2.200000	96.650000	65.720000	501.000000	0.000000	186.000000	56.000000	0.000000	-53.000000
2.210000	96.750000	65.050000	529.000000	0.000000	186.000000	56.000000	10.000000	-67.000000
2.220000	96.820000	64.310000	543.000000	0.000000	186.000000	56.000000	7.000000	-74.000000
