t	x	y	pressure	penup	azimuth	inclination	v_x	v_y
0.000000	10.360000	65.840000	141.000000	1.000000	168.000000	58.000000	0.000000	0.000000
0.010000	10.360000	65.840000	220.000000	0.000000	168.000000	58.000000	0.000000	0.000000
0.020000	10.190000	66.090000	314.000000	0.000000	168.000000	58.000000	-17.000000	25.000000
0.030000	10.190000	66.090000	376.000000	0.000000	168.000000	59.000000	0.000000	0.000000
0.040000	10.140000	66.090000	433.000000	0.000000	168.000000	59.000000	-5.000000	0.000000
0.050000	10.140000	66.010000	519.000000	0.000000	168.000000	59.000000	0.000000	-8.000000
0.060000	10.050000	65.840000	592.000000	0.000000	168.000000	59.000000	-9.000000	-17.000000
0.070000	9.950000	65.550000	650.000000	0.000000	168.000000	59.000000	-10.000000	-29.000000
0.080000	9.820000	65.150000	667.000000	0.000000	168.000000	59.000000	-13.000000	-40.000000
0.090000	9.710000	64.770000	710.000000	0.000000	168.000000	59.000000	-11.000000	-38.000000
0.100000	9.660000	64.400000	746.000000	0.000000	168.000000	59.000000	-5.000000	-37.000000
0.110000	9.710000	63.910000	773.000000	0.000000	168.000000	59.000000	5.000000	-49.000000
0.120000	9.790000	63.500000	826.000000	0.000000	168.000000	59.000000	8.000000	-41.000000
0.130000	9.880000	63.150000	860.000000	0.000000	168.000000	58.000000	9.000000	-35.000000
0.140000	10.210000	62.810000	891.000000	0.000000	168.000000	58.000000	33.000000	-34.000000
0.150000	10.630000	62.630000	920.000000	0.000000	167.000000	58.000000	42.000000	-18.000000
0.160000	11.100000	62.570000	947.000000	0.000000	167.000000	57.000000	47.000000	-6.000000
0.170000	11.800000	62.570000	938.000000	0.000000	167.000000	57.000000	70.000000	0.000000
0.180000	12.380000	62.570000	940.000000	0.000000	166.000000	57.000000	58.000000	0.000000
0.190000	12.880000	62.660000	951.000000	0.000000	166.000000	57.000000	50.000000	9.000000
0.200000	13.220000	62.800000	905.000000	0.000000	166.000000	56.000000	34.000000	14.000000
0.210000	13.610000	62.940000	836.000000	0.000000	165.000000	56.000000	39.000000	14.000000
0.220000	14.020000	63.070000	725.000000	0.000000	165.000000	56.000000	41.000000	13.000000
0.230000	14.240000	63.210000	468.000000	0.000000	166.000000	56.000000	22.000000	14.000000
0.240000	14.240000	63.330000	51.000000	0.000000	166.000000	56.000000	0.000000	12.000000
0.250000	14.240000	63.330000	0.000000	1.000000	166.000000	56.000000	0.000000	0.000000
0.260000	13.920000	63.590000	0.000000	0.000000	168.000000	56.000000	-32.000000	26.000000
0.270000	13.580000	63.740000	0.000000	0.000000	168.000000	56.000000	-34.000000	15.000000
0.280000	13.190000	63.920000	0.000000	0.000000	167.000000	57.000000	-39.000000	18.000000
0.290000	12.850000	64.060000	0.000000	0.000000	169.000000	58.000000	-34.000000	14.000000
0.300000	12.450000	64.120000	0.000000	0.000000	169.000000	58.000000	-40.000000	6.000000
0.310000	12.020000	64.120000	0.000000	0.000000	169.000000	58.000000	-43.000000	0.000000
0.320000	11.480000	64.170000	0.000000	0.000000	169.000000	58.000000	-54.000000	5.000000
0.330000	10.950000	64.170000	0.000000	0.000000	169.000000	58.000000	-53.000000	0.000000
0.340000	10.450000	64.170000	0.000000	0.000000	168.000000	58.000000	-50.000000	0.000000
0.350000	10.450000	64.170000	200.000000	1.000000	168.000000	58.000000	0.000000	0.000000
0.360000	9.780000	64.060000	254.000000	0.000000	168.000000	58.000000	-67.000000	-11.000000
0.370000	9.710000	64.140000	359.000000	0.000000	167.000000	58.000000	-7.000000	8.000000
0.380000	9.710000	64.140000	486.000000	0.000000	166.000000	59.000000	0.000000	0.000000
0.390000	9.800000	64.090000	541.000000	0.000000	168.000000	59.000000	9.000000	-5.000000
0.400000	9.950000	64.090000	561.000000	0.000000	168.000000	59.000000	15.000000	0.000000
0.410000	10.280000	63.980000	577.000000	0.000000	168.000000	59.000000	33.000000	-11.000000
0.420000	10.740000	63.910000	578.000000	0.000000	168.000000	59.000000	46.000000	-7.000000
0.430000	11.200000	63.910000	559.000000	0.000000	166.000000	59.000000	46.000000	0.000000
0.440000	11.650000	63.960000	497.000000	0.000000	167.000000	58.000000	45.000000	5.000000
0.450000	11.980000	64.010000	359.000000	0.000000	167.000000	58.000000	33.000000	5.000000
0.460000	12.230000	64.100000	180.000000	0.000000	167.000000	58.000000	25.000000	9.000000
0.470000	12.230000	64.100000	0.000000	1.000000	165.000000	58.000000	0.000000	0.000000
0.480000	12.430000	64.370000	0.000000	0.000000	165.000000	58.000000	20.000000	27.000000
0.490000	12.430000	64.530000	0.000000	0.000000	165.000000	58.000000	0.000000	16.000000
0.500000	12.190000	64.730000	0.000000	0.000000	164.000000	58.000000	-24.000000	20.000000
0.510000	11.940000	64.960000	0.000000	0.000000	165.000000	59.000000	-25.000000	23.000000
0.520000	11.660000	65.190000	0.000000	0.000000	165.000000	59.000000	-28.000000	23.000000
0.530000	11.320000	65.390000	0.000000	0.000000	165.000000	59.000000	-34.000000	20.000000
0.540000	10.910000	65.520000	0.000000	0.000000	165.000000	59.000000	-41.000000	13.000000
0.550000	10.460000	65.590000	0.000000	0.000000	166.000000	59.000000	-45.000000	7.000000
0.560000	10.460000	65.590000	81.000000	1.000000	166.000000	59.000000	0.000000	0.000000
0.570000	9.610000	65.590000	156.000000	0.000000	166.000000	59.000000	-85.000000	0.000000
0.580000	9.370000	65.590000	277.000000	0.000000	168.000000	59.000000	-24.000000	0.000000
0.590000	9.230000	65.590000	417.000000	0.000000	168.000000	60.000000	-14.000000	0.000000
0.600000	9.230000	65.590000	512.000000	0.000000	168.000000	60.000000	0.000000	0.000000
0.610000	9.230000	65.590000	570.000000	0.000000	168.000000	60.000000	0.000000	0.000000
0.620000	9.230000	65.590000	622.000000	0.000000	168.000000	60.000000	0.000000	0.000000
0.630000	9.310000	65.590000	670.000000	0.000000	168.000000	60.000000	8.000000	0.000000
0.640000	9.420000	65.590000	705.000000	0.000000	168.000000	60.000000	11.000000	0.000000
0.650000	9.730000	65.640000	752.000000	0.000000	168.000000	60.000000	31.000000	5.000000
0.660000	10.170000	65.700000	760.000000	0.000000	168.000000	60.000000	44.000000	6.000000
0.670000	10.820000	65.700000	770.000000	0.000000	166.000000	60.000000	65.000000	0.000000
0.680000	11.330000	65.770000	776.000000	0.000000	166.000000	60.000000	51.000000	7.000000
0.690000	11.750000	65.770000	777.000000	0.000000	166.000000	60.000000	42.000000	0.000000
0.700000	12.080000	65.770000	773.000000	0.000000	164.000000	60.000000	33.000000	0.000000
0.710000	12.290000	65.770000	754.000000	0.000000	164.000000	60.000000	21.000000	0.000000
0.720000	12.410000	65.720000	710.000000	0.000000	164.000000	60.000000	12.000000	-5.000000
0.730000	12.410000	65.720000	610.000000	0.000000	162.000000	60.000000	0.000000	0.000000
0.740000	12.410000	65.720000	309.000000	0.000000	162.000000	60.000000	0.000000	0.000000
0.750000	12.410000	65.720000	0.000000	1.000000	163.000000	59.000000	0.000000	0.000000
0.760000	12.410000	65.660000	0.000000	0.000000	163.000000	59.000000	0.000000	-6.000000
0.770000	12.410000	65.580000	0.000000	0.000000	163.000000	59.000000	0.000000	-8.000000
0.780000	12.540000	65.510000	0.000000	0.000000	163.000000	59.000000	13.000000	-7.000000
0.790000	12.850000	65.380000	0.000000	0.000000	165.000000	59.000000	31.000000	-13.000000
0.800000	13.300000	65.150000	0.000000	0.000000	165.000000	59.000000	45.000000	-23.000000
0.810000	13.810000	64.910000	0.000000	0.000000	167.000000	58.000000	51.000000	-24.000000
0.820000	14.290000	64.670000	0.000000	0.000000	167.000000	58.000000	48.000000	-24.000000
0.830000	14.650000	64.500000	0.000000	0.000000	169.000000	58.000000	36.000000	-17.000000
0.840000	14.940000	64.320000	0.000000	0.000000	170.000000	58.000000	29.000000	-18.000000
0.850000	15.220000	64.230000	0.000000	0.000000	172.000000	58.000000	28.000000	-9.000000
0.860000	15.430000	64.230000	0.000000	0.000000	172.000000	57.000000	21.000000	0.000000
0.870000	15.600000	64.230000	0.000000	0.000000	174.000000	57.000000	17.000000	0.000000
0.880000	15.770000	64.380000	0.000000	0.000000	175.000000	57.000000	17.000000	15.000000
0.890000	15.880000	64.520000	0.000000	0.000000	175.000000	58.000000	11.000000	14.000000
0.900000	15.950000	64.630000	0.000000	0.000000	175.000000	58.000000	7.000000	11.000000
0.910000	15.950000	64.630000	143.000000	1.000000	175.000000	58.000000	0.000000	0.000000
0.920000	15.950000	64.630000	206.000000	0.000000	175.000000	59.000000	0.000000	0.000000
0.930000	15.590000	64.890000	279.000000	0.000000	175.000000	59.000000	-36.000000	26.000000
0.940000	15.300000	64.990000	371.000000	0.000000	175.000000	59.000000	-29.000000	10.000000
0.950000	14.910000	64.990000	450.000000	0.000000	175.000000	60.000000	-39.000000	0.000000
0.960000	14.450000	64.990000	518.000000	0.000000	173.000000	60.000000	-46.000000	0.000000
0.970000	13.950000	64.870000	560.000000	0.000000	171.000000	60.000000	-50.000000	-12.000000
0.980000	13.540000	64.730000	595.000000	0.000000	170.000000	60.000000	-41.000000	-14.000000
0.990000	13.350000	64.600000	622.000000	0.000000	168.000000	59.000000	-19.000000	-13.000000
1.000000	13.270000	64.490000	639.000000	0.000000	166.000000	59.000000	-8.000000	-11.000000
1.010000	13.270000	64.380000	641.000000	0.000000	165.000000	59.000000	0.000000	-11.000000
1.020000	13.380000	64.260000	668.000000	0.000000	165.000000	59.000000	11.000000	-12.000000
1.030000	13.670000	64.090000	685.000000	0.000000	163.000000	59.000000	29.000000	-17.000000
1.040000	14.080000	63.880000	696.000000	0.000000	163.000000	59.000000	41.000000	-21.000000
1.050000	14.600000	63.740000	702.000000	0.000000	164.000000	58.000000	52.000000	-14.000000
1.060000	15.020000	63.640000	699.000000	0.000000	164.000000	58.000000	42.000000	-10.000000
1.070000	15.370000	63.510000	708.000000	0.000000	164.000000	58.000000	35.000000	-13.000000
1.080000	15.620000	63.430000	710.000000	0.000000	165.000000	58.000000	25.000000	-8.000000
1.090000	15.700000	63.430000	717.000000	0.000000	166.000000	57.000000	8.000000	0.000000
1.100000	15.700000	63.330000	730.000000	0.000000	166.000000	57.000000	0.000000	-10.000000
1.110000	15.700000	63.280000	752.000000	0.000000	167.000000	57.000000	0.000000	-5.000000
1.120000	15.590000	63.280000	776.000000	0.000000	168.000000	56.000000	-11.000000	0.000000
1.130000	15.490000	63.170000	811.000000	0.000000	169.000000	57.000000	-10.000000	-11.000000
1.140000	15.230000	63.090000	826.000000	0.000000	169.000000	57.000000	-26.000000	-8.000000
1.150000	14.870000	62.980000	818.000000	0.000000	169.000000	57.000000	-36.000000	-11.000000
1.160000	14.430000	62.890000	822.000000	0.000000	169.000000	57.000000	-44.000000	-9.000000
1.170000	14.060000	62.890000	824.000000	0.000000	169.000000	57.000000	-37.000000	0.000000
1.180000	13.740000	62.840000	827.000000	0.000000	168.000000	56.000000	-32.000000	-5.000000
1.190000	13.520000	62.840000	818.000000	0.000000	168.000000	56.000000	-22.000000	0.000000
1.200000	13.470000	62.840000	785.000000	0.000000	166.000000	56.000000	-5.000000	0.000000
1.210000	13.530000	62.840000	745.000000	0.000000	166.000000	57.000000	6.000000	0.000000
1.220000	13.530000	62.910000	614.000000	0.000000	166.000000	57.000000	0.000000	7.000000
1.230000	13.660000	63.080000	329.000000	0.000000	164.000000	57.000000	13.000000	17.000000
1.240000	13.660000	63.080000	0.000000	1.000000	164.000000	57.000000	0.000000	0.000000
1.250000	14.200000	63.560000	0.000000	0.000000	164.000000	57.000000	54.000000	48.000000
1.260000	14.590000	63.860000	0.000000	0.000000	166.000000	57.000000	39.000000	30.000000
1.270000	14.960000	64.200000	0.000000	0.000000	166.000000	57.000000	37.000000	34.000000
1.280000	15.350000	64.590000	0.000000	0.000000	167.000000	57.000000	39.000000	39.000000
1.290000	15.780000	64.990000	0.000000	0.000000	169.000000	58.000000	43.000000	40.000000
1.300000	16.020000	65.380000	0.000000	0.000000	170.000000	58.000000	24.000000	39.000000
1.310000	16.140000	65.810000	0.000000	0.000000	172.000000	59.000000	12.000000	43.000000
1.320000	16.210000	66.270000	0.000000	0.000000	173.000000	59.000000	7.000000	46.000000
1.330000	16.210000	66.270000	129.000000	1.000000	173.000000	59.000000	0.000000	0.000000
1.340000	16.210000	67.140000	214.000000	0.000000	175.000000	59.000000	0.000000	87.000000
1.350000	16.210000	67.220000	301.000000	0.000000	175.000000	59.000000	0.000000	8.000000
1.360000	16.260000	67.080000	417.000000	0.000000	175.000000	60.000000	5.000000	-14.000000
1.370000	16.370000	66.800000	518.000000	0.000000	175.000000	60.000000	11.000000	-28.000000
1.380000	16.470000	66.290000	566.000000	0.000000	175.000000	60.000000	10.000000	-51.000000
1.390000	16.560000	65.620000	620.000000	0.000000	175.000000	60.000000	9.000000	-67.000000
1.400000	16.650000	65.000000	644.000000	0.000000	175.000000	60.000000	9.000000	-62.000000
1.410000	16.760000	64.350000	661.000000	0.000000	175.000000	60.000000	11.000000	-65.000000
1.420000	16.830000	63.660000	670.000000	0.000000	177.000000	60.000000	7.000000	-69.000000
1.430000	16.880000	63.190000	671.000000	0.000000	177.000000	60.000000	5.000000	-47.000000
1.440000	16.970000	62.860000	653.000000	0.000000	177.000000	59.000000	9.000000	-33.000000
1.450000	17.040000	62.630000	606.000000	0.000000	178.000000	59.000000	7.000000	-23.000000
1.460000	17.100000	62.560000	519.000000	0.000000	178.000000	59.000000	6.000000	-7.000000
1.470000	17.100000	62.560000	339.000000	0.000000	180.000000	59.000000	0.000000	0.000000
1.480000	17.100000	62.700000	48.000000	0.000000	180.000000	59.000000	0.000000	14.000000
1.490000	17.100000	62.700000	0.000000	1.000000	180.000000	59.000000	0.000000	0.000000
1.500000	16.860000	63.320000	0.000000	0.000000	180.000000	59.000000	-24.000000	62.000000
1.510000	16.650000	63.710000	0.000000	0.000000	180.000000	59.000000	-21.000000	39.000000
1.520000	16.650000	63.710000	93.000000	1.000000	180.000000	59.000000	0.000000	0.000000
1.530000	16.350000	64.330000	237.000000	0.000000	178.000000	59.000000	-30.000000	62.000000
1.540000	16.350000	64.470000	314.000000	0.000000	178.000000	59.000000	0.000000	14.000000
1.550000	16.350000	64.530000	417.000000	0.000000	177.000000	59.000000	0.000000	6.000000
1.560000	16.460000	64.530000	473.000000	0.000000	177.000000	59.000000	11.000000	0.000000
1.570000	16.600000	64.530000	541.000000	0.000000	177.000000	59.000000	14.000000	0.000000
1.580000	16.960000	64.470000	551.000000	0.000000	177.000000	60.000000	36.000000	-6.000000
1.590000	17.470000	64.400000	569.000000	0.000000	177.000000	60.000000	51.000000	-7.000000
1.600000	17.900000	64.400000	574.000000	0.000000	178.000000	60.000000	43.000000	0.000000
1.610000	18.330000	64.400000	580.000000	0.000000	178.000000	60.000000	43.000000	0.000000
1.620000	18.750000	64.480000	572.000000	0.000000	180.000000	60.000000	42.000000	8.000000
1.630000	19.120000	64.620000	568.000000	0.000000	180.000000	60.000000	37.000000	14.000000
1.640000	19.450000	64.830000	556.000000	0.000000	180.000000	60.000000	33.000000	21.000000
1.650000	19.700000	65.090000	512.000000	0.000000	180.000000	60.000000	25.000000	26.000000
1.660000	19.780000	65.440000	494.000000	0.000000	182.000000	60.000000	8.000000	35.000000
1.670000	19.780000	65.840000	492.000000	0.000000	182.000000	60.000000	0.000000	40.000000
1.680000	19.640000	66.090000	497.000000	0.000000	182.000000	60.000000	-14.000000	25.000000
1.690000	19.480000	66.180000	492.000000	0.000000	182.000000	60.000000	-16.000000	9.000000
1.700000	19.310000	66.180000	496.000000	0.000000	182.000000	60.000000	-17.000000	0.000000
1.710000	19.140000	66.000000	502.000000	0.000000	182.000000	60.000000	-17.000000	-18.000000
1.720000	18.910000	65.800000	512.000000	0.000000	182.000000	60.000000	-23.000000	-20.000000
1.730000	18.850000	65.510000	515.000000	0.000000	183.000000	60.000000	-6.000000	-29.000000
1.740000	18.900000	65.160000	537.000000	0.000000	183.000000	60.000000	5.000000	-35.000000
1.750000	19.030000	64.730000	536.000000	0.000000	183.000000	60.000000	13.000000	-43.000000
1.760000	19.250000	64.280000	562.000000	0.000000	182.000000	60.000000	22.000000	-45.000000
1.770000	19.530000	63.810000	578.000000	0.000000	182.000000	60.000000	28.000000	-47.000000
1.780000	19.850000	63.440000	592.000000	0.000000	182.000000	60.000000	32.000000	-37.000000
1.790000	20.210000	63.150000	586.000000	0.000000	182.000000	60.000000	36.000000	-29.000000
1.800000	20.590000	62.910000	594.000000	0.000000	182.000000	60.000000	38.000000	-24.000000
1.810000	20.740000	62.770000	594.000000	0.000000	182.000000	60.000000	15.000000	-14.000000
1.820000	20.790000	62.690000	595.000000	0.000000	182.000000	59.000000	5.000000	-8.000000
1.830000	20.790000	62.690000	605.000000	0.000000	180.000000	59.000000	0.000000	0.000000
1.840000	20.710000	62.740000	600.000000	0.000000	180.000000	59.000000	-8.000000	5.000000
1.850000	20.570000	62.860000	603.000000	0.000000	180.000000	59.000000	-14.000000	12.000000
1.860000	20.370000	63.040000	606.000000	0.000000	180.000000	59.000000	-20.000000	18.000000
1.870000	20.190000	63.220000	619.000000	0.000000	180.000000	59.000000	-18.000000	18.000000
1.880000	20.070000	63.400000	656.000000	0.000000	180.000000	59.000000	-12.000000	18.000000
1.890000	20.070000	63.560000	691.000000	0.000000	180.000000	59.000000	0.000000	16.000000
1.900000	20.070000	63.710000	703.000000	0.000000	180.000000	59.000000	0.000000	15.000000
1.910000	20.280000	63.920000	742.000000	0.000000	180.000000	59.000000	21.000000	21.000000
1.920000	20.550000	64.180000	753.000000	0.000000	180.000000	59.000000	27.000000	26.000000
1.930000	20.860000	64.390000	762.000000	0.000000	182.000000	59.000000	31.000000	21.000000
1.940000	21.150000	64.610000	768.000000	0.000000	182.000000	59.000000	29.000000	22.000000
1.950000	21.430000	64.810000	760.000000	0.000000	182.000000	59.000000	28.000000	20.000000
1.960000	21.720000	64.930000	733.000000	0.000000	182.000000	59.000000	29.000000	12.000000
1.970000	21.800000	64.930000	561.000000	0.000000	182.000000	59.000000	8.000000	0.000000
1.980000	21.730000	64.860000	93.000000	0.000000	183.000000	59.000000	-7.000000	-7.000000
1.990000	21.730000	64.860000	0.000000	1.000000	182.000000	59.000000	0.000000	0.000000
2.000000	21.730000	64.860000	0.000000	0.000000	182.000000	59.000000	0.000000	0.000000
2.010000	21.640000	64.930000	0.000000	0.000000	182.000000	59.000000	-9.000000	7.000000
2.020000	21.490000	65.070000	0.000000	0.000000	182.000000	59.000000	-15.000000	14.000000
2.030000	21.360000	65.150000	0.000000	0.000000	180.000000	59.000000	-13.000000	8.000000
2.040000	21.630000	65.230000	0.000000	0.000000	180.000000	59.000000	27.000000	8.000000
2.050000	22.170000	65.300000	0.000000	0.000000	180.000000	58.000000	54.000000	7.000000
2.060000	22.990000	65.370000	0.000000	0.000000	180.000000	57.000000	82.000000	7.000000
2.070000	24.170000	65.280000	0.000000	0.000000	180.000000	56.000000	118.000000	-9.000000
2.080000	25.590000	65.180000	0.000000	0.000000	181.000000	56.000000	142.000000	-10.000000
2.090000	27.150000	65.040000	0.000000	0.000000	181.000000	55.000000	156.000000	-14.000000
2.100000	28.560000	64.850000	0.000000	0.000000	181.000000	54.000000	141.000000	-19.000000
2.110000	29.140000	64.590000	0.000000	0.000000	180.000000	54.000000	58.000000	-26.000000
2.120000	29.210000	64.320000	0.000000	0.000000	180.000000	53.000000	7.000000	-27.000000
2.130000	28.750000	64.060000	0.000000	0.000000	179.000000	53.000000	-46.000000	-26.000000
2.140000	28.180000	63.800000	0.000000	0.000000	179.000000	53.000000	-57.000000	-26.000000
2.150000	27.540000	63.690000	0.000000	0.000000	177.000000	53.000000	-64.000000	-11.000000
2.160000	26.800000	63.690000	0.000000	0.000000	176.000000	54.000000	-74.000000	0.000000
2.170000	26.110000	63.690000	0.000000	0.000000	176.000000	54.000000	-69.000000	0.000000
2.180000	25.660000	63.780000	0.000000	0.000000	176.000000	54.000000	-45.000000	9.000000
2.190000	25.350000	63.850000	0.000000	0.000000	177.000000	55.000000	-31.000000	7.000000
2.200000	25.350000	63.950000	0.000000	0.000000	177.000000	55.000000	0.000000	10.000000
2.210000	25.460000	64.110000	0.000000	0.000000	179.000000	55.000000	11.000000	16.000000
2.220000	25.460000	64.110000	0.000000	0.000000	179.000000	55.000000	0.000000	0.000000
