t	x	y	pressure	penup	azimuth	inclination	v_x	v_y
0.000000	51.210000	81.570000	20.000000	1.000000	143.000000	53.000000	0.000000	0.000000
0.010000	51.210000	81.570000	112.000000	0.000000	143.000000	53.000000	0.000000	0.000000
0.020000	51.390000	81.860000	206.000000	0.000000	143.000000	53.000000	18.000000	29.000000
0.030000	51.390000	81.910000	269.000000	0.000000	143.000000	53.000000	0.000000	5.000000
0.040000	51.390000	81.960000	281.000000	0.000000	143.000000	53.000000	0.000000	5.000000
0.050000	51.460000	81.960000	301.000000	0.000000	143.000000	53.000000	7.000000	0.000000
0.060000	51.540000	82.090000	339.000000	0.000000	143.000000	53.000000	8.000000	13.000000
0.070000	51.650000	82.220000	409.000000	0.000000	143.000000	53.000000	11.000000	13.000000
0.080000	51.780000	82.350000	481.000000	0.000000	143.000000	53.000000	13.000000	13.000000
0.090000	51.880000	82.460000	556.000000	0.000000	143.000000	53.000000	10.000000	11.000000
0.100000	51.960000	82.540000	597.000000	0.000000	145.000000	53.000000	8.000000	8.000000
0.110000	51.960000	82.590000	619.000000	0.000000	145.000000	53.000000	0.000000	5.000000
0.120000	52.020000	82.590000	622.000000	0.000000	145.000000	53.000000	6.000000	0.000000
0.130000	52.020000	82.590000	628.000000	0.000000	145.000000	53.000000	0.000000	0.000000
0.140000	52.020000	82.590000	630.000000	0.000000	145.000000	53.000000	0.000000	0.000000
0.150000	52.020000	82.590000	633.000000	0.000000	145.000000	53.000000	0.000000	0.000000
0.160000	52.020000	82.590000	642.000000	0.000000	145.000000	53.000000	0.000000	0.000000
0.170000	52.020000	82.590000	636.000000	0.000000	143.000000	52.000000	0.000000	0.000000
0.180000	52.020000	82.530000	637.000000	0.000000	143.000000	52.000000	0.000000	-6.000000
0.190000	51.830000	82.390000	640.000000	0.000000	145.000000	53.000000	-19.000000	-14.000000
0.200000	51.510000	81.900000	647.000000	0.000000	145.000000	53.000000	-32.000000	-49.000000
0.210000	50.990000	81.200000	639.000000	0.000000	145.000000	53.000000	-52.000000	-70.000000
0.220000	50.460000	80.330000	641.000000	0.000000	143.000000	53.000000	-53.000000	-87.000000
0.230000	49.930000	79.410000	634.000000	0.000000	143.000000	53.000000	-53.000000	-92.000000
0.240000	49.720000	78.750000	636.000000	0.000000	143.000000	53.000000	-21.000000	-66.000000
0.250000	49.910000	78.290000	631.000000	0.000000	143.000000	53.000000	19.000000	-46.000000
0.260000	50.360000	78.020000	636.000000	0.000000	144.000000	54.000000	45.000000	-27.000000
0.270000	51.020000	78.020000	630.000000	0.000000	144.000000	54.000000	66.000000	0.000000
0.280000	51.830000	78.120000	583.000000	0.000000	144.000000	54.000000	81.000000	10.000000
0.290000	52.750000	78.320000	363.000000	0.000000	144.000000	54.000000	92.000000	20.000000
0.300000	52.750000	78.320000	0.000000	1.000000	142.000000	54.000000	0.000000	0.000000
0.310000	53.620000	78.750000	0.000000	0.000000	142.000000	54.000000	87.000000	43.000000
0.320000	53.680000	78.970000	0.000000	0.000000	142.000000	54.000000	6.000000	22.000000
0.330000	53.370000	79.170000	0.000000	0.000000	143.000000	53.000000	-31.000000	20.000000
0.340000	53.020000	79.370000	0.000000	0.000000	142.000000	54.000000	-35.000000	20.000000
0.350000	52.640000	79.660000	0.000000	0.000000	142.000000	54.000000	-38.000000	29.000000
0.360000	52.400000	79.900000	0.000000	0.000000	141.000000	53.000000	-24.000000	24.000000
0.370000	52.210000	80.120000	0.000000	0.000000	140.000000	54.000000	-19.000000	22.000000
0.380000	52.120000	80.340000	0.000000	0.000000	140.000000	54.000000	-9.000000	22.000000
0.390000	52.120000	80.500000	0.000000	0.000000	137.000000	54.000000	0.000000	16.000000
0.400000	52.120000	80.650000	0.000000	0.000000	137.000000	54.000000	0.000000	15.000000
0.410000	52.120000	80.820000	0.000000	0.000000	136.000000	55.000000	0.000000	17.000000
0.420000	52.180000	81.010000	0.000000	0.000000	136.000000	55.000000	6.000000	19.000000
0.430000	52.180000	81.220000	0.000000	0.000000	136.000000	55.000000	0.000000	21.000000
0.440000	52.050000	81.410000	0.000000	0.000000	137.000000	54.000000	-13.000000	19.000000
0.450000	51.920000	81.550000	0.000000	0.000000	137.000000	54.000000	-13.000000	14.000000
0.460000	51.760000	81.620000	0.000000	0.000000	139.000000	54.000000	-16.000000	7.000000
0.470000	51.580000	81.620000	0.000000	0.000000	140.000000	54.000000	-18.000000	0.000000
0.480000	51.380000	81.620000	0.000000	0.000000	140.000000	54.000000	-20.000000	0.000000
0.490000	51.200000	81.540000	0.000000	0.000000	141.000000	53.000000	-18.000000	-8.000000
0.500000	51.040000	81.540000	0.000000	0.000000	141.000000	53.000000	-16.000000	0.000000
0.510000	51.040000	81.540000	51.000000	1.000000	141.000000	53.000000	0.000000	0.000000
0.520000	50.740000	81.540000	132.000000	0.000000	142.000000	54.000000	-30.000000	0.000000
0.530000	50.530000	81.660000	240.000000	0.000000	142.000000	54.000000	-21.000000	12.000000
0.540000	50.280000	81.750000	341.000000	0.000000	143.000000	53.000000	-25.000000	9.000000
0.550000	50.280000	81.800000	397.000000	0.000000	145.000000	54.000000	0.000000	5.000000
0.560000	50.370000	81.800000	472.000000	0.000000	145.000000	54.000000	9.000000	0.000000
0.570000	50.780000	81.900000	519.000000	0.000000	145.000000	54.000000	41.000000	10.000000
0.580000	51.400000	82.100000	540.000000	0.000000	145.000000	54.000000	62.000000	20.000000
0.590000	52.570000	82.390000	535.000000	0.000000	145.000000	54.000000	117.000000	29.000000
0.600000	53.890000	82.750000	339.000000	0.000000	145.000000	54.000000	132.000000	36.000000
0.610000	53.890000	82.750000	0.000000	1.000000	146.000000	53.000000	0.000000	0.000000
0.620000	56.350000	83.280000	0.000000	0.000000	146.000000	53.000000	246.000000	53.000000
0.630000	56.910000	83.370000	0.000000	0.000000	147.000000	53.000000	56.000000	9.000000
0.640000	57.140000	83.470000	0.000000	0.000000	147.000000	53.000000	23.000000	10.000000
0.650000	57.190000	83.420000	0.000000	0.000000	148.000000	54.000000	5.000000	-5.000000
0.660000	56.900000	83.280000	0.000000	0.000000	150.000000	54.000000	-29.000000	-14.000000
0.670000	56.380000	83.010000	0.000000	0.000000	152.000000	54.000000	-52.000000	-27.000000
0.680000	55.830000	82.740000	0.000000	0.000000	151.000000	54.000000	-55.000000	-27.000000
0.690000	55.280000	82.490000	0.000000	0.000000	151.000000	54.000000	-55.000000	-25.000000
0.700000	54.750000	82.260000	0.000000	0.000000	151.000000	54.000000	-53.000000	-23.000000
0.710000	54.300000	82.070000	0.000000	0.000000	150.000000	55.000000	-45.000000	-19.000000
0.720000	54.020000	81.900000	0.000000	0.000000	149.000000	55.000000	-28.000000	-17.000000
0.730000	53.860000	81.750000	0.000000	0.000000	147.000000	55.000000	-16.000000	-15.000000
0.740000	53.630000	81.600000	0.000000	0.000000	145.000000	55.000000	-23.000000	-15.000000
0.750000	53.280000	81.460000	0.000000	0.000000	144.000000	54.000000	-35.000000	-14.000000
0.760000	52.850000	81.310000	0.000000	0.000000	142.000000	54.000000	-43.000000	-15.000000
0.770000	52.300000	81.140000	0.000000	0.000000	141.000000	55.000000	-55.000000	-17.000000
0.780000	51.770000	80.940000	0.000000	0.000000	140.000000	54.000000	-53.000000	-20.000000
0.790000	51.300000	80.710000	0.000000	0.000000	140.000000	54.000000	-47.000000	-23.000000
0.800000	50.900000	80.510000	0.000000	0.000000	139.000000	55.000000	-40.000000	-20.000000
0.810000	50.700000	80.350000	0.000000	0.000000	137.000000	54.000000	-20.000000	-16.000000
0.820000	50.620000	80.290000	0.000000	0.000000	137.000000	54.000000	-8.000000	-6.000000
0.830000	50.620000	80.290000	0.000000	0.000000	137.000000	54.000000	0.000000	0.000000
0.840000	50.620000	80.240000	0.000000	0.000000	137.000000	54.000000	0.000000	-5.000000
0.850000	50.670000	80.300000	0.000000	0.000000	137.000000	54.000000	5.000000	6.000000
0.860000	50.740000	80.300000	0.000000	0.000000	137.000000	54.000000	7.000000	0.000000
0.870000	50.740000	80.350000	0.000000	0.000000	137.000000	54.000000	0.000000	5.000000
0.880000	50.800000	80.350000	0.000000	0.000000	137.000000	54.000000	6.000000	0.000000
0.890000	50.880000	80.350000	0.000000	0.000000	137.000000	54.000000	8.000000	0.000000
0.900000	50.970000	80.350000	0.000000	0.000000	139.000000	55.000000	9.000000	0.000000
0.910000	51.090000	80.350000	0.000000	0.000000	139.000000	55.000000	12.000000	0.000000
0.920000	51.210000	80.350000	0.000000	0.000000	139.000000	55.000000	12.000000	0.000000
0.930000	51.310000	80.480000	0.000000	0.000000	139.000000	55.000000	10.000000	13.000000
0.940000	51.310000	80.480000	0.000000	0.000000	139.000000	55.000000	0.000000	0.000000
0.950000	51.250000	80.480000	0.000000	0.000000	139.000000	55.000000	-6.000000	0.000000
0.960000	51.070000	80.410000	0.000000	0.000000	139.000000	55.000000	-18.000000	-7.000000
0.970000	50.870000	80.340000	0.000000	0.000000	140.000000	55.000000	-20.000000	-7.000000
0.980000	50.670000	80.260000	0.000000	0.000000	140.000000	55.000000	-20.000000	-8.000000
0.990000	50.520000	80.180000	0.000000	0.000000	141.000000	55.000000	-15.000000	-8.000000
1.000000	50.400000	80.180000	0.000000	0.000000	141.000000	55.000000	-12.000000	0.000000
1.010000	50.320000	80.120000	0.000000	0.000000	141.000000	55.000000	-8.000000	-6.000000
1.020000	50.250000	80.070000	0.000000	0.000000	141.000000	55.000000	-7.000000	-5.000000
1.030000	50.140000	80.020000	0.000000	0.000000	143.000000	55.000000	-11.000000	-5.000000
1.040000	50.010000	79.930000	0.000000	0.000000	143.000000	55.000000	-13.000000	-9.000000
1.050000	50.010000	79.830000	0.000000	0.000000	143.000000	55.000000	0.000000	-10.000000
1.060000	50.010000	79.830000	0.000000	0.000000	144.000000	56.000000	0.000000	0.000000
1.070000	50.010000	79.890000	0.000000	0.000000	144.000000	56.000000	0.000000	6.000000
1.080000	50.220000	79.940000	0.000000	0.000000	144.000000	56.000000	21.000000	5.000000
1.090000	50.420000	79.940000	0.000000	0.000000	145.000000	56.000000	20.000000	0.000000
1.100000	50.540000	80.000000	0.000000	0.000000	145.000000	56.000000	12.000000	6.000000
1.110000	50.610000	80.000000	0.000000	0.000000	145.000000	56.000000	7.000000	0.000000
1.120000	50.550000	79.950000	0.000000	0.000000	145.000000	56.000000	-6.000000	-5.000000
1.130000	50.550000	80.020000	0.000000	0.000000	145.000000	56.000000	0.000000	7.000000
1.140000	50.550000	80.150000	0.000000	0.000000	145.000000	56.000000	0.000000	13.000000
1.150000	50.550000	80.330000	0.000000	0.000000	145.000000	56.000000	0.000000	18.000000
1.160000	50.710000	80.500000	0.000000	0.000000	144.000000	56.000000	16.000000	17.000000
1.170000	50.940000	80.620000	0.000000	0.000000	144.000000	56.000000	23.000000	12.000000
1.180000	51.150000	80.710000	0.000000	0.000000	144.000000	56.000000	21.000000	9.000000
1.190000	51.340000	80.760000	0.000000	0.000000	143.000000	55.000000	19.000000	5.000000
1.200000	51.390000	80.760000	0.000000	0.000000	143.000000	55.000000	5.000000	0.000000
1.210000	51.390000	80.760000	0.000000	0.000000	143.000000	55.000000	0.000000	0.000000
1.220000	51.310000	80.760000	0.000000	0.000000	141.000000	55.000000	-8.000000	0.000000
1.230000	51.310000	80.760000	0.000000	0.000000	141.000000	55.000000	0.000000	0.000000
1.240000	51.220000	80.760000	0.000000	0.000000	141.000000	55.000000	-9.000000	0.000000
1.250000	51.140000	80.760000	0.000000	0.000000	141.000000	55.000000	-8.000000	0.000000
1.260000	51.070000	80.710000	0.000000	0.000000	141.000000	55.000000	-7.000000	-5.000000
1.270000	51.000000	80.620000	0.000000	0.000000	141.000000	55.000000	-7.000000	-9.000000
1.280000	50.910000	80.540000	0.000000	0.000000	141.000000	55.000000	-9.000000	-8.000000
1.290000	50.800000	80.470000	0.000000	0.000000	141.000000	55.000000	-11.000000	-7.000000
1.300000	50.700000	80.470000	0.000000	0.000000	143.000000	55.000000	-10.000000	0.000000
1.310000	50.590000	80.360000	0.000000	0.000000	143.000000	55.000000	-11.000000	-11.000000
1.320000	50.470000	80.290000	0.000000	0.000000	143.000000	55.000000	-12.000000	-7.000000
1.330000	50.470000	80.290000	70.000000	1.000000	144.000000	56.000000	0.000000	0.000000
1.340000	50.470000	80.290000	214.000000	0.000000	144.000000	56.000000	0.000000	0.000000
1.350000	50.470000	80.290000	344.000000	0.000000	144.000000	56.000000	0.000000	0.000000
1.360000	50.470000	80.290000	470.000000	0.000000	145.000000	55.000000	0.000000	0.000000
1.370000	50.470000	80.290000	568.000000	0.000000	145.000000	55.000000	0.000000	0.000000
1.380000	50.830000	80.040000	627.000000	0.000000	145.000000	55.000000	36.000000	-25.000000
1.390000	51.300000	80.040000	636.000000	0.000000	145.000000	55.000000	47.000000	0.000000
1.400000	51.910000	80.040000	638.000000	0.000000	145.000000	55.000000	61.000000	0.000000
1.410000	52.600000	80.040000	526.000000	0.000000	145.000000	55.000000	69.000000	0.000000
1.420000	53.200000	80.040000	98.000000	0.000000	145.000000	55.000000	60.000000	0.000000
1.430000	53.200000	80.040000	0.000000	1.000000	145.000000	55.000000	0.000000	0.000000
1.440000	53.950000	80.140000	0.000000	0.000000	145.000000	55.000000	75.000000	10.000000
1.450000	53.950000	80.360000	0.000000	0.000000	144.000000	54.000000	0.000000	22.000000
1.460000	54.050000	80.610000	0.000000	0.000000	144.000000	54.000000	10.000000	25.000000
1.470000	54.110000	80.810000	0.000000	0.000000	143.000000	55.000000	6.000000	20.000000
1.480000	54.270000	80.940000	0.000000	0.000000	143.000000	55.000000	16.000000	13.000000
1.490000	54.460000	81.010000	0.000000	0.000000	143.000000	55.000000	19.000000	7.000000
1.500000	54.730000	81.070000	0.000000	0.000000	141.000000	56.000000	27.000000	6.000000
1.510000	55.050000	81.070000	0.000000	0.000000	143.000000	56.000000	32.000000	0.000000
1.520000	55.380000	81.070000	0.000000	0.000000	143.000000	56.000000	33.000000	0.000000
1.530000	55.630000	80.890000	0.000000	0.000000	143.000000	56.000000	25.000000	-18.000000
1.540000	55.830000	80.790000	0.000000	0.000000	144.000000	57.000000	20.000000	-10.000000
1.550000	55.940000	80.720000	0.000000	0.000000	144.000000	57.000000	11.000000	-7.000000
1.560000	55.890000	80.670000	0.000000	0.000000	146.000000	57.000000	-5.000000	-5.000000
1.570000	55.730000	80.670000	0.000000	0.000000	146.000000	57.000000	-16.000000	0.000000
1.580000	55.450000	80.600000	0.000000	0.000000	146.000000	57.000000	-28.000000	-7.000000
1.590000	55.150000	80.600000	0.000000	0.000000	146.000000	57.000000	-30.000000	0.000000
1.600000	54.840000	80.520000	0.000000	0.000000	146.000000	57.000000	-31.000000	-8.000000
1.610000	54.480000	80.450000	0.000000	0.000000	146.000000	57.000000	-36.000000	-7.000000
1.620000	54.130000	80.340000	0.000000	0.000000	144.000000	57.000000	-35.000000	-11.000000
1.630000	53.780000	80.190000	0.000000	0.000000	145.000000	56.000000	-35.000000	-15.000000
1.640000	53.780000	80.190000	0.000000	0.000000	144.000000	56.000000	0.000000	0.000000
1.650000	53.520000	80.080000	0.000000	0.000000	144.000000	56.000000	-26.000000	-11.000000
1.660000	53.520000	80.080000	0.000000	0.000000	144.000000	56.000000	0.000000	0.000000
1.670000	53.520000	80.200000	0.000000	0.000000	143.000000	55.000000	0.000000	12.000000
1.680000	53.680000	80.320000	0.000000	0.000000	143.000000	55.000000	16.000000	12.000000
1.690000	53.950000	80.470000	0.000000	0.000000	143.000000	55.000000	27.000000	15.000000
1.700000	54.340000	80.610000	0.000000	0.000000	143.000000	55.000000	39.000000	14.000000
1.710000	54.740000	80.740000	0.000000	0.000000	143.000000	55.000000	40.000000	13.000000
1.720000	55.150000	80.840000	0.000000	0.000000	143.000000	55.000000	41.000000	10.000000
1.730000	55.540000	80.920000	0.000000	0.000000	144.000000	56.000000	39.000000	8.000000
1.740000	55.850000	80.920000	0.000000	0.000000	144.000000	56.000000	31.000000	0.000000
1.750000	56.130000	80.980000	0.000000	0.000000	144.000000	56.000000	28.000000	6.000000
1.760000	56.320000	80.980000	0.000000	0.000000	145.000000	56.000000	19.000000	0.000000
1.770000	56.500000	81.070000	0.000000	0.000000	145.000000	56.000000	18.000000	9.000000
1.780000	56.660000	81.070000	0.000000	0.000000	145.000000	56.000000	16.000000	0.000000
1.790000	56.750000	81.070000	0.000000	0.000000	145.000000	56.000000	9.000000	0.000000
1.800000	56.750000	81.000000	0.000000	0.000000	145.000000	56.000000	0.000000	-7.000000
1.810000	56.700000	80.930000	0.000000	0.000000	145.000000	56.000000	-5.000000	-7.000000
1.820000	56.530000	80.840000	0.000000	0.000000	145.000000	56.000000	-17.000000	-9.000000
1.830000	56.260000	80.760000	0.000000	0.000000	145.000000	56.000000	-27.000000	-8.000000
1.840000	55.920000	80.660000	0.000000	0.000000	145.000000	56.000000	-34.000000	-10.000000
1.850000	55.610000	80.560000	0.000000	0.000000	145.000000	56.000000	-31.000000	-10.000000
1.860000	55.470000	80.450000	0.000000	0.000000	145.000000	56.000000	-14.000000	-11.000000
1.870000	55.470000	80.450000	0.000000	0.000000	145.000000	56.000000	0.000000	0.000000
1.880000	55.470000	80.450000	0.000000	0.000000	145.000000	56.000000	0.000000	0.000000
1.890000	55.530000	80.530000	0.000000	0.000000	145.000000	56.000000	6.000000	8.000000
1.900000	55.640000	80.610000	0.000000	0.000000	144.000000	56.000000	11.000000	8.000000
1.910000	55.720000	80.660000	0.000000	0.000000	144.000000	56.000000	8.000000	5.000000
1.920000	55.720000	80.660000	0.000000	0.000000	144.000000	56.000000	0.000000	0.000000
1.930000	55.720000	80.660000	0.000000	0.000000	144.000000	56.000000	0.000000	0.000000
1.940000	55.720000	80.660000	0.000000	0.000000	145.000000	56.000000	0.000000	0.000000
1.950000	55.720000	80.660000	0.000000	0.000000	145.000000	56.000000	0.000000	0.000000
1.960000	55.720000	80.660000	0.000000	0.000000	145.000000	56.000000	0.000000	0.000000
1.970000	55.720000	80.660000	0.000000	0.000000	145.000000	56.000000	0.000000	0.000000
1.980000	56.150000	80.640000	0.000000	0.000000	146.000000	55.000000	43.000000	-2.000000
1.990000	56.500000	80.740000	0.000000	0.000000	146.000000	55.000000	35.000000	10.000000
2.000000	56.700000	80.830000	0.000000	0.000000	146.000000	55.000000	20.000000	9.000000
2.010000	56.790000	80.830000	0.000000	0.000000	146.000000	55.000000	9.000000	0.000000
2.020000	56.790000	80.830000	68.000000	1.000000	146.000000	55.000000	0.000000	0.000000
2.030000	56.430000	80.680000	119.000000	0.000000	146.000000	55.000000	-36.000000	-15.000000
2.040000	56.120000	80.600000	167.000000	0.000000	146.000000	55.000000	-31.000000	-8.000000
2.050000	56.120000	80.600000	168.000000	0.000000	146.000000	55.000000	0.000000	0.000000
2.060000	56.120000	80.600000	163.000000	0.000000	146.000000	55.000000	0.000000	0.000000
2.070000	56.210000	80.650000	168.000000	0.000000	146.000000	55.000000	9.000000	5.000000
2.080000	56.380000	80.700000	170.000000	0.000000	146.000000	55.000000	17.000000	5.000000
2.090000	56.600000	80.760000	191.000000	0.000000	146.000000	55.000000	22.000000	6.000000
2.100000	56.670000	80.760000	257.000000	0.000000	146.000000	55.000000	7.000000	0.000000
2.110000	56.670000	80.760000	317.000000	0.000000	146.000000	55.000000	0.000000	0.000000
2.120000	56.670000	80.760000	344.000000	0.000000	146.000000	55.000000	0.000000	0.000000
2.130000	56.670000	80.760000	345.000000	0.000000	146.000000	55.000000	0.000000	0.000000
2.140000	56.670000	80.760000	336.000000	0.000000	146.000000	55.000000	0.000000	0.000000
2.150000	56.670000	80.760000	351.000000	0.000000	146.000000	55.000000	0.000000	0.000000
2.160000	56.670000	80.760000	394.000000	0.000000	146.000000	55.000000	0.000000	0.000000
2.170000	56.670000	80.760000	435.000000	0.000000	146.000000	55.000000	0.000000	0.000000
2.180000	56.740000	80.760000	494.000000	0.000000	146.000000	55.000000	7.000000	0.000000
2.190000	56.740000	80.830000	537.000000	0.000000	146.000000	55.000000	0.000000	7.000000
2.200000	56.680000	80.830000	553.000000	0.000000	146.000000	55.000000	-6.000000	0.000000
2.210000	56.330000	80.830000	556.000000	0.000000	146.000000	55.000000	-35.000000	0.000000
2.220000	55.680000	80.690000	574.000000	0.000000	145.000000	55.000000	-65.000000	-14.000000
2.230000	54.830000	80.420000	581.000000	0.000000	146.000000	54.000000	-85.000000	-27.000000
2.240000	54.010000	80.130000	588.000000	0.000000	146.000000	54.000000	-82.000000	-29.000000
2.250000	53.630000	79.880000	578.000000	0.000000	145.000000	55.000000	-38.000000	-25.000000
