t	x	y	pressure	penup	azimuth	inclination	v_x	v_y
0.000000	91.750000	34.210000	54.000000	1.000000	144.000000	56.000000	0.000000	0.000000
0.010000	91.690000	34.210000	108.000000	0.000000	144.000000	56.000000	-6.000000	0.000000
0.020000	91.690000	34.210000	148.000000	0.000000	144.000000	56.000000	0.000000	0.000000
0.030000	91.690000	34.210000	168.000000	0.000000	143.000000	56.000000	0.000000	0.000000
0.040000	91.690000	34.210000	190.000000	0.000000	143.000000	56.000000	0.000000	0.000000
0.050000	91.690000	34.210000	218.000000	0.000000	143.000000	56.000000	0.000000	0.000000
0.060000	91.690000	34.210000	252.000000	0.000000	143.000000	56.000000	0.000000	0.000000
0.070000	91.690000	34.210000	282.000000	0.000000	143.000000	56.000000	0.000000	0.000000
0.080000	91.690000	34.210000	314.000000	0.000000	143.000000	56.000000	0.000000	0.000000
0.090000	91.690000	34.210000	333.000000	0.000000	143.000000	56.000000	0.000000	0.000000
0.100000	91.690000	34.210000	344.000000	0.000000	143.000000	56.000000	0.000000	0.000000
0.110000	91.690000	34.210000	359.000000	0.000000	143.000000	56.000000	0.000000	0.000000
0.120000	91.740000	34.210000	364.000000	0.000000	143.000000	56.000000	5.000000	0.000000
0.130000	91.820000	34.210000	369.000000	0.000000	143.000000	56.000000	8.000000	0.000000
0.140000	91.920000	34.290000	387.000000	0.000000	143.000000	56.000000	10.000000	8.000000
0.150000	92.050000	34.370000	396.000000	0.000000	143.000000	56.000000	13.000000	8.000000
0.160000	92.220000	34.470000	391.000000	0.000000	143.000000	56.000000	17.000000	10.000000
0.170000	92.390000	34.610000	404.000000	0.000000	143.000000	56.000000	17.000000	14.000000
0.180000	92.560000	34.770000	420.000000	0.000000	143.000000	56.000000	17.000000	16.000000
0.190000	92.720000	34.940000	449.000000	0.000000	143.000000	56.000000	16.000000	17.000000
0.200000	92.850000	35.150000	467.000000	0.000000	143.000000	56.000000	13.000000	21.000000
0.210000	92.960000	35.360000	496.000000	0.000000	143.000000	56.000000	11.000000	21.000000
0.220000	93.030000	35.570000	510.000000	0.000000	141.000000	56.000000	7.000000	21.000000
0.230000	93.110000	35.780000	512.000000	0.000000	141.000000	56.000000	8.000000	21.000000
0.240000	93.110000	35.970000	522.000000	0.000000	141.000000	56.000000	0.000000	19.000000
0.250000	93.110000	36.110000	521.000000	0.000000	141.000000	56.000000	0.000000	14.000000
0.260000	93.110000	36.230000	544.000000	0.000000	141.000000	56.000000	0.000000	12.000000
0.270000	93.040000	36.300000	542.000000	0.000000	143.000000	55.000000	-7.000000	7.000000
0.280000	92.970000	36.360000	542.000000	0.000000	143.000000	55.000000	-7.000000	6.000000
0.290000	92.850000	36.360000	543.000000	0.000000	143.000000	55.000000	-12.000000	0.000000
0.300000	92.700000	36.420000	543.000000	0.000000	144.000000	54.000000	-15.000000	6.000000
0.310000	92.540000	36.420000	546.000000	0.000000	144.000000	54.000000	-16.000000	0.000000
0.320000	92.320000	36.420000	546.000000	0.000000	144.000000	54.000000	-22.000000	0.000000
0.330000	92.070000	36.290000	546.000000	0.000000	145.000000	54.000000	-25.000000	-13.000000
0.340000	91.780000	36.150000	556.000000	0.000000	146.000000	54.000000	-29.000000	-14.000000
0.350000	91.470000	35.990000	553.000000	0.000000	145.000000	55.000000	-31.000000	-16.000000
0.360000	91.140000	35.790000	561.000000	0.000000	145.000000	55.000000	-33.000000	-20.000000
0.370000	90.840000	35.580000	567.000000	0.000000	145.000000	55.000000	-30.000000	-21.000000
0.380000	90.570000	35.370000	570.000000	0.000000	144.000000	56.000000	-27.000000	-21.000000
0.390000	90.360000	35.150000	563.000000	0.000000	144.000000	56.000000	-21.000000	-22.000000
0.400000	90.130000	34.900000	566.000000	0.000000	144.000000	56.000000	-23.000000	-25.000000
0.410000	89.860000	34.540000	572.000000	0.000000	143.000000	56.000000	-27.000000	-36.000000
0.420000	89.570000	34.110000	581.000000	0.000000	143.000000	56.000000	-29.000000	-43.000000
0.430000	89.440000	33.810000	586.000000	0.000000	141.000000	56.000000	-13.000000	-30.000000
0.440000	89.300000	33.500000	589.000000	0.000000	141.000000	56.000000	-14.000000	-31.000000
0.450000	89.150000	33.180000	591.000000	0.000000	140.000000	55.000000	-15.000000	-32.000000
0.460000	89.090000	32.970000	589.000000	0.000000	140.000000	55.000000	-6.000000	-21.000000
0.470000	89.140000	32.830000	589.000000	0.000000	139.000000	55.000000	5.000000	-14.000000
0.480000	89.250000	32.700000	591.000000	0.000000	140.000000	54.000000	11.000000	-13.000000
0.490000	89.450000	32.610000	591.000000	0.000000	140.000000	54.000000	20.000000	-9.000000
0.500000	89.660000	32.550000	595.000000	0.000000	139.000000	54.000000	21.000000	-6.000000
0.510000	90.020000	32.550000	592.000000	0.000000	139.000000	54.000000	36.000000	0.000000
0.520000	90.490000	32.610000	591.000000	0.000000	139.000000	54.000000	47.000000	6.000000
0.530000	91.020000	32.610000	591.000000	0.000000	140.000000	53.000000	53.000000	0.000000
0.540000	91.560000	32.530000	581.000000	0.000000	140.000000	53.000000	54.000000	-8.000000
0.550000	92.140000	32.400000	572.000000	0.000000	141.000000	53.000000	58.000000	-13.000000
0.560000	92.600000	32.080000	563.000000	0.000000	141.000000	53.000000	46.000000	-32.000000
0.570000	92.980000	31.640000	561.000000	0.000000	141.000000	53.000000	38.000000	-44.000000
0.580000	93.100000	31.130000	564.000000	0.000000	141.000000	53.000000	12.000000	-51.000000
0.590000	93.040000	30.510000	566.000000	0.000000	141.000000	53.000000	-6.000000	-62.000000
0.600000	92.850000	29.820000	563.000000	0.000000	141.000000	53.000000	-19.000000	-69.000000
0.610000	92.430000	29.100000	561.000000	0.000000	141.000000	53.000000	-42.000000	-72.000000
0.620000	91.870000	28.360000	563.000000	0.000000	140.000000	54.000000	-56.000000	-74.000000
0.630000	91.210000	27.600000	561.000000	0.000000	140.000000	54.000000	-66.000000	-76.000000
0.640000	90.520000	26.820000	581.000000	0.000000	139.000000	55.000000	-69.000000	-78.000000
0.650000	89.860000	26.320000	595.000000	0.000000	138.000000	55.000000	-66.000000	-50.000000
0.660000	89.370000	26.020000	592.000000	0.000000	136.000000	56.000000	-49.000000	-30.000000
0.670000	88.980000	25.800000	597.000000	0.000000	136.000000	57.000000	-39.000000	-22.000000
0.680000	88.680000	25.720000	610.000000	0.000000	135.000000	58.000000	-30.000000	-8.000000
0.690000	88.510000	25.720000	614.000000	0.000000	134.000000	58.000000	-17.000000	0.000000
0.700000	88.430000	25.830000	613.000000	0.000000	132.000000	59.000000	-8.000000	11.000000
0.710000	88.330000	26.030000	620.000000	0.000000	132.000000	59.000000	-10.000000	20.000000
0.720000	88.330000	26.300000	606.000000	0.000000	132.000000	59.000000	0.000000	27.000000
0.730000	88.490000	26.580000	605.000000	0.000000	131.000000	58.000000	16.000000	28.000000
0.740000	88.730000	26.830000	605.000000	0.000000	131.000000	58.000000	24.000000	25.000000
0.750000	88.990000	27.010000	606.000000	0.000000	131.000000	58.000000	26.000000	18.000000
0.760000	89.280000	27.220000	611.000000	0.000000	131.000000	58.000000	29.000000	21.000000
0.770000	89.620000	27.460000	620.000000	0.000000	132.000000	58.000000	34.000000	24.000000
0.780000	90.030000	27.730000	613.000000	0.000000	132.000000	58.000000	41.000000	27.000000
0.790000	90.480000	28.000000	616.000000	0.000000	134.000000	57.000000	45.000000	27.000000
0.800000	90.990000	28.290000	619.000000	0.000000	135.000000	57.000000	51.000000	29.000000
0.810000	91.520000	28.600000	627.000000	0.000000	136.000000	57.000000	53.000000	31.000000
0.820000	92.060000	28.870000	627.000000	0.000000	138.000000	57.000000	54.000000	27.000000
0.830000	92.630000	29.150000	628.000000	0.000000	138.000000	57.000000	57.000000	28.000000
0.840000	93.180000	29.420000	634.000000	0.000000	139.000000	56.000000	55.000000	27.000000
0.850000	93.630000	29.630000	641.000000	0.000000	139.000000	56.000000	45.000000	21.000000
0.860000	94.020000	29.810000	650.000000	0.000000	139.000000	56.000000	39.000000	18.000000
0.870000	94.300000	29.960000	673.000000	0.000000	140.000000	55.000000	28.000000	15.000000
0.880000	94.580000	30.110000	690.000000	0.000000	140.000000	55.000000	28.000000	15.000000
0.890000	94.850000	30.250000	696.000000	0.000000	139.000000	55.000000	27.000000	14.000000
0.900000	94.990000	30.370000	702.000000	0.000000	140.000000	54.000000	14.000000	12.000000
0.910000	95.080000	30.440000	710.000000	0.000000	140.000000	54.000000	9.000000	7.000000
0.920000	95.140000	30.530000	719.000000	0.000000	139.000000	54.000000	6.000000	9.000000
0.930000	95.450000	30.670000	727.000000	0.000000	139.000000	54.000000	31.000000	14.000000
0.940000	95.700000	30.830000	727.000000	0.000000	139.000000	54.000000	25.000000	16.000000
0.950000	95.900000	30.940000	728.000000	0.000000	139.000000	54.000000	20.000000	11.000000
0.960000	96.100000	31.100000	733.000000	0.000000	139.000000	54.000000	20.000000	16.000000
0.970000	96.300000	31.260000	733.000000	0.000000	139.000000	54.000000	20.000000	16.000000
0.980000	96.420000	31.410000	720.000000	0.000000	139.000000	54.000000	12.000000	15.000000
0.990000	96.480000	31.500000	721.000000	0.000000	139.000000	54.000000	6.000000	9.000000
1.000000	96.670000	31.670000	727.000000	0.000000	139.000000	54.000000	19.000000	17.000000
1.010000	96.830000	31.900000	728.000000	0.000000	140.000000	53.000000	16.000000	23.000000
1.020000	96.980000	32.020000	731.000000	0.000000	141.000000	53.000000	15.000000	12.000000
1.030000	97.080000	32.160000	731.000000	0.000000	141.000000	53.000000	10.000000	14.000000
1.040000	97.190000	32.360000	731.000000	0.000000	141.000000	53.000000	11.000000	20.000000
1.050000	97.290000	32.600000	736.000000	0.000000	141.000000	53.000000	10.000000	24.000000
1.060000	97.340000	32.710000	736.000000	0.000000	141.000000	53.000000	5.000000	11.000000
1.070000	97.340000	32.790000	736.000000	0.000000	141.000000	55.000000	0.000000	8.000000
1.080000	97.340000	32.920000	734.000000	0.000000	141.000000	55.000000	0.000000	13.000000
1.090000	97.340000	33.080000	734.000000	0.000000	141.000000	55.000000	0.000000	16.000000
1.100000	97.340000	33.160000	734.000000	0.000000	143.000000	55.000000	0.000000	8.000000
1.110000	97.260000	33.250000	734.000000	0.000000	143.000000	55.000000	-8.000000	9.000000
1.120000	97.210000	33.340000	733.000000	0.000000	143.000000	55.000000	-5.000000	9.000000
1.130000	97.150000	33.440000	733.000000	0.000000	143.000000	55.000000	-6.000000	10.000000
1.140000	97.100000	33.520000	731.000000	0.000000	143.000000	55.000000	-5.000000	8.000000
1.150000	97.010000	33.520000	721.000000	0.000000	143.000000	55.000000	-9.000000	0.000000
1.160000	96.890000	33.580000	722.000000	0.000000	143.000000	55.000000	-12.000000	6.000000
1.170000	96.640000	33.580000	716.000000	0.000000	143.000000	55.000000	-25.000000	0.000000
1.180000	96.340000	33.480000	708.000000	0.000000	143.000000	55.000000	-30.000000	-10.000000
1.190000	96.010000	33.340000	708.000000	0.000000	143.000000	55.000000	-33.000000	-14.000000
1.200000	95.690000	33.110000	707.000000	0.000000	143.000000	55.000000	-32.000000	-23.000000
1.210000	95.390000	32.830000	708.000000	0.000000	143.000000	55.000000	-30.000000	-28.000000
1.220000	95.120000	32.500000	711.000000	0.000000	141.000000	55.000000	-27.000000	-33.000000
1.230000	94.840000	32.150000	714.000000	0.000000	141.000000	55.000000	-28.000000	-35.000000
1.240000	94.610000	31.770000	719.000000	0.000000	141.000000	55.000000	-23.000000	-38.000000
1.250000	94.400000	31.360000	724.000000	0.000000	140.000000	54.000000	-21.000000	-41.000000
1.260000	94.200000	30.900000	727.000000	0.000000	140.000000	54.000000	-20.000000	-46.000000
1.270000	93.990000	30.460000	727.000000	0.000000	140.000000	54.000000	-21.000000	-44.000000
1.280000	93.870000	30.050000	728.000000	0.000000	139.000000	54.000000	-12.000000	-41.000000
1.290000	93.760000	29.610000	730.000000	0.000000	139.000000	54.000000	-11.000000	-44.000000
1.300000	93.680000	29.180000	730.000000	0.000000	137.000000	54.000000	-8.000000	-43.000000
1.310000	93.680000	28.780000	728.000000	0.000000	137.000000	54.000000	0.000000	-40.000000
1.320000	93.680000	28.410000	728.000000	0.000000	137.000000	54.000000	0.000000	-37.000000
1.330000	93.680000	28.100000	728.000000	0.000000	136.000000	55.000000	0.000000	-31.000000
1.340000	93.730000	27.780000	728.000000	0.000000	136.000000	55.000000	5.000000	-32.000000
1.350000	93.850000	27.550000	730.000000	0.000000	136.000000	55.000000	12.000000	-23.000000
1.360000	94.020000	27.380000	730.000000	0.000000	135.000000	55.000000	17.000000	-17.000000
1.370000	94.230000	27.290000	731.000000	0.000000	135.000000	55.000000	21.000000	-9.000000
1.380000	94.440000	27.290000	733.000000	0.000000	134.000000	56.000000	21.000000	0.000000
1.390000	94.770000	27.460000	721.000000	0.000000	134.000000	56.000000	33.000000	17.000000
1.400000	95.180000	27.770000	722.000000	0.000000	134.000000	56.000000	41.000000	31.000000
1.410000	95.620000	28.270000	728.000000	0.000000	134.000000	56.000000	44.000000	50.000000
1.420000	96.060000	28.890000	730.000000	0.000000	134.000000	56.000000	44.000000	62.000000
1.430000	96.450000	29.520000	742.000000	0.000000	134.000000	56.000000	39.000000	63.000000
1.440000	96.810000	30.120000	746.000000	0.000000	135.000000	55.000000	36.000000	60.000000
1.450000	97.070000	30.510000	753.000000	0.000000	135.000000	55.000000	26.000000	39.000000
1.460000	97.190000	30.770000	790.000000	0.000000	136.000000	55.000000	12.000000	26.000000
1.470000	97.190000	30.770000	803.000000	0.000000	136.000000	55.000000	0.000000	0.000000
1.480000	97.190000	30.770000	815.000000	0.000000	136.000000	55.000000	0.000000	0.000000
1.490000	97.190000	30.770000	821.000000	0.000000	137.000000	54.000000	0.000000	0.000000
1.500000	97.190000	30.590000	827.000000	0.000000	139.000000	55.000000	0.000000	-18.000000
1.510000	97.080000	30.320000	818.000000	0.000000	139.000000	55.000000	-11.000000	-27.000000
1.520000	97.080000	30.000000	825.000000	0.000000	139.000000	55.000000	0.000000	-32.000000
1.530000	97.080000	29.670000	827.000000	0.000000	139.000000	55.000000	0.000000	-33.000000
1.540000	97.140000	29.330000	827.000000	0.000000	139.000000	55.000000	6.000000	-34.000000
1.550000	97.210000	29.120000	828.000000	0.000000	139.000000	55.000000	7.000000	-21.000000
1.560000	97.320000	29.000000	834.000000	0.000000	138.000000	55.000000	11.000000	-12.000000
1.570000	97.460000	29.000000	846.000000	0.000000	138.000000	55.000000	14.000000	0.000000
1.580000	97.600000	29.050000	858.000000	0.000000	138.000000	55.000000	14.000000	5.000000
1.590000	97.770000	29.180000	873.000000	0.000000	138.000000	55.000000	17.000000	13.000000
1.600000	98.000000	29.510000	885.000000	0.000000	138.000000	55.000000	23.000000	33.000000
1.610000	98.360000	29.950000	890.000000	0.000000	138.000000	55.000000	36.000000	44.000000
1.620000	98.630000	30.460000	896.000000	0.000000	139.000000	56.000000	27.000000	51.000000
1.630000	98.830000	30.680000	905.000000	0.000000	139.000000	56.000000	20.000000	22.000000
1.640000	98.830000	30.740000	896.000000	0.000000	139.000000	56.000000	0.000000	6.000000
1.650000	98.830000	30.690000	902.000000	0.000000	140.000000	56.000000	0.000000	-5.000000
1.660000	98.830000	30.690000	902.000000	0.000000	140.000000	56.000000	0.000000	0.000000
1.670000	98.830000	30.640000	903.000000	0.000000	143.000000	56.000000	0.000000	-5.000000
1.680000	98.830000	30.520000	905.000000	0.000000	143.000000	56.000000	0.000000	-12.000000
1.690000	98.780000	30.310000	912.000000	0.000000	143.000000	56.000000	-5.000000	-21.000000
1.700000	98.780000	29.990000	908.000000	0.000000	143.000000	56.000000	0.000000	-32.000000
1.710000	98.870000	29.710000	908.000000	0.000000	143.000000	56.000000	9.000000	-28.000000
1.720000	98.950000	29.460000	905.000000	0.000000	143.000000	56.000000	8.000000	-25.000000
1.730000	99.080000	29.270000	903.000000	0.000000	142.000000	57.000000	13.000000	-19.000000
1.740000	99.260000	29.220000	906.000000	0.000000	142.000000	57.000000	18.000000	-5.000000
1.750000	99.510000	29.220000	914.000000	0.000000	142.000000	57.000000	25.000000	0.000000
1.760000	99.760000	29.460000	932.000000	0.000000	142.000000	57.000000	25.000000	24.000000
1.770000	100.010000	29.650000	958.000000	0.000000	142.000000	57.000000	25.000000	19.000000
1.780000	100.090000	29.840000	1023.000000	0.000000	143.000000	57.000000	8.000000	19.000000
1.790000	100.090000	29.840000	1023.000000	0.000000	143.000000	57.000000	0.000000	0.000000
1.800000	100.090000	29.840000	1023.000000	0.000000	143.000000	57.000000	0.000000	0.000000
1.810000	100.090000	29.840000	1023.000000	0.000000	144.000000	58.000000	0.000000	0.000000
1.820000	100.090000	29.840000	1023.000000	0.000000	144.000000	58.000000	0.000000	0.000000
1.830000	100.090000	29.840000	1023.000000	0.000000	146.000000	57.000000	0.000000	0.000000
1.840000	100.090000	29.840000	1023.000000	0.000000	146.000000	57.000000	0.000000	0.000000
1.850000	100.150000	29.780000	1023.000000	0.000000	147.000000	58.000000	6.000000	-6.000000
1.860000	100.150000	29.780000	1023.000000	0.000000	147.000000	58.000000	0.000000	0.000000
1.870000	100.200000	29.780000	1023.000000	0.000000	146.000000	58.000000	5.000000	0.000000
1.880000	100.200000	29.780000	1023.000000	0.000000	146.000000	58.000000	0.000000	0.000000
1.890000	100.200000	29.780000	1023.000000	0.000000	146.000000	58.000000	0.000000	0.000000
1.900000	100.250000	29.780000	1023.000000	0.000000	146.000000	58.000000	5.000000	0.000000
1.910000	100.250000	29.780000	1023.000000	0.000000	146.000000	58.000000	0.000000	0.000000
1.920000	100.250000	29.780000	1023.000000	0.000000	145.000000	59.000000	0.000000	0.000000
1.930000	100.250000	29.780000	1023.000000	0.000000	145.000000	59.000000	0.000000	0.000000
1.940000	100.250000	29.780000	1023.000000	0.000000	145.000000	59.000000	0.000000	0.000000
1.950000	100.250000	29.780000	1023.000000	0.000000	145.000000	59.000000	0.000000	0.000000
1.960000	100.250000	29.780000	1023.000000	0.000000	143.000000	59.000000	0.000000	0.000000
1.970000	100.250000	29.780000	965.000000	0.000000	143.000000	59.000000	0.000000	0.000000
1.980000	100.250000	29.780000	763.000000	0.000000	143.000000	59.000000	0.000000	0.000000
1.990000	100.250000	29.780000	440.000000	0.000000	143.000000	59.000000	0.000000	0.000000
2.000000	100.250000	29.780000	0.000000	1.000000	143.000000	59.000000	0.000000	0.000000
2.010000	100.100000	29.700000	0.000000	0.000000	142.000000	58.000000	-15.000000	-8.000000
2.020000	100.020000	29.750000	0.000000	0.000000	142.000000	58.000000	-8.000000	5.000000
2.030000	99.940000	30.080000	0.000000	0.000000	142.000000	58.000000	-8.000000	33.000000
2.040000	100.040000	30.600000	0.000000	0.000000	142.000000	58.000000	10.000000	52.000000
2.050000	100.150000	31.240000	0.000000	0.000000	142.000000	58.000000	11.000000	64.000000
2.060000	100.300000	31.770000	0.000000	0.000000	142.000000	58.000000	15.000000	53.000000
2.070000	100.400000	32.250000	0.000000	0.000000	142.000000	58.000000	10.000000	48.000000
2.080000	100.460000	32.600000	0.000000	0.000000	140.000000	58.000000	6.000000	35.000000
2.090000	100.460000	32.890000	0.000000	0.000000	142.000000	57.000000	0.000000	29.000000
2.100000	100.400000	33.110000	0.000000	0.000000	140.000000	56.000000	-6.000000	22.000000
2.110000	100.290000	33.330000	0.000000	0.000000	140.000000	56.000000	-11.000000	22.000000
2.120000	100.210000	33.560000	0.000000	0.000000	140.000000	56.000000	-8.000000	23.000000
2.130000	100.210000	33.870000	0.000000	0.000000	139.000000	56.000000	0.000000	31.000000
2.140000	100.210000	34.210000	0.000000	0.000000	139.000000	56.000000	0.000000	34.000000
2.150000	100.210000	34.520000	0.000000	0.000000	139.000000	56.000000	0.000000	31.000000
2.160000	100.370000	34.810000	0.000000	0.000000	139.000000	56.000000	16.000000	29.000000
2.170000	100.510000	35.060000	0.000000	0.000000	139.000000	56.000000	14.000000	25.000000
2.180000	100.650000	35.270000	0.000000	0.000000	138.000000	57.000000	14.000000	21.000000
2.190000	100.650000	35.270000	179.000000	1.000000	139.000000	57.000000	0.000000	0.000000
2.200000	100.790000	35.600000	361.000000	0.000000	139.000000	57.000000	14.000000	33.000000
