t	x	y	pressure	penup	azimuth	inclination	v_x	v_y
0.000000	57.360000	20.150000	58.000000	1.000000	170.000000	48.000000	0.000000	0.000000
0.010000	57.360000	20.150000	68.000000	0.000000	170.000000	48.000000	0.000000	0.000000
0.020000	57.360000	20.150000	65.000000	0.000000	170.000000	48.000000	0.000000	0.000000
0.030000	56.920000	20.360000	85.000000	0.000000	171.000000	48.000000	-44.000000	21.000000
0.040000	56.480000	20.280000	85.000000	0.000000	171.000000	48.000000	-44.000000	-8.000000
0.050000	55.880000	20.150000	93.000000	0.000000	171.000000	48.000000	-60.000000	-13.000000
0.060000	55.210000	19.960000	99.000000	0.000000	171.000000	48.000000	-67.000000	-19.000000
0.070000	54.490000	19.720000	100.000000	0.000000	171.000000	48.000000	-72.000000	-24.000000
0.080000	53.740000	19.430000	108.000000	0.000000	171.000000	49.000000	-75.000000	-29.000000
0.090000	53.230000	19.120000	112.000000	0.000000	171.000000	49.000000	-51.000000	-31.000000
0.100000	52.870000	18.800000	108.000000	0.000000	171.000000	49.000000	-36.000000	-32.000000
0.110000	52.780000	18.530000	124.000000	0.000000	170.000000	49.000000	-9.000000	-27.000000
0.120000	52.970000	18.280000	134.000000	0.000000	169.000000	50.000000	19.000000	-25.000000
0.130000	53.340000	18.090000	131.000000	0.000000	169.000000	50.000000	37.000000	-19.000000
0.140000	54.020000	18.020000	139.000000	0.000000	168.000000	49.000000	68.000000	-7.000000
0.150000	54.810000	18.020000	148.000000	0.000000	168.000000	49.000000	79.000000	0.000000
0.160000	55.670000	18.020000	158.000000	0.000000	169.000000	50.000000	86.000000	0.000000
0.170000	56.380000	17.880000	158.000000	0.000000	169.000000	50.000000	71.000000	-14.000000
0.180000	56.910000	17.660000	163.000000	0.000000	169.000000	50.000000	53.000000	-22.000000
0.190000	57.310000	17.410000	163.000000	0.000000	170.000000	51.000000	40.000000	-25.000000
0.200000	57.430000	17.100000	173.000000	0.000000	170.000000	51.000000	12.000000	-31.000000
0.210000	57.360000	16.810000	182.000000	0.000000	171.000000	51.000000	-7.000000	-29.000000
0.220000	57.170000	16.560000	202.000000	0.000000	172.000000	50.000000	-19.000000	-25.000000
0.230000	56.760000	16.270000	222.000000	0.000000	172.000000	50.000000	-41.000000	-29.000000
0.240000	56.070000	15.940000	216.000000	0.000000	172.000000	50.000000	-69.000000	-33.000000
0.250000	55.180000	15.690000	237.000000	0.000000	170.000000	50.000000	-89.000000	-25.000000
0.260000	54.280000	15.490000	247.000000	0.000000	170.000000	50.000000	-90.000000	-20.000000
0.270000	53.420000	15.350000	247.000000	0.000000	169.000000	50.000000	-86.000000	-14.000000
0.280000	52.660000	15.350000	265.000000	0.000000	169.000000	50.000000	-76.000000	0.000000
0.290000	52.000000	15.350000	265.000000	0.000000	169.000000	50.000000	-66.000000	0.000000
0.300000	51.640000	15.410000	260.000000	0.000000	168.000000	50.000000	-36.000000	6.000000
0.310000	51.470000	15.550000	215.000000	0.000000	168.000000	50.000000	-17.000000	14.000000
0.320000	51.580000	15.730000	137.000000	0.000000	168.000000	50.000000	11.000000	18.000000
0.330000	52.000000	15.950000	60.000000	0.000000	167.000000	50.000000	42.000000	22.000000
0.340000	52.000000	15.950000	0.000000	1.000000	167.000000	50.000000	0.000000	0.000000
0.350000	53.330000	16.360000	0.000000	0.000000	167.000000	50.000000	133.000000	41.000000
0.360000	53.910000	16.550000	0.000000	0.000000	167.000000	50.000000	58.000000	19.000000
0.370000	54.400000	16.720000	0.000000	0.000000	167.000000	49.000000	49.000000	17.000000
0.380000	54.780000	16.850000	0.000000	0.000000	169.000000	48.000000	38.000000	13.000000
0.390000	55.100000	16.940000	0.000000	0.000000	169.000000	48.000000	32.000000	9.000000
0.400000	55.370000	16.940000	0.000000	0.000000	169.000000	47.000000	27.000000	0.000000
0.410000	55.550000	16.940000	0.000000	0.000000	169.000000	46.000000	18.000000	0.000000
0.420000	55.690000	16.880000	0.000000	0.000000	169.000000	46.000000	14.000000	-6.000000
0.430000	55.810000	16.820000	0.000000	0.000000	169.000000	46.000000	12.000000	-6.000000
0.440000	55.810000	16.820000	0.000000	0.000000	171.000000	46.000000	0.000000	0.000000
0.450000	55.860000	16.750000	0.000000	0.000000	171.000000	46.000000	5.000000	-7.000000
0.460000	55.860000	16.750000	0.000000	0.000000	171.000000	46.000000	0.000000	0.000000
0.470000	55.860000	16.750000	0.000000	0.000000	171.000000	46.000000	0.000000	0.000000
0.480000	55.910000	16.750000	0.000000	0.000000	171.000000	46.000000	5.000000	0.000000
0.490000	55.970000	16.750000	0.000000	0.000000	171.000000	46.000000	6.000000	0.000000
0.500000	56.040000	16.810000	0.000000	0.000000	171.000000	46.000000	7.000000	6.000000
0.510000	56.040000	16.810000	0.000000	0.000000	171.000000	46.000000	0.000000	0.000000
0.520000	56.100000	16.810000	0.000000	0.000000	171.000000	46.000000	6.000000	0.000000
0.530000	56.100000	16.810000	0.000000	0.000000	171.000000	46.000000	0.000000	0.000000
0.540000	56.150000	16.860000	0.000000	0.000000	171.000000	46.000000	5.000000	5.000000
0.550000	56.270000	16.860000	0.000000	0.000000	171.000000	46.000000	12.000000	0.000000
0.560000	56.460000	16.860000	0.000000	0.000000	172.000000	46.000000	19.000000	0.000000
0.570000	56.720000	16.860000	0.000000	0.000000	172.000000	46.000000	26.000000	0.000000
0.580000	57.040000	16.860000	0.000000	0.000000	172.000000	46.000000	32.000000	0.000000
0.590000	57.400000	16.860000	0.000000	0.000000	172.000000	46.000000	36.000000	0.000000
0.600000	57.720000	16.810000	0.000000	0.000000	173.000000	46.000000	32.000000	-5.000000
0.610000	57.940000	16.810000	0.000000	0.000000	173.000000	46.000000	22.000000	0.000000
0.620000	58.100000	16.810000	0.000000	0.000000	173.000000	46.000000	16.000000	0.000000
0.630000	58.100000	16.810000	0.000000	0.000000	173.000000	46.000000	0.000000	0.000000
0.640000	58.030000	16.810000	0.000000	0.000000	173.000000	46.000000	-7.000000	0.000000
0.650000	57.900000	16.810000	0.000000	0.000000	173.000000	46.000000	-13.000000	0.000000
0.660000	57.740000	16.870000	0.000000	0.000000	173.000000	46.000000	-16.000000	6.000000
0.670000	57.580000	16.870000	0.000000	0.000000	173.000000	46.000000	-16.000000	0.000000
0.680000	57.420000	16.870000	0.000000	0.000000	173.000000	46.000000	-16.000000	0.000000
0.690000	57.230000	16.940000	0.000000	0.000000	173.000000	46.000000	-19.000000	7.000000
0.700000	57.020000	16.940000	0.000000	0.000000	173.000000	46.000000	-21.000000	0.000000
0.710000	56.780000	16.940000	0.000000	0.000000	173.000000	46.000000	-24.000000	0.000000
0.720000	56.670000	16.940000	0.000000	0.000000	173.000000	46.000000	-11.000000	0.000000
0.730000	56.590000	16.940000	0.000000	0.000000	172.000000	46.000000	-8.000000	0.000000
0.740000	56.590000	16.940000	0.000000	0.000000	172.000000	46.000000	0.000000	0.000000
0.750000	56.590000	16.880000	0.000000	0.000000	172.000000	46.000000	0.000000	-6.000000
0.760000	56.470000	16.830000	0.000000	0.000000	171.000000	46.000000	-12.000000	-5.000000
0.770000	56.280000	16.750000	0.000000	0.000000	171.000000	46.000000	-19.000000	-8.000000
0.780000	56.280000	16.750000	0.000000	0.000000	171.000000	46.000000	0.000000	0.000000
0.790000	55.820000	16.590000	0.000000	0.000000	171.000000	46.000000	-46.000000	-16.000000
0.800000	55.580000	16.500000	0.000000	0.000000	171.000000	46.000000	-24.000000	-9.000000
0.810000	55.390000	16.410000	0.000000	0.000000	171.000000	46.000000	-19.000000	-9.000000
0.820000	55.230000	16.350000	0.000000	0.000000	171.000000	46.000000	-16.000000	-6.000000
0.830000	55.110000	16.280000	0.000000	0.000000	171.000000	46.000000	-12.000000	-7.000000
0.840000	54.980000	16.190000	0.000000	0.000000	171.000000	45.000000	-13.000000	-9.000000
0.850000	54.760000	16.090000	0.000000	0.000000	171.000000	46.000000	-22.000000	-10.000000
0.860000	54.480000	16.020000	0.000000	0.000000	171.000000	46.000000	-28.000000	-7.000000
0.870000	54.100000	15.970000	0.000000	0.000000	170.000000	46.000000	-38.000000	-5.000000
0.880000	53.710000	15.970000	0.000000	0.000000	170.000000	46.000000	-39.000000	0.000000
0.890000	53.310000	15.970000	0.000000	0.000000	170.000000	46.000000	-40.000000	0.000000
0.900000	53.050000	16.050000	0.000000	0.000000	170.000000	46.000000	-26.000000	8.000000
0.910000	52.830000	16.100000	0.000000	0.000000	170.000000	46.000000	-22.000000	5.000000
0.920000	52.640000	16.100000	0.000000	0.000000	170.000000	46.000000	-19.000000	0.000000
0.930000	52.450000	16.100000	0.000000	0.000000	170.000000	46.000000	-19.000000	0.000000
0.940000	52.290000	16.100000	0.000000	0.000000	170.000000	46.000000	-16.000000	0.000000
0.950000	52.160000	16.010000	0.000000	0.000000	170.000000	46.000000	-13.000000	-9.000000
0.960000	52.070000	15.960000	0.000000	0.000000	170.000000	46.000000	-9.000000	-5.000000
0.970000	52.020000	15.960000	0.000000	0.000000	169.000000	46.000000	-5.000000	0.000000
0.980000	52.020000	15.960000	0.000000	0.000000	169.000000	46.000000	0.000000	0.000000
0.990000	52.020000	15.960000	0.000000	0.000000	169.000000	46.000000	0.000000	0.000000
1.000000	52.020000	15.960000	0.000000	0.000000	169.000000	47.000000	0.000000	0.000000
1.010000	52.020000	15.960000	22.000000	1.000000	169.000000	47.000000	0.000000	0.000000
1.020000	52.400000	16.140000	68.000000	0.000000	169.000000	47.000000	38.000000	18.000000
1.030000	52.710000	16.210000	90.000000	0.000000	169.000000	48.000000	31.000000	7.000000
1.040000	53.090000	16.280000	113.000000	0.000000	169.000000	48.000000	38.000000	7.000000
1.050000	53.590000	16.390000	149.000000	0.000000	169.000000	48.000000	50.000000	11.000000
1.060000	54.160000	16.520000	149.000000	0.000000	169.000000	48.000000	57.000000	13.000000
1.070000	54.770000	16.680000	153.000000	0.000000	169.000000	48.000000	61.000000	16.000000
1.080000	55.420000	16.820000	156.000000	0.000000	170.000000	49.000000	65.000000	14.000000
1.090000	56.160000	17.040000	173.000000	0.000000	170.000000	49.000000	74.000000	22.000000
1.100000	56.980000	17.330000	180.000000	0.000000	170.000000	49.000000	82.000000	29.000000
1.110000	57.830000	17.550000	182.000000	0.000000	170.000000	49.000000	85.000000	22.000000
1.120000	58.650000	17.740000	170.000000	0.000000	170.000000	49.000000	82.000000	19.000000
1.130000	59.280000	17.870000	180.000000	0.000000	169.000000	50.000000	63.000000	13.000000
1.140000	59.790000	17.990000	176.000000	0.000000	169.000000	50.000000	51.000000	12.000000
1.150000	60.200000	18.120000	178.000000	0.000000	169.000000	50.000000	41.000000	13.000000
1.160000	60.470000	18.200000	180.000000	0.000000	169.000000	50.000000	27.000000	8.000000
1.170000	60.650000	18.260000	183.000000	0.000000	168.000000	49.000000	18.000000	6.000000
1.180000	60.710000	18.260000	190.000000	0.000000	168.000000	49.000000	6.000000	0.000000
1.190000	60.710000	18.260000	195.000000	0.000000	168.000000	49.000000	0.000000	0.000000
1.200000	60.710000	18.330000	191.000000	0.000000	167.000000	49.000000	0.000000	7.000000
1.210000	60.580000	18.330000	183.000000	0.000000	167.000000	49.000000	-13.000000	0.000000
1.220000	60.460000	18.330000	175.000000	0.000000	168.000000	49.000000	-12.000000	0.000000
1.230000	60.320000	18.330000	175.000000	0.000000	168.000000	49.000000	-14.000000	0.000000
1.240000	60.260000	18.270000	149.000000	0.000000	168.000000	49.000000	-6.000000	-6.000000
1.250000	60.200000	18.270000	80.000000	0.000000	168.000000	49.000000	-6.000000	0.000000
1.260000	60.200000	18.270000	0.000000	1.000000	168.000000	49.000000	0.000000	0.000000
1.270000	60.090000	18.210000	0.000000	0.000000	168.000000	49.000000	-11.000000	-6.000000
1.280000	60.090000	18.210000	0.000000	0.000000	168.000000	49.000000	0.000000	0.000000
1.290000	60.140000	18.290000	0.000000	0.000000	168.000000	49.000000	5.000000	8.000000
1.300000	60.270000	18.370000	0.000000	0.000000	169.000000	50.000000	13.000000	8.000000
1.310000	60.440000	18.460000	0.000000	0.000000	169.000000	50.000000	17.000000	9.000000
1.320000	60.600000	18.560000	0.000000	0.000000	170.000000	50.000000	16.000000	10.000000
1.330000	60.780000	18.640000	0.000000	0.000000	170.000000	50.000000	18.000000	8.000000
1.340000	60.900000	18.720000	0.000000	0.000000	172.000000	50.000000	12.000000	8.000000
1.350000	60.980000	18.770000	0.000000	0.000000	173.000000	50.000000	8.000000	5.000000
1.360000	61.050000	18.820000	0.000000	0.000000	174.000000	50.000000	7.000000	5.000000
1.370000	61.110000	18.870000	0.000000	0.000000	174.000000	50.000000	6.000000	5.000000
1.380000	61.170000	18.940000	0.000000	0.000000	174.000000	50.000000	6.000000	7.000000
1.390000	61.230000	19.020000	0.000000	0.000000	174.000000	50.000000	6.000000	8.000000
1.400000	61.290000	19.090000	0.000000	0.000000	174.000000	50.000000	6.000000	7.000000
1.410000	61.290000	19.150000	0.000000	0.000000	174.000000	50.000000	0.000000	6.000000
1.420000	61.230000	19.150000	0.000000	0.000000	174.000000	49.000000	-6.000000	0.000000
1.430000	61.230000	19.200000	0.000000	0.000000	174.000000	49.000000	0.000000	5.000000
1.440000	61.230000	19.200000	0.000000	0.000000	174.000000	49.000000	0.000000	0.000000
1.450000	61.130000	19.200000	0.000000	0.000000	174.000000	49.000000	-10.000000	0.000000
1.460000	61.040000	19.200000	0.000000	0.000000	173.000000	48.000000	-9.000000	0.000000
1.470000	61.040000	19.200000	0.000000	0.000000	173.000000	48.000000	0.000000	0.000000
1.480000	60.970000	19.200000	0.000000	0.000000	172.000000	48.000000	-7.000000	0.000000
1.490000	60.970000	19.200000	0.000000	0.000000	172.000000	48.000000	0.000000	0.000000
1.500000	60.910000	19.200000	0.000000	0.000000	171.000000	48.000000	-6.000000	0.000000
1.510000	60.910000	19.200000	30.000000	1.000000	170.000000	48.000000	0.000000	0.000000
1.520000	60.910000	19.200000	58.000000	0.000000	170.000000	48.000000	0.000000	0.000000
1.530000	60.910000	19.200000	104.000000	0.000000	170.000000	48.000000	0.000000	0.000000
1.540000	60.910000	19.200000	119.000000	0.000000	169.000000	47.000000	0.000000	0.000000
1.550000	60.910000	19.200000	120.000000	0.000000	169.000000	47.000000	0.000000	0.000000
1.560000	60.540000	19.340000	122.000000	0.000000	169.000000	47.000000	-37.000000	14.000000
1.570000	60.370000	19.340000	125.000000	0.000000	169.000000	47.000000	-17.000000	0.000000
1.580000	60.190000	19.340000	129.000000	0.000000	169.000000	47.000000	-18.000000	0.000000
1.590000	60.020000	19.340000	131.000000	0.000000	169.000000	47.000000	-17.000000	0.000000
1.600000	59.860000	19.340000	149.000000	0.000000	169.000000	47.000000	-16.000000	0.000000
1.610000	59.700000	19.340000	158.000000	0.000000	169.000000	47.000000	-16.000000	0.000000
1.620000	59.500000	19.340000	183.000000	0.000000	168.000000	47.000000	-20.000000	0.000000
1.630000	59.260000	19.260000	210.000000	0.000000	168.000000	47.000000	-24.000000	-8.000000
1.640000	59.030000	19.170000	213.000000	0.000000	168.000000	47.000000	-23.000000	-9.000000
1.650000	58.720000	19.000000	206.000000	0.000000	168.000000	47.000000	-31.000000	-17.000000
1.660000	58.350000	18.780000	211.000000	0.000000	166.000000	48.000000	-37.000000	-22.000000
1.670000	58.110000	18.530000	212.000000	0.000000	167.000000	48.000000	-24.000000	-25.000000
1.680000	57.920000	18.350000	207.000000	0.000000	167.000000	48.000000	-19.000000	-18.000000
1.690000	57.920000	18.210000	222.000000	0.000000	167.000000	48.000000	0.000000	-14.000000
1.700000	58.020000	18.060000	207.000000	0.000000	169.000000	48.000000	10.000000	-15.000000
1.710000	58.260000	18.060000	207.000000	0.000000	168.000000	49.000000	24.000000	0.000000
1.720000	58.680000	18.060000	212.000000	0.000000	168.000000	49.000000	42.000000	0.000000
1.730000	59.220000	18.220000	190.000000	0.000000	169.000000	50.000000	54.000000	16.000000
1.740000	59.700000	18.350000	179.000000	0.000000	169.000000	50.000000	48.000000	13.000000
1.750000	60.190000	18.500000	163.000000	0.000000	169.000000	50.000000	49.000000	15.000000
1.760000	60.500000	18.620000	136.000000	0.000000	169.000000	50.000000	31.000000	12.000000
1.770000	60.690000	18.750000	146.000000	0.000000	168.000000	49.000000	19.000000	13.000000
1.780000	60.780000	18.870000	148.000000	0.000000	168.000000	49.000000	9.000000	12.000000
1.790000	60.780000	18.980000	131.000000	0.000000	167.000000	49.000000	0.000000	11.000000
1.800000	60.720000	19.120000	136.000000	0.000000	167.000000	49.000000	-6.000000	14.000000
1.810000	60.720000	19.250000	158.000000	0.000000	168.000000	49.000000	0.000000	13.000000
1.820000	60.660000	19.400000	168.000000	0.000000	168.000000	49.000000	-6.000000	15.000000
1.830000	60.660000	19.510000	185.000000	0.000000	168.000000	49.000000	0.000000	11.000000
1.840000	60.590000	19.570000	210.000000	0.000000	168.000000	49.000000	-7.000000	6.000000
1.850000	60.590000	19.570000	213.000000	0.000000	169.000000	48.000000	0.000000	0.000000
1.860000	60.590000	19.570000	212.000000	0.000000	169.000000	48.000000	0.000000	0.000000
1.870000	60.540000	19.570000	212.000000	0.000000	169.000000	48.000000	-5.000000	0.000000
1.880000	60.540000	19.450000	213.000000	0.000000	169.000000	48.000000	0.000000	-12.000000
1.890000	60.470000	19.330000	217.000000	0.000000	169.000000	48.000000	-7.000000	-12.000000
1.900000	60.520000	19.190000	220.000000	0.000000	169.000000	48.000000	5.000000	-14.000000
1.910000	60.680000	19.070000	217.000000	0.000000	169.000000	48.000000	16.000000	-12.000000
1.920000	60.910000	18.930000	220.000000	0.000000	169.000000	48.000000	23.000000	-14.000000
1.930000	61.150000	18.850000	217.000000	0.000000	169.000000	48.000000	24.000000	-8.000000
1.940000	61.400000	18.850000	212.000000	0.000000	169.000000	48.000000	25.000000	0.000000
1.950000	61.650000	18.850000	213.000000	0.000000	169.000000	48.000000	25.000000	0.000000
1.960000	61.940000	18.910000	203.000000	0.000000	170.000000	49.000000	29.000000	6.000000
1.970000	62.180000	18.980000	200.000000	0.000000	170.000000	49.000000	24.000000	7.000000
1.980000	62.380000	19.060000	181.000000	0.000000	170.000000	49.000000	20.000000	8.000000
1.990000	62.590000	19.130000	180.000000	0.000000	171.000000	49.000000	21.000000	7.000000
2.000000	62.680000	19.210000	181.000000	0.000000	171.000000	49.000000	9.000000	8.000000
2.010000	62.680000	19.320000	181.000000	0.000000	171.000000	49.000000	0.000000	11.000000
2.020000	62.730000	19.450000	191.000000	0.000000	171.000000	49.000000	5.000000	13.000000
2.030000	62.730000	19.570000	212.000000	0.000000	171.000000	49.000000	0.000000	12.000000
2.040000	62.680000	19.670000	215.000000	0.000000	172.000000	49.000000	-5.000000	10.000000
2.050000	62.680000	19.730000	222.000000	0.000000	172.000000	49.000000	0.000000	6.000000
2.060000	62.680000	19.730000	218.000000	0.000000	172.000000	49.000000	0.000000	0.000000
2.070000	62.680000	19.730000	218.000000	0.000000	172.000000	49.000000	0.000000	0.000000
2.080000	62.680000	19.730000	217.000000	0.000000	172.000000	49.000000	0.000000	0.000000
2.090000	62.680000	19.570000	220.000000	0.000000	172.000000	48.000000	0.000000	-16.000000
2.100000	62.760000	19.420000	220.000000	0.000000	172.000000	48.000000	8.000000	-15.000000
2.110000	62.760000	19.270000	217.000000	0.000000	172.000000	48.000000	0.000000	-15.000000
2.120000	62.900000	19.130000	217.000000	0.000000	172.000000	48.000000	14.000000	-14.000000
2.130000	63.090000	19.130000	220.000000	0.000000	172.000000	48.000000	19.000000	0.000000
2.140000	63.390000	19.130000	217.000000	0.000000	172.000000	48.000000	30.000000	0.000000
2.150000	63.750000	19.130000	203.000000	0.000000	172.000000	48.000000	36.000000	0.000000
2.160000	64.100000	19.250000	185.000000	0.000000	172.000000	48.000000	35.000000	12.000000
2.170000	64.370000	19.380000	183.000000	0.000000	173.000000	48.000000	27.000000	13.000000
2.180000	64.600000	19.470000	181.000000	0.000000	173.000000	48.000000	23.000000	9.000000
2.190000	64.760000	19.550000	176.000000	0.000000	173.000000	48.000000	16.000000	8.000000
2.200000	64.830000	19.600000	180.000000	0.000000	173.000000	49.000000	7.000000	5.000000
2.210000	64.830000	19.600000	195.000000	0.000000	173.000000	49.000000	0.000000	0.000000
2.220000	64.830000	19.600000	222.000000	0.000000	173.000000	49.000000	0.000000	0.000000
2.230000	64.830000	19.650000	219.000000	0.000000	173.000000	49.000000	0.000000	5.000000
