t	x	y	pressure	penup	azimuth	inclination	v_x	v_y
0.000000	87.420000	67.310000	10.000000	1.000000	149.000000	52.000000	0.000000	0.000000
0.010000	88.230000	67.660000	63.000000	1.000000	150.000000	52.000000	0.000000	0.000000
0.020000	88.730000	67.880000	100.000000	0.000000	150.000000	52.000000	50.000000	22.000000
0.030000	89.130000	68.060000	175.000000	0.000000	151.000000	51.000000	40.000000	18.000000
0.040000	89.450000	68.190000	246.000000	0.000000	153.000000	52.000000	32.000000	13.000000
0.050000	89.670000	68.310000	285.000000	0.000000	153.000000	51.000000	22.000000	12.000000
0.060000	89.770000	68.420000	314.000000	0.000000	155.000000	51.000000	10.000000	11.000000
0.070000	89.770000	68.510000	362.000000	0.000000	155.000000	50.000000	0.000000	9.000000
0.080000	89.720000	68.590000	344.000000	0.000000	157.000000	51.000000	-5.000000	8.000000
0.090000	89.190000	68.650000	327.000000	0.000000	157.000000	51.000000	-53.000000	6.000000
0.100000	88.360000	68.450000	317.000000	0.000000	157.000000	50.000000	-83.000000	-20.000000
0.110000	87.130000	68.060000	317.000000	0.000000	157.000000	50.000000	-123.000000	-39.000000
0.120000	86.050000	67.600000	324.000000	0.000000	156.000000	50.000000	-108.000000	-46.000000
0.130000	85.070000	67.160000	312.000000	0.000000	155.000000	50.000000	-98.000000	-44.000000
0.140000	84.800000	66.740000	311.000000	0.000000	154.000000	50.000000	-27.000000	-42.000000
0.150000	84.980000	66.280000	311.000000	0.000000	153.000000	50.000000	18.000000	-46.000000
0.160000	85.460000	65.870000	309.000000	0.000000	152.000000	51.000000	48.000000	-41.000000
0.170000	86.310000	65.500000	324.000000	0.000000	152.000000	51.000000	85.000000	-37.000000
0.180000	87.180000	65.140000	332.000000	0.000000	151.000000	50.000000	87.000000	-36.000000
0.190000	88.060000	64.840000	334.000000	0.000000	151.000000	50.000000	88.000000	-30.000000
0.200000	88.570000	64.530000	334.000000	0.000000	151.000000	50.000000	51.000000	-31.000000
0.210000	88.520000	64.210000	338.000000	0.000000	151.000000	50.000000	-5.000000	-32.000000
0.220000	88.100000	63.900000	373.000000	0.000000	152.000000	51.000000	-42.000000	-31.000000
0.230000	87.100000	63.570000	422.000000	0.000000	152.000000	51.000000	-100.000000	-33.000000
0.240000	86.040000	63.370000	461.000000	0.000000	152.000000	51.000000	-106.000000	-20.000000
0.250000	84.950000	63.240000	477.000000	0.000000	152.000000	51.000000	-109.000000	-13.000000
0.260000	84.210000	63.240000	481.000000	0.000000	152.000000	51.000000	-74.000000	0.000000
0.270000	84.060000	63.320000	469.000000	0.000000	153.000000	50.000000	-15.000000	8.000000
0.280000	84.300000	63.400000	441.000000	0.000000	153.000000	50.000000	24.000000	8.000000
0.290000	85.100000	63.610000	438.000000	0.000000	153.000000	50.000000	80.000000	21.000000
0.300000	86.200000	63.950000	441.000000	0.000000	153.000000	50.000000	110.000000	34.000000
0.310000	87.490000	64.380000	441.000000	0.000000	153.000000	50.000000	129.000000	43.000000
0.320000	88.950000	64.940000	439.000000	0.000000	154.000000	50.000000	146.000000	56.000000
0.330000	90.190000	65.490000	443.000000	0.000000	154.000000	50.000000	124.000000	55.000000
0.340000	91.280000	66.040000	447.000000	0.000000	155.000000	51.000000	109.000000	55.000000
0.350000	91.880000	66.430000	460.000000	0.000000	155.000000	51.000000	60.000000	39.000000
0.360000	91.880000	66.600000	465.000000	0.000000	156.000000	51.000000	0.000000	17.000000
0.370000	91.560000	66.600000	464.000000	0.000000	156.000000	53.000000	-32.000000	0.000000
0.380000	90.480000	66.300000	467.000000	0.000000	158.000000	53.000000	-108.000000	-30.000000
0.390000	89.170000	65.770000	488.000000	0.000000	158.000000	53.000000	-131.000000	-53.000000
0.400000	87.710000	65.090000	498.000000	0.000000	158.000000	53.000000	-146.000000	-68.000000
0.410000	86.930000	64.450000	499.000000	0.000000	158.000000	53.000000	-78.000000	-64.000000
0.420000	86.670000	63.940000	501.000000	0.000000	156.000000	53.000000	-26.000000	-51.000000
0.430000	86.750000	63.520000	501.000000	0.000000	155.000000	52.000000	8.000000	-42.000000
0.440000	87.150000	63.390000	502.000000	0.000000	155.000000	51.000000	40.000000	-13.000000
0.450000	88.000000	63.530000	489.000000	0.000000	153.000000	51.000000	85.000000	14.000000
0.460000	89.150000	63.860000	495.000000	0.000000	153.000000	51.000000	115.000000	33.000000
0.470000	90.280000	64.370000	483.000000	0.000000	154.000000	50.000000	113.000000	51.000000
0.480000	91.160000	64.980000	485.000000	0.000000	154.000000	50.000000	88.000000	61.000000
0.490000	91.860000	65.670000	488.000000	0.000000	155.000000	51.000000	70.000000	69.000000
0.500000	92.110000	66.200000	502.000000	0.000000	156.000000	51.000000	25.000000	53.000000
0.510000	92.110000	66.470000	521.000000	0.000000	157.000000	52.000000	0.000000	27.000000
0.520000	91.860000	66.570000	521.000000	0.000000	158.000000	53.000000	-25.000000	10.000000
0.530000	91.510000	66.490000	542.000000	0.000000	159.000000	53.000000	-35.000000	-8.000000
0.540000	91.120000	66.130000	553.000000	0.000000	160.000000	53.000000	-39.000000	-36.000000
0.550000	90.700000	65.580000	561.000000	0.000000	160.000000	53.000000	-42.000000	-55.000000
0.560000	90.510000	65.060000	560.000000	0.000000	160.000000	53.000000	-19.000000	-52.000000
0.570000	90.580000	64.690000	570.000000	0.000000	160.000000	53.000000	7.000000	-37.000000
0.580000	90.830000	64.430000	585.000000	0.000000	159.000000	53.000000	25.000000	-26.000000
0.590000	91.200000	64.280000	592.000000	0.000000	159.000000	53.000000	37.000000	-15.000000
0.600000	91.730000	64.400000	592.000000	0.000000	159.000000	53.000000	53.000000	12.000000
0.610000	92.370000	64.710000	588.000000	0.000000	159.000000	53.000000	64.000000	31.000000
0.620000	92.940000	65.120000	577.000000	0.000000	160.000000	52.000000	57.000000	41.000000
0.630000	93.300000	65.560000	564.000000	0.000000	160.000000	52.000000	36.000000	44.000000
0.640000	93.530000	66.020000	557.000000	0.000000	160.000000	52.000000	23.000000	46.000000
0.650000	93.670000	66.350000	563.000000	0.000000	159.000000	53.000000	14.000000	33.000000
0.660000	93.670000	66.440000	580.000000	0.000000	159.000000	53.000000	0.000000	9.000000
0.670000	93.670000	66.360000	602.000000	0.000000	159.000000	53.000000	0.000000	-8.000000
0.680000	93.560000	66.130000	620.000000	0.000000	158.000000	53.000000	-11.000000	-23.000000
0.690000	93.420000	65.780000	637.000000	0.000000	158.000000	53.000000	-14.000000	-35.000000
0.700000	93.250000	65.360000	655.000000	0.000000	158.000000	53.000000	-17.000000	-42.000000
0.710000	93.250000	65.040000	661.000000	0.000000	158.000000	53.000000	0.000000	-32.000000
0.720000	93.370000	64.840000	662.000000	0.000000	158.000000	53.000000	12.000000	-20.000000
0.730000	93.590000	64.720000	671.000000	0.000000	158.000000	53.000000	22.000000	-12.000000
0.740000	93.960000	64.820000	668.000000	0.000000	158.000000	53.000000	37.000000	10.000000
0.750000	94.340000	65.080000	652.000000	0.000000	158.000000	53.000000	38.000000	26.000000
0.760000	94.710000	65.450000	633.000000	0.000000	157.000000	52.000000	37.000000	37.000000
0.770000	94.940000	65.860000	614.000000	0.000000	156.000000	53.000000	23.000000	41.000000
0.780000	95.100000	66.270000	614.000000	0.000000	156.000000	53.000000	16.000000	41.000000
0.790000	95.250000	66.430000	616.000000	0.000000	156.000000	53.000000	15.000000	16.000000
0.800000	95.250000	66.430000	619.000000	0.000000	156.000000	53.000000	0.000000	0.000000
0.810000	95.250000	66.330000	624.000000	0.000000	156.000000	53.000000	0.000000	-10.000000
0.820000	95.180000	66.180000	645.000000	0.000000	156.000000	53.000000	-7.000000	-15.000000
0.830000	95.180000	65.930000	641.000000	0.000000	155.000000	52.000000	0.000000	-25.000000
0.840000	95.100000	65.620000	650.000000	0.000000	155.000000	52.000000	-8.000000	-31.000000
0.850000	95.340000	65.460000	650.000000	0.000000	155.000000	52.000000	24.000000	-16.000000
0.860000	95.580000	65.390000	643.000000	0.000000	155.000000	52.000000	24.000000	-7.000000
0.870000	96.030000	65.580000	614.000000	0.000000	155.000000	52.000000	45.000000	19.000000
0.880000	96.610000	65.940000	554.000000	0.000000	154.000000	53.000000	58.000000	36.000000
0.890000	96.990000	66.410000	491.000000	0.000000	153.000000	53.000000	38.000000	47.000000
0.900000	97.130000	66.940000	415.000000	0.000000	153.000000	53.000000	14.000000	53.000000
0.910000	97.130000	67.660000	317.000000	0.000000	153.000000	53.000000	0.000000	72.000000
0.920000	97.130000	68.520000	297.000000	0.000000	154.000000	52.000000	0.000000	86.000000
0.930000	97.130000	69.830000	279.000000	0.000000	154.000000	52.000000	0.000000	131.000000
0.940000	97.130000	71.120000	285.000000	0.000000	155.000000	51.000000	0.000000	129.000000
0.950000	97.130000	72.390000	348.000000	0.000000	155.000000	50.000000	0.000000	127.000000
0.960000	97.180000	72.790000	441.000000	0.000000	155.000000	49.000000	5.000000	40.000000
0.970000	97.260000	72.790000	536.000000	0.000000	157.000000	48.000000	8.000000	0.000000
0.980000	97.260000	72.560000	633.000000	0.000000	157.000000	47.000000	0.000000	-23.000000
0.990000	97.260000	71.960000	675.000000	0.000000	158.000000	46.000000	0.000000	-60.000000
1.000000	97.110000	70.820000	676.000000	0.000000	158.000000	46.000000	-15.000000	-114.000000
1.010000	97.020000	69.310000	676.000000	0.000000	158.000000	46.000000	-9.000000	-151.000000
1.020000	96.970000	67.670000	664.000000	0.000000	159.000000	46.000000	-5.000000	-164.000000
1.030000	97.090000	66.550000	630.000000	0.000000	158.000000	47.000000	12.000000	-112.000000
1.040000	97.320000	65.790000	592.000000	0.000000	158.000000	48.000000	23.000000	-76.000000
1.050000	97.390000	65.340000	594.000000	0.000000	157.000000	49.000000	7.000000	-45.000000
1.060000	97.200000	65.180000	562.000000	0.000000	156.000000	50.000000	-19.000000	-16.000000
1.070000	96.830000	65.180000	488.000000	0.000000	155.000000	50.000000	-37.000000	0.000000
1.080000	96.420000	65.460000	496.000000	0.000000	155.000000	51.000000	-41.000000	28.000000
1.090000	96.080000	65.810000	483.000000	0.000000	154.000000	52.000000	-34.000000	35.000000
1.100000	96.080000	66.230000	467.000000	0.000000	153.000000	53.000000	0.000000	42.000000
1.110000	96.230000	66.600000	481.000000	0.000000	154.000000	53.000000	15.000000	37.000000
1.120000	96.570000	66.700000	514.000000	0.000000	154.000000	53.000000	34.000000	10.000000
1.130000	96.920000	66.630000	519.000000	0.000000	154.000000	53.000000	35.000000	-7.000000
1.140000	97.280000	66.390000	540.000000	0.000000	154.000000	53.000000	36.000000	-24.000000
1.150000	97.650000	66.140000	543.000000	0.000000	154.000000	53.000000	37.000000	-25.000000
1.160000	98.040000	65.880000	553.000000	0.000000	154.000000	53.000000	39.000000	-26.000000
1.170000	98.690000	65.800000	556.000000	0.000000	154.000000	53.000000	65.000000	-8.000000
1.180000	99.330000	65.800000	556.000000	0.000000	154.000000	53.000000	64.000000	0.000000
1.190000	99.960000	65.950000	550.000000	0.000000	154.000000	53.000000	63.000000	15.000000
1.200000	100.350000	66.180000	548.000000	0.000000	154.000000	53.000000	39.000000	23.000000
1.210000	100.470000	66.480000	565.000000	0.000000	154.000000	53.000000	12.000000	30.000000
1.220000	100.400000	66.760000	588.000000	0.000000	154.000000	53.000000	-7.000000	28.000000
1.230000	100.350000	67.030000	647.000000	0.000000	156.000000	53.000000	-5.000000	27.000000
1.240000	100.350000	67.100000	636.000000	0.000000	156.000000	53.000000	0.000000	7.000000
1.250000	100.350000	67.050000	643.000000	0.000000	156.000000	53.000000	0.000000	-5.000000
1.260000	100.350000	66.790000	643.000000	0.000000	156.000000	53.000000	0.000000	-26.000000
1.270000	100.480000	66.490000	652.000000	0.000000	156.000000	53.000000	13.000000	-30.000000
1.280000	100.790000	66.200000	650.000000	0.000000	156.000000	53.000000	31.000000	-29.000000
1.290000	101.230000	65.930000	638.000000	0.000000	156.000000	53.000000	44.000000	-27.000000
1.300000	101.700000	65.820000	509.000000	0.000000	156.000000	53.000000	47.000000	-11.000000
1.310000	102.050000	65.870000	73.000000	0.000000	157.000000	54.000000	35.000000	5.000000
1.320000	102.050000	65.870000	0.000000	1.000000	157.000000	54.000000	0.000000	0.000000
1.330000	102.180000	66.350000	0.000000	0.000000	157.000000	54.000000	13.000000	48.000000
1.340000	101.800000	66.760000	0.000000	0.000000	158.000000	54.000000	-38.000000	41.000000
1.350000	101.240000	67.230000	0.000000	0.000000	158.000000	54.000000	-56.000000	47.000000
1.360000	101.240000	67.230000	66.000000	1.000000	158.000000	54.000000	0.000000	0.000000
1.370000	100.410000	67.970000	269.000000	0.000000	158.000000	54.000000	-83.000000	74.000000
1.380000	100.200000	68.330000	396.000000	0.000000	158.000000	54.000000	-21.000000	36.000000
1.390000	100.200000	68.440000	440.000000	0.000000	159.000000	53.000000	0.000000	11.000000
1.400000	100.200000	68.380000	458.000000	0.000000	158.000000	53.000000	0.000000	-6.000000
1.410000	100.360000	68.190000	381.000000	0.000000	158.000000	52.000000	16.000000	-19.000000
1.420000	100.680000	67.970000	20.000000	0.000000	158.000000	52.000000	32.000000	-22.000000
1.430000	100.680000	67.970000	0.000000	1.000000	157.000000	52.000000	0.000000	0.000000
1.440000	101.650000	67.410000	0.000000	0.000000	157.000000	52.000000	97.000000	-56.000000
1.450000	102.050000	67.230000	0.000000	0.000000	157.000000	52.000000	40.000000	-18.000000
1.460000	102.570000	67.110000	0.000000	0.000000	157.000000	52.000000	52.000000	-12.000000
1.470000	103.080000	66.930000	0.000000	0.000000	156.000000	53.000000	51.000000	-18.000000
1.480000	103.080000	66.930000	30.000000	1.000000	156.000000	53.000000	0.000000	0.000000
1.490000	103.700000	66.660000	292.000000	0.000000	156.000000	53.000000	62.000000	-27.000000
1.500000	103.570000	66.790000	535.000000	0.000000	156.000000	53.000000	-13.000000	13.000000
1.510000	103.260000	66.890000	595.000000	0.000000	155.000000	54.000000	-31.000000	10.000000
1.520000	102.880000	66.890000	636.000000	0.000000	155.000000	54.000000	-38.000000	0.000000
1.530000	102.520000	66.830000	643.000000	0.000000	155.000000	54.000000	-36.000000	-6.000000
1.540000	102.180000	66.590000	650.000000	0.000000	156.000000	55.000000	-34.000000	-24.000000
1.550000	102.040000	66.260000	644.000000	0.000000	156.000000	55.000000	-14.000000	-33.000000
1.560000	102.110000	65.950000	628.000000	0.000000	156.000000	55.000000	7.000000	-31.000000
1.570000	102.310000	65.770000	597.000000	0.000000	156.000000	55.000000	20.000000	-18.000000
1.580000	102.780000	65.690000	563.000000	0.000000	156.000000	55.000000	47.000000	-8.000000
1.590000	103.260000	65.790000	501.000000	0.000000	156.000000	55.000000	48.000000	10.000000
1.600000	103.750000	65.900000	460.000000	0.000000	157.000000	54.000000	49.000000	11.000000
1.610000	104.030000	66.010000	420.000000	0.000000	157.000000	54.000000	28.000000	11.000000
1.620000	104.190000	65.960000	422.000000	0.000000	157.000000	54.000000	16.000000	-5.000000
1.630000	104.300000	65.910000	425.000000	0.000000	156.000000	53.000000	11.000000	-5.000000
1.640000	104.410000	65.830000	425.000000	0.000000	156.000000	53.000000	11.000000	-8.000000
1.650000	104.670000	65.770000	377.000000	0.000000	156.000000	53.000000	26.000000	-6.000000
1.660000	105.020000	65.850000	254.000000	0.000000	155.000000	54.000000	35.000000	8.000000
1.670000	105.540000	66.030000	137.000000	0.000000	153.000000	54.000000	52.000000	18.000000
1.680000	105.540000	66.030000	0.000000	1.000000	153.000000	54.000000	0.000000	0.000000
1.690000	106.320000	66.350000	0.000000	0.000000	153.000000	54.000000	78.000000	32.000000
1.700000	106.320000	66.350000	32.000000	1.000000	153.000000	54.000000	0.000000	0.000000
1.710000	106.320000	66.350000	46.000000	0.000000	152.000000	54.000000	0.000000	0.000000
1.720000	106.320000	66.350000	22.000000	0.000000	151.000000	54.000000	0.000000	0.000000
1.730000	106.320000	66.350000	0.000000	1.000000	151.000000	54.000000	0.000000	0.000000
1.740000	106.320000	66.350000	0.000000	0.000000	151.000000	54.000000	0.000000	0.000000
1.750000	106.320000	66.350000	0.000000	0.000000	151.000000	54.000000	0.000000	0.000000
1.760000	106.560000	66.750000	0.000000	0.000000	151.000000	54.000000	24.000000	40.000000
1.770000	106.800000	66.880000	0.000000	0.000000	151.000000	54.000000	24.000000	13.000000
1.780000	107.030000	66.950000	0.000000	0.000000	151.000000	54.000000	23.000000	7.000000
1.790000	107.030000	66.950000	0.000000	0.000000	151.000000	54.000000	0.000000	0.000000
1.800000	106.880000	66.950000	0.000000	0.000000	151.000000	54.000000	-15.000000	0.000000
1.810000	106.790000	66.950000	0.000000	0.000000	150.000000	54.000000	-9.000000	0.000000
1.820000	106.790000	66.950000	6.000000	0.000000	150.000000	54.000000	0.000000	0.000000
1.830000	106.790000	66.950000	65.000000	1.000000	150.000000	54.000000	0.000000	0.000000
1.840000	106.790000	66.950000	80.000000	0.000000	150.000000	54.000000	0.000000	0.000000
1.850000	106.790000	66.950000	107.000000	0.000000	150.000000	54.000000	0.000000	0.000000
1.860000	106.790000	66.950000	185.000000	0.000000	150.000000	54.000000	0.000000	0.000000
1.870000	106.790000	66.950000	212.000000	0.000000	150.000000	54.000000	0.000000	0.000000
1.880000	106.770000	67.210000	244.000000	0.000000	150.000000	54.000000	-2.000000	26.000000
1.890000	106.770000	67.210000	247.000000	0.000000	150.000000	54.000000	0.000000	0.000000
1.900000	106.770000	67.210000	250.000000	0.000000	151.000000	53.000000	0.000000	0.000000
1.910000	106.770000	67.210000	269.000000	0.000000	151.000000	53.000000	0.000000	0.000000
1.920000	106.770000	67.210000	304.000000	0.000000	151.000000	53.000000	0.000000	0.000000
1.930000	106.770000	67.210000	363.000000	0.000000	151.000000	53.000000	0.000000	0.000000
1.940000	106.770000	67.260000	376.000000	0.000000	151.000000	53.000000	0.000000	5.000000
1.950000	106.770000	67.260000	366.000000	0.000000	151.000000	53.000000	0.000000	0.000000
1.960000	106.770000	67.260000	343.000000	0.000000	151.000000	53.000000	0.000000	0.000000
1.970000	106.880000	67.260000	315.000000	0.000000	150.000000	54.000000	11.000000	0.000000
1.980000	107.090000	66.970000	279.000000	0.000000	150.000000	54.000000	21.000000	-29.000000
1.990000	107.360000	66.540000	279.000000	0.000000	150.000000	54.000000	27.000000	-43.000000
2.000000	107.450000	65.660000	282.000000	0.000000	150.000000	54.000000	9.000000	-88.000000
2.010000	107.450000	64.340000	351.000000	0.000000	150.000000	54.000000	0.000000	-132.000000
2.020000	107.240000	62.720000	450.000000	0.000000	150.000000	54.000000	-21.000000	-162.000000
2.030000	106.840000	61.570000	570.000000	0.000000	151.000000	54.000000	-40.000000	-115.000000
2.040000	106.300000	60.910000	641.000000	0.000000	150.000000	55.000000	-54.000000	-66.000000
2.050000	105.660000	60.570000	720.000000	0.000000	152.000000	56.000000	-64.000000	-34.000000
2.060000	105.270000	60.500000	827.000000	0.000000	152.000000	56.000000	-39.000000	-7.000000
2.070000	105.040000	60.690000	819.000000	0.000000	153.000000	56.000000	-23.000000	19.000000
2.080000	105.040000	61.060000	791.000000	0.000000	153.000000	56.000000	0.000000	37.000000
2.090000	105.330000	61.810000	737.000000	0.000000	153.000000	56.000000	29.000000	75.000000
2.100000	105.800000	62.890000	691.000000	0.000000	153.000000	56.000000	47.000000	108.000000
2.110000	106.520000	64.200000	662.000000	0.000000	153.000000	56.000000	72.000000	131.000000
2.120000	107.180000	65.370000	673.000000	0.000000	153.000000	56.000000	66.000000	117.000000
2.130000	107.810000	66.170000	670.000000	0.000000	153.000000	55.000000	63.000000	80.000000
2.140000	108.280000	66.730000	702.000000	0.000000	153.000000	55.000000	47.000000	56.000000
2.150000	108.490000	66.900000	711.000000	0.000000	151.000000	54.000000	21.000000	17.000000
2.160000	108.490000	66.900000	710.000000	0.000000	150.000000	55.000000	0.000000	0.000000
2.170000	108.490000	66.900000	717.000000	0.000000	150.000000	55.000000	0.000000	0.000000
2.180000	108.410000	66.550000	722.000000	0.000000	149.000000	55.000000	-8.000000	-35.000000
2.190000	108.260000	66.190000	730.000000	0.000000	149.000000	55.000000	-15.000000	-36.000000
