t	x	y	pressure	penup	azimuth	inclination	v_x	v_y
0.000000	17.520000	53.840000	48.000000	1.000000	141.000000	52.000000	0.000000	0.000000
0.010000	19.050000	54.930000	107.000000	0.000000	141.000000	52.000000	153.000000	109.000000
0.020000	19.050000	55.030000	161.000000	0.000000	141.000000	52.000000	0.000000	10.000000
0.030000	18.630000	54.970000	186.000000	0.000000	141.000000	52.000000	-42.000000	-6.000000
0.040000	17.790000	54.610000	196.000000	0.000000	141.000000	52.000000	-84.000000	-36.000000
0.050000	16.320000	54.060000	212.000000	0.000000	141.000000	52.000000	-147.000000	-55.000000
0.060000	14.440000	53.110000	206.000000	0.000000	141.000000	52.000000	-188.000000	-95.000000
0.070000	12.720000	52.300000	245.000000	0.000000	141.000000	52.000000	-172.000000	-81.000000
0.080000	11.730000	51.580000	254.000000	0.000000	141.000000	52.000000	-99.000000	-72.000000
0.090000	11.220000	51.150000	252.000000	0.000000	141.000000	52.000000	-51.000000	-43.000000
0.100000	11.530000	50.820000	252.000000	0.000000	140.000000	52.000000	31.000000	-33.000000
0.110000	12.480000	50.560000	260.000000	0.000000	140.000000	52.000000	95.000000	-26.000000
0.120000	13.850000	50.440000	255.000000	0.000000	140.000000	52.000000	137.000000	-12.000000
0.130000	15.390000	50.310000	259.000000	0.000000	140.000000	52.000000	154.000000	-13.000000
0.140000	16.800000	50.170000	257.000000	0.000000	140.000000	52.000000	141.000000	-14.000000
0.150000	17.360000	49.760000	259.000000	0.000000	139.000000	52.000000	56.000000	-41.000000
0.160000	17.360000	49.160000	265.000000	0.000000	137.000000	52.000000	0.000000	-60.000000
0.170000	16.680000	48.430000	317.000000	0.000000	137.000000	52.000000	-68.000000	-73.000000
0.180000	15.440000	47.640000	379.000000	0.000000	136.000000	52.000000	-124.000000	-79.000000
0.190000	13.850000	46.910000	448.000000	0.000000	135.000000	52.000000	-159.000000	-73.000000
0.200000	12.370000	46.420000	492.000000	0.000000	136.000000	52.000000	-148.000000	-49.000000
0.210000	11.410000	46.090000	535.000000	0.000000	135.000000	53.000000	-96.000000	-33.000000
0.220000	10.790000	46.180000	516.000000	0.000000	134.000000	54.000000	-62.000000	9.000000
0.230000	11.370000	46.520000	495.000000	0.000000	134.000000	54.000000	58.000000	34.000000
0.240000	12.400000	47.040000	481.000000	0.000000	135.000000	54.000000	103.000000	52.000000
0.250000	13.730000	47.820000	491.000000	0.000000	135.000000	54.000000	133.000000	78.000000
0.260000	15.430000	48.740000	489.000000	0.000000	135.000000	54.000000	170.000000	92.000000
0.270000	17.240000	49.750000	494.000000	0.000000	135.000000	54.000000	181.000000	101.000000
0.280000	19.130000	50.650000	494.000000	0.000000	135.000000	53.000000	189.000000	90.000000
0.290000	20.690000	51.500000	501.000000	0.000000	136.000000	52.000000	156.000000	85.000000
0.300000	21.370000	51.900000	519.000000	0.000000	137.000000	52.000000	68.000000	40.000000
0.310000	21.460000	52.030000	538.000000	0.000000	137.000000	52.000000	9.000000	13.000000
0.320000	20.780000	51.870000	563.000000	0.000000	138.000000	51.000000	-68.000000	-16.000000
0.330000	19.520000	51.270000	617.000000	0.000000	138.000000	51.000000	-126.000000	-60.000000
0.340000	17.880000	50.370000	649.000000	0.000000	140.000000	51.000000	-164.000000	-90.000000
0.350000	16.480000	49.360000	670.000000	0.000000	140.000000	51.000000	-140.000000	-101.000000
0.360000	15.710000	48.550000	668.000000	0.000000	140.000000	51.000000	-77.000000	-81.000000
0.370000	15.360000	47.870000	658.000000	0.000000	138.000000	51.000000	-35.000000	-68.000000
0.380000	15.620000	47.630000	655.000000	0.000000	138.000000	51.000000	26.000000	-24.000000
0.390000	16.460000	47.830000	641.000000	0.000000	138.000000	51.000000	84.000000	20.000000
0.400000	17.680000	48.330000	642.000000	0.000000	138.000000	51.000000	122.000000	50.000000
0.410000	19.140000	49.340000	637.000000	0.000000	138.000000	51.000000	146.000000	101.000000
0.420000	20.480000	50.320000	644.000000	0.000000	138.000000	51.000000	134.000000	98.000000
0.430000	21.740000	51.120000	652.000000	0.000000	138.000000	51.000000	126.000000	80.000000
0.440000	22.540000	51.820000	664.000000	0.000000	137.000000	51.000000	80.000000	70.000000
0.450000	22.760000	52.020000	682.000000	0.000000	137.000000	51.000000	22.000000	20.000000
0.460000	22.590000	51.900000	700.000000	0.000000	138.000000	50.000000	-17.000000	-12.000000
0.470000	22.100000	51.570000	690.000000	0.000000	137.000000	50.000000	-49.000000	-33.000000
0.480000	21.450000	50.860000	693.000000	0.000000	137.000000	50.000000	-65.000000	-71.000000
0.490000	20.700000	50.250000	702.000000	0.000000	138.000000	49.000000	-75.000000	-61.000000
0.500000	20.410000	49.710000	697.000000	0.000000	138.000000	49.000000	-29.000000	-54.000000
0.510000	20.410000	49.360000	687.000000	0.000000	137.000000	50.000000	0.000000	-35.000000
0.520000	20.680000	49.210000	682.000000	0.000000	137.000000	50.000000	27.000000	-15.000000
0.530000	21.230000	49.210000	670.000000	0.000000	137.000000	50.000000	55.000000	0.000000
0.540000	21.930000	49.570000	661.000000	0.000000	137.000000	50.000000	70.000000	36.000000
0.550000	22.740000	50.060000	653.000000	0.000000	137.000000	50.000000	81.000000	49.000000
0.560000	23.220000	50.630000	650.000000	0.000000	137.000000	50.000000	48.000000	57.000000
0.570000	23.560000	51.120000	646.000000	0.000000	137.000000	50.000000	34.000000	49.000000
0.580000	23.800000	51.370000	646.000000	0.000000	136.000000	49.000000	24.000000	25.000000
0.590000	23.800000	51.450000	643.000000	0.000000	136.000000	49.000000	0.000000	8.000000
0.600000	23.800000	51.380000	653.000000	0.000000	136.000000	49.000000	0.000000	-7.000000
0.610000	23.800000	51.100000	676.000000	0.000000	136.000000	49.000000	0.000000	-28.000000
0.620000	23.740000	50.680000	694.000000	0.000000	137.000000	48.000000	-6.000000	-42.000000
0.630000	23.740000	50.190000	700.000000	0.000000	137.000000	48.000000	0.000000	-49.000000
0.640000	23.680000	49.890000	690.000000	0.000000	137.000000	48.000000	-6.000000	-30.000000
0.650000	23.850000	49.730000	693.000000	0.000000	136.000000	49.000000	17.000000	-16.000000
0.660000	24.050000	49.730000	694.000000	0.000000	136.000000	49.000000	20.000000	0.000000
0.670000	24.050000	49.730000	693.000000	0.000000	136.000000	49.000000	0.000000	0.000000
0.680000	24.710000	50.300000	691.000000	0.000000	136.000000	49.000000	66.000000	57.000000
0.690000	24.860000	50.530000	670.000000	0.000000	136.000000	49.000000	15.000000	23.000000
0.700000	24.860000	50.720000	640.000000	0.000000	136.000000	49.000000	0.000000	19.000000
0.710000	24.860000	50.840000	617.000000	0.000000	136.000000	49.000000	0.000000	12.000000
0.720000	24.860000	50.940000	611.000000	0.000000	136.000000	49.000000	0.000000	10.000000
0.730000	25.010000	50.830000	609.000000	0.000000	137.000000	50.000000	15.000000	-11.000000
0.740000	25.250000	50.710000	611.000000	0.000000	137.000000	50.000000	24.000000	-12.000000
0.750000	25.620000	50.580000	605.000000	0.000000	137.000000	50.000000	37.000000	-13.000000
0.760000	26.060000	50.420000	595.000000	0.000000	138.000000	50.000000	44.000000	-16.000000
0.770000	26.450000	50.420000	575.000000	0.000000	138.000000	50.000000	39.000000	0.000000
0.780000	26.780000	50.510000	533.000000	0.000000	140.000000	51.000000	33.000000	9.000000
0.790000	27.080000	50.700000	468.000000	0.000000	140.000000	51.000000	30.000000	19.000000
0.800000	27.220000	51.080000	431.000000	0.000000	140.000000	51.000000	14.000000	38.000000
0.810000	27.320000	51.600000	427.000000	0.000000	141.000000	51.000000	10.000000	52.000000
0.820000	27.380000	52.230000	423.000000	0.000000	141.000000	51.000000	6.000000	63.000000
0.830000	27.380000	53.000000	415.000000	0.000000	141.000000	51.000000	0.000000	77.000000
0.840000	27.330000	53.870000	422.000000	0.000000	141.000000	51.000000	-5.000000	87.000000
0.850000	27.380000	55.110000	422.000000	0.000000	142.000000	50.000000	5.000000	124.000000
0.860000	27.380000	56.390000	414.000000	0.000000	142.000000	50.000000	0.000000	128.000000
0.870000	27.450000	57.690000	443.000000	0.000000	141.000000	50.000000	7.000000	130.000000
0.880000	27.530000	58.190000	453.000000	0.000000	141.000000	50.000000	8.000000	50.000000
0.890000	27.600000	58.190000	522.000000	0.000000	142.000000	49.000000	7.000000	0.000000
0.900000	27.600000	57.780000	551.000000	0.000000	142.000000	49.000000	0.000000	-41.000000
0.910000	27.600000	56.900000	580.000000	0.000000	143.000000	49.000000	0.000000	-88.000000
0.920000	27.600000	55.520000	586.000000	0.000000	143.000000	49.000000	0.000000	-138.000000
0.930000	27.600000	53.810000	581.000000	0.000000	143.000000	49.000000	0.000000	-171.000000
0.940000	27.800000	52.540000	578.000000	0.000000	143.000000	49.000000	20.000000	-127.000000
0.950000	28.040000	51.790000	562.000000	0.000000	142.000000	49.000000	24.000000	-75.000000
0.960000	28.230000	51.380000	538.000000	0.000000	143.000000	50.000000	19.000000	-41.000000
0.970000	28.070000	51.150000	535.000000	0.000000	142.000000	50.000000	-16.000000	-23.000000
0.980000	27.670000	51.060000	530.000000	0.000000	142.000000	50.000000	-40.000000	-9.000000
0.990000	27.060000	51.060000	533.000000	0.000000	142.000000	50.000000	-61.000000	0.000000
1.000000	26.350000	51.210000	536.000000	0.000000	142.000000	50.000000	-71.000000	15.000000
1.010000	25.580000	51.420000	556.000000	0.000000	142.000000	50.000000	-77.000000	21.000000
1.020000	25.460000	51.660000	561.000000	0.000000	142.000000	50.000000	-12.000000	24.000000
1.030000	25.670000	51.660000	561.000000	0.000000	142.000000	50.000000	21.000000	0.000000
1.040000	26.090000	51.720000	578.000000	0.000000	142.000000	50.000000	42.000000	6.000000
1.050000	26.870000	51.720000	595.000000	0.000000	142.000000	50.000000	78.000000	0.000000
1.060000	27.660000	51.720000	603.000000	0.000000	142.000000	50.000000	79.000000	0.000000
1.070000	28.470000	51.780000	611.000000	0.000000	142.000000	50.000000	81.000000	6.000000
1.080000	29.280000	51.850000	588.000000	0.000000	143.000000	51.000000	81.000000	7.000000
1.090000	29.930000	51.950000	557.000000	0.000000	144.000000	50.000000	65.000000	10.000000
1.100000	30.480000	52.070000	543.000000	0.000000	145.000000	51.000000	55.000000	12.000000
1.110000	30.690000	52.200000	546.000000	0.000000	145.000000	51.000000	21.000000	13.000000
1.120000	30.620000	52.200000	561.000000	0.000000	145.000000	51.000000	-7.000000	0.000000
1.130000	30.360000	52.200000	595.000000	0.000000	147.000000	51.000000	-26.000000	0.000000
1.140000	30.150000	52.200000	614.000000	0.000000	147.000000	51.000000	-21.000000	0.000000
1.150000	30.000000	52.080000	625.000000	0.000000	147.000000	51.000000	-15.000000	-12.000000
1.160000	30.000000	51.920000	638.000000	0.000000	147.000000	51.000000	0.000000	-16.000000
1.170000	30.000000	51.730000	636.000000	0.000000	147.000000	51.000000	0.000000	-19.000000
1.180000	30.300000	51.540000	641.000000	0.000000	147.000000	51.000000	30.000000	-19.000000
1.190000	30.690000	51.460000	640.000000	0.000000	147.000000	51.000000	39.000000	-8.000000
1.200000	31.190000	51.460000	606.000000	0.000000	145.000000	51.000000	50.000000	0.000000
1.210000	31.700000	51.570000	415.000000	0.000000	145.000000	51.000000	51.000000	11.000000
1.220000	32.000000	51.770000	44.000000	0.000000	145.000000	51.000000	30.000000	20.000000
1.230000	32.000000	51.770000	0.000000	1.000000	144.000000	51.000000	0.000000	0.000000
1.240000	31.870000	52.220000	0.000000	0.000000	143.000000	51.000000	-13.000000	45.000000
1.250000	31.470000	52.560000	0.000000	0.000000	143.000000	51.000000	-40.000000	34.000000
1.260000	30.980000	53.000000	0.000000	0.000000	143.000000	51.000000	-49.000000	44.000000
1.270000	30.980000	53.000000	280.000000	1.000000	144.000000	50.000000	0.000000	0.000000
1.280000	30.050000	53.670000	465.000000	0.000000	144.000000	50.000000	-93.000000	67.000000
1.290000	29.770000	54.060000	577.000000	0.000000	145.000000	51.000000	-28.000000	39.000000
1.300000	29.550000	54.160000	594.000000	0.000000	145.000000	51.000000	-22.000000	10.000000
1.310000	29.620000	54.250000	599.000000	0.000000	145.000000	51.000000	7.000000	9.000000
1.320000	30.080000	54.390000	548.000000	0.000000	145.000000	51.000000	46.000000	14.000000
1.330000	30.800000	54.560000	312.000000	0.000000	145.000000	51.000000	72.000000	17.000000
1.340000	30.800000	54.560000	0.000000	1.000000	145.000000	51.000000	0.000000	0.000000
1.350000	32.320000	54.290000	0.000000	0.000000	144.000000	50.000000	152.000000	-27.000000
1.360000	32.810000	53.890000	0.000000	0.000000	144.000000	50.000000	49.000000	-40.000000
1.370000	33.140000	53.500000	0.000000	0.000000	144.000000	50.000000	33.000000	-39.000000
1.380000	33.450000	53.140000	0.000000	0.000000	143.000000	50.000000	31.000000	-36.000000
1.390000	33.450000	53.140000	85.000000	1.000000	143.000000	50.000000	0.000000	0.000000
1.400000	33.740000	52.740000	200.000000	0.000000	143.000000	50.000000	29.000000	-40.000000
1.410000	33.740000	52.740000	386.000000	0.000000	143.000000	50.000000	0.000000	0.000000
1.420000	33.530000	52.840000	491.000000	0.000000	143.000000	50.000000	-21.000000	10.000000
1.430000	33.320000	53.030000	569.000000	0.000000	143.000000	50.000000	-21.000000	19.000000
1.440000	33.130000	53.110000	611.000000	0.000000	143.000000	50.000000	-19.000000	8.000000
1.450000	32.950000	53.110000	619.000000	0.000000	143.000000	50.000000	-18.000000	0.000000
1.460000	32.950000	53.110000	624.000000	0.000000	143.000000	50.000000	0.000000	0.000000
1.470000	33.010000	52.970000	619.000000	0.000000	143.000000	50.000000	6.000000	-14.000000
1.480000	33.120000	52.700000	611.000000	0.000000	143.000000	50.000000	11.000000	-27.000000
1.490000	33.330000	52.490000	610.000000	0.000000	143.000000	50.000000	21.000000	-21.000000
1.500000	33.580000	52.380000	597.000000	0.000000	142.000000	49.000000	25.000000	-11.000000
1.510000	33.940000	52.380000	553.000000	0.000000	142.000000	49.000000	36.000000	0.000000
1.520000	34.380000	52.430000	522.000000	0.000000	143.000000	50.000000	44.000000	5.000000
1.530000	34.770000	52.610000	474.000000	0.000000	143.000000	50.000000	39.000000	18.000000
1.540000	34.970000	52.860000	453.000000	0.000000	143.000000	50.000000	20.000000	25.000000
1.550000	35.050000	53.040000	450.000000	0.000000	143.000000	50.000000	8.000000	18.000000
1.560000	35.140000	53.260000	458.000000	0.000000	143.000000	50.000000	9.000000	22.000000
1.570000	35.190000	53.480000	465.000000	0.000000	143.000000	50.000000	5.000000	22.000000
1.580000	35.190000	53.640000	467.000000	0.000000	143.000000	50.000000	0.000000	16.000000
1.590000	35.190000	53.640000	465.000000	0.000000	143.000000	50.000000	0.000000	0.000000
1.600000	35.190000	53.550000	468.000000	0.000000	143.000000	50.000000	0.000000	-9.000000
1.610000	35.240000	53.390000	470.000000	0.000000	143.000000	50.000000	5.000000	-16.000000
1.620000	35.440000	53.240000	470.000000	0.000000	143.000000	50.000000	20.000000	-15.000000
1.630000	35.750000	53.110000	473.000000	0.000000	143.000000	50.000000	31.000000	-13.000000
1.640000	36.140000	53.060000	472.000000	0.000000	144.000000	50.000000	39.000000	-5.000000
1.650000	36.610000	53.130000	468.000000	0.000000	144.000000	50.000000	47.000000	7.000000
1.660000	37.120000	53.290000	458.000000	0.000000	144.000000	50.000000	51.000000	16.000000
1.670000	37.120000	53.290000	448.000000	0.000000	144.000000	50.000000	0.000000	0.000000
1.680000	37.120000	53.420000	448.000000	0.000000	144.000000	50.000000	0.000000	13.000000
1.690000	37.120000	53.640000	445.000000	0.000000	144.000000	50.000000	0.000000	22.000000
1.700000	37.120000	53.870000	442.000000	0.000000	144.000000	50.000000	0.000000	23.000000
1.710000	37.290000	54.150000	449.000000	0.000000	144.000000	50.000000	17.000000	28.000000
1.720000	37.570000	54.460000	439.000000	0.000000	144.000000	50.000000	28.000000	31.000000
1.730000	37.730000	54.460000	439.000000	0.000000	144.000000	50.000000	16.000000	0.000000
1.740000	37.890000	54.460000	449.000000	0.000000	144.000000	50.000000	16.000000	0.000000
1.750000	38.240000	54.360000	448.000000	0.000000	144.000000	50.000000	35.000000	-10.000000
1.760000	38.700000	54.210000	438.000000	0.000000	144.000000	50.000000	46.000000	-15.000000
1.770000	39.570000	54.060000	414.000000	0.000000	145.000000	51.000000	87.000000	-15.000000
1.780000	40.460000	53.930000	294.000000	0.000000	145.000000	51.000000	89.000000	-13.000000
1.790000	40.460000	53.930000	0.000000	1.000000	144.000000	51.000000	0.000000	0.000000
1.800000	41.490000	53.480000	0.000000	0.000000	146.000000	52.000000	103.000000	-45.000000
1.810000	41.490000	53.650000	0.000000	0.000000	146.000000	52.000000	0.000000	17.000000
1.820000	41.000000	54.100000	0.000000	0.000000	146.000000	52.000000	-49.000000	45.000000
1.830000	40.170000	54.470000	0.000000	0.000000	146.000000	52.000000	-83.000000	37.000000
1.840000	39.480000	54.810000	0.000000	0.000000	147.000000	51.000000	-69.000000	34.000000
1.850000	38.570000	54.810000	0.000000	0.000000	147.000000	51.000000	-91.000000	0.000000
1.860000	37.500000	54.630000	0.000000	0.000000	148.000000	50.000000	-107.000000	-18.000000
1.870000	35.900000	55.090000	0.000000	0.000000	146.000000	50.000000	-160.000000	46.000000
1.880000	34.110000	54.850000	0.000000	0.000000	147.000000	49.000000	-179.000000	-24.000000
1.890000	32.200000	54.140000	0.000000	0.000000	147.000000	48.000000	-191.000000	-71.000000
1.900000	30.020000	52.540000	0.000000	0.000000	146.000000	48.000000	-218.000000	-160.000000
1.910000	27.890000	51.310000	0.000000	0.000000	145.000000	47.000000	-213.000000	-123.000000
1.920000	25.830000	50.330000	0.000000	0.000000	144.000000	47.000000	-206.000000	-98.000000
1.930000	24.080000	48.780000	0.000000	0.000000	142.000000	47.000000	-175.000000	-155.000000
1.940000	22.530000	47.300000	0.000000	0.000000	139.000000	48.000000	-155.000000	-148.000000
1.950000	20.360000	46.090000	0.000000	0.000000	137.000000	48.000000	-217.000000	-121.000000
1.960000	18.690000	45.030000	0.000000	0.000000	135.000000	50.000000	-167.000000	-106.000000
1.970000	17.360000	44.420000	0.000000	0.000000	134.000000	50.000000	-133.000000	-61.000000
1.980000	16.230000	43.800000	0.000000	0.000000	132.000000	51.000000	-113.000000	-62.000000
1.990000	15.450000	43.140000	0.000000	0.000000	131.000000	52.000000	-78.000000	-66.000000
2.000000	14.900000	42.490000	0.000000	0.000000	133.000000	53.000000	-55.000000	-65.000000
2.010000	14.750000	41.950000	0.000000	0.000000	134.000000	54.000000	-15.000000	-54.000000
2.020000	14.750000	41.500000	0.000000	0.000000	135.000000	54.000000	0.000000	-45.000000
2.030000	14.930000	41.500000	0.000000	0.000000	136.000000	55.000000	18.000000	0.000000
2.040000	15.070000	41.640000	0.000000	0.000000	138.000000	55.000000	14.000000	14.000000
2.050000	15.300000	41.980000	0.000000	0.000000	138.000000	55.000000	23.000000	34.000000
2.060000	15.640000	42.390000	0.000000	0.000000	139.000000	56.000000	34.000000	41.000000
2.070000	16.020000	42.790000	0.000000	0.000000	139.000000	56.000000	38.000000	40.000000
2.080000	16.310000	43.150000	0.000000	0.000000	138.000000	57.000000	29.000000	36.000000
2.090000	16.760000	43.490000	0.000000	0.000000	136.000000	56.000000	45.000000	34.000000
2.100000	17.320000	43.840000	0.000000	0.000000	136.000000	56.000000	56.000000	35.000000
2.110000	17.800000	44.240000	0.000000	0.000000	134.000000	56.000000	48.000000	40.000000
2.120000	18.230000	44.680000	0.000000	0.000000	134.000000	56.000000	43.000000	44.000000
2.130000	18.630000	45.060000	0.000000	0.000000	134.000000	56.000000	40.000000	38.000000
2.140000	18.860000	45.400000	0.000000	0.000000	134.000000	56.000000	23.000000	34.000000
2.150000	18.930000	45.670000	0.000000	0.000000	132.000000	55.000000	7.000000	27.000000
2.160000	18.880000	45.780000	0.000000	0.000000	132.000000	55.000000	-5.000000	11.000000
2.170000	18.660000	45.780000	0.000000	0.000000	132.000000	55.000000	-22.000000	0.000000
2.180000	18.450000	45.780000	0.000000	0.000000	132.000000	55.000000	-21.000000	0.000000
2.190000	18.240000	45.920000	0.000000	0.000000	132.000000	55.000000	-21.000000	14.000000
2.200000	18.160000	46.140000	0.000000	0.000000	132.000000	55.000000	-8.000000	22.000000
