t	x	y	pressure	penup	azimuth	inclination	v_x	v_y
0.000000	14.440000	31.830000	187.000000	1.000000	132.000000	63.000000	0.000000	0.000000
0.010000	14.090000	31.880000	222.000000	0.000000	132.000000	63.000000	-35.000000	5.000000
0.020000	13.610000	31.880000	294.000000	0.000000	132.000000	63.000000	-48.000000	0.000000
0.030000	13.030000	31.690000	339.000000	0.000000	130.000000	62.000000	-58.000000	-19.000000
0.040000	12.390000	31.340000	361.000000	0.000000	129.000000	63.000000	-64.000000	-35.000000
0.050000	11.610000	30.880000	389.000000	0.000000	127.000000	62.000000	-78.000000	-46.000000
0.060000	10.880000	30.390000	410.000000	0.000000	126.000000	61.000000	-73.000000	-49.000000
0.070000	10.190000	30.050000	428.000000	0.000000	126.000000	61.000000	-69.000000	-34.000000
0.080000	10.020000	29.820000	422.000000	0.000000	126.000000	61.000000	-17.000000	-23.000000
0.090000	10.130000	29.760000	441.000000	0.000000	123.000000	61.000000	11.000000	-6.000000
0.100000	10.430000	29.560000	448.000000	0.000000	123.000000	61.000000	30.000000	-20.000000
0.110000	11.080000	29.280000	464.000000	0.000000	123.000000	61.000000	65.000000	-28.000000
0.120000	11.970000	29.050000	483.000000	0.000000	123.000000	61.000000	89.000000	-23.000000
0.130000	13.030000	28.750000	496.000000	0.000000	123.000000	61.000000	106.000000	-30.000000
0.140000	13.750000	28.240000	488.000000	0.000000	123.000000	61.000000	72.000000	-51.000000
0.150000	14.140000	27.610000	492.000000	0.000000	122.000000	61.000000	39.000000	-63.000000
0.160000	14.310000	26.910000	497.000000	0.000000	122.000000	61.000000	17.000000	-70.000000
0.170000	14.240000	26.260000	501.000000	0.000000	122.000000	61.000000	-7.000000	-65.000000
0.180000	13.940000	25.690000	502.000000	0.000000	121.000000	63.000000	-30.000000	-57.000000
0.190000	13.490000	25.260000	519.000000	0.000000	121.000000	63.000000	-45.000000	-43.000000
0.200000	12.960000	24.930000	515.000000	0.000000	121.000000	63.000000	-53.000000	-33.000000
0.210000	12.400000	24.880000	536.000000	0.000000	119.000000	63.000000	-56.000000	-5.000000
0.220000	11.810000	24.950000	589.000000	0.000000	119.000000	63.000000	-59.000000	7.000000
0.230000	11.120000	25.100000	620.000000	0.000000	117.000000	63.000000	-69.000000	15.000000
0.240000	10.850000	25.290000	631.000000	0.000000	117.000000	63.000000	-27.000000	19.000000
0.250000	10.850000	25.620000	630.000000	0.000000	117.000000	63.000000	0.000000	33.000000
0.260000	11.490000	26.050000	630.000000	0.000000	117.000000	63.000000	64.000000	43.000000
0.270000	12.460000	26.640000	639.000000	0.000000	117.000000	63.000000	97.000000	59.000000
0.280000	13.660000	27.210000	636.000000	0.000000	117.000000	63.000000	120.000000	57.000000
0.290000	14.850000	27.730000	631.000000	0.000000	117.000000	63.000000	119.000000	52.000000
0.300000	15.860000	27.990000	627.000000	0.000000	119.000000	63.000000	101.000000	26.000000
0.310000	16.760000	28.090000	622.000000	0.000000	119.000000	63.000000	90.000000	10.000000
0.320000	17.410000	28.320000	617.000000	0.000000	121.000000	63.000000	65.000000	23.000000
0.330000	17.920000	28.550000	611.000000	0.000000	122.000000	61.000000	51.000000	23.000000
0.340000	18.330000	28.770000	616.000000	0.000000	123.000000	61.000000	41.000000	22.000000
0.350000	18.470000	28.990000	616.000000	0.000000	123.000000	61.000000	14.000000	22.000000
0.360000	18.610000	29.310000	620.000000	0.000000	125.000000	60.000000	14.000000	32.000000
0.370000	18.680000	29.620000	622.000000	0.000000	126.000000	60.000000	7.000000	31.000000
0.380000	18.680000	29.880000	634.000000	0.000000	126.000000	60.000000	0.000000	26.000000
0.390000	18.590000	30.070000	642.000000	0.000000	126.000000	60.000000	-9.000000	19.000000
0.400000	18.340000	30.200000	647.000000	0.000000	128.000000	59.000000	-25.000000	13.000000
0.410000	18.000000	30.260000	641.000000	0.000000	128.000000	59.000000	-34.000000	6.000000
0.420000	17.610000	30.260000	644.000000	0.000000	128.000000	59.000000	-39.000000	0.000000
0.430000	17.220000	30.110000	646.000000	0.000000	128.000000	59.000000	-39.000000	-15.000000
0.440000	16.820000	29.920000	649.000000	0.000000	128.000000	59.000000	-40.000000	-19.000000
0.450000	16.660000	29.680000	649.000000	0.000000	129.000000	59.000000	-16.000000	-24.000000
0.460000	16.530000	29.380000	647.000000	0.000000	128.000000	59.000000	-13.000000	-30.000000
0.470000	16.470000	29.030000	647.000000	0.000000	127.000000	59.000000	-6.000000	-35.000000
0.480000	16.470000	28.660000	647.000000	0.000000	127.000000	59.000000	0.000000	-37.000000
0.490000	16.550000	28.280000	646.000000	0.000000	127.000000	59.000000	8.000000	-38.000000
0.500000	16.870000	27.960000	643.000000	0.000000	126.000000	58.000000	32.000000	-32.000000
0.510000	17.350000	27.680000	643.000000	0.000000	124.000000	58.000000	48.000000	-28.000000
0.520000	17.880000	27.680000	643.000000	0.000000	125.000000	59.000000	53.000000	0.000000
0.530000	18.420000	27.780000	637.000000	0.000000	125.000000	59.000000	54.000000	10.000000
0.540000	18.960000	27.960000	645.000000	0.000000	125.000000	59.000000	54.000000	18.000000
0.550000	19.350000	28.280000	645.000000	0.000000	125.000000	59.000000	39.000000	32.000000
0.560000	19.650000	28.660000	636.000000	0.000000	126.000000	60.000000	30.000000	38.000000
0.570000	19.860000	29.090000	647.000000	0.000000	126.000000	60.000000	21.000000	43.000000
0.580000	19.940000	29.600000	647.000000	0.000000	126.000000	60.000000	8.000000	51.000000
0.590000	19.940000	30.060000	636.000000	0.000000	126.000000	60.000000	0.000000	46.000000
0.600000	19.940000	30.270000	638.000000	0.000000	126.000000	60.000000	0.000000	21.000000
0.610000	19.880000	30.330000	641.000000	0.000000	125.000000	59.000000	-6.000000	6.000000
0.620000	19.880000	30.330000	641.000000	0.000000	127.000000	59.000000	0.000000	0.000000
0.630000	19.880000	30.330000	638.000000	0.000000	127.000000	59.000000	0.000000	0.000000
0.640000	19.880000	30.270000	637.000000	0.000000	127.000000	59.000000	0.000000	-6.000000
0.650000	19.880000	30.130000	636.000000	0.000000	127.000000	59.000000	0.000000	-14.000000
0.660000	19.990000	29.790000	641.000000	0.000000	128.000000	58.000000	11.000000	-34.000000
0.670000	20.120000	29.450000	641.000000	0.000000	128.000000	58.000000	13.000000	-34.000000
0.680000	20.420000	29.110000	640.000000	0.000000	128.000000	58.000000	30.000000	-34.000000
0.690000	20.830000	28.850000	641.000000	0.000000	128.000000	58.000000	41.000000	-26.000000
0.700000	21.310000	28.650000	636.000000	0.000000	128.000000	58.000000	48.000000	-20.000000
0.710000	21.760000	28.560000	639.000000	0.000000	127.000000	59.000000	45.000000	-9.000000
0.720000	22.190000	28.620000	622.000000	0.000000	127.000000	59.000000	43.000000	6.000000
0.730000	22.540000	28.770000	619.000000	0.000000	127.000000	59.000000	35.000000	15.000000
0.740000	22.830000	29.000000	611.000000	0.000000	127.000000	59.000000	29.000000	23.000000
0.750000	22.970000	29.300000	620.000000	0.000000	127.000000	59.000000	14.000000	30.000000
0.760000	23.020000	29.640000	620.000000	0.000000	126.000000	58.000000	5.000000	34.000000
0.770000	23.020000	29.950000	620.000000	0.000000	126.000000	58.000000	0.000000	31.000000
0.780000	23.020000	30.230000	619.000000	0.000000	126.000000	58.000000	0.000000	28.000000
0.790000	22.960000	30.330000	624.000000	0.000000	127.000000	59.000000	-6.000000	10.000000
0.800000	22.960000	30.330000	624.000000	0.000000	128.000000	58.000000	0.000000	0.000000
0.810000	22.960000	30.330000	625.000000	0.000000	128.000000	58.000000	0.000000	0.000000
0.820000	23.060000	30.110000	630.000000	0.000000	128.000000	58.000000	10.000000	-22.000000
0.830000	23.210000	29.820000	634.000000	0.000000	128.000000	58.000000	15.000000	-29.000000
0.840000	23.440000	29.490000	638.000000	0.000000	128.000000	58.000000	23.000000	-33.000000
0.850000	23.680000	29.160000	636.000000	0.000000	128.000000	58.000000	24.000000	-33.000000
0.860000	24.060000	28.900000	636.000000	0.000000	128.000000	58.000000	38.000000	-26.000000
0.870000	24.530000	28.680000	631.000000	0.000000	128.000000	58.000000	47.000000	-22.000000
0.880000	25.000000	28.610000	631.000000	0.000000	129.000000	59.000000	47.000000	-7.000000
0.890000	25.390000	28.670000	630.000000	0.000000	129.000000	59.000000	39.000000	6.000000
0.900000	25.720000	28.810000	627.000000	0.000000	129.000000	59.000000	33.000000	14.000000
0.910000	25.920000	29.000000	624.000000	0.000000	131.000000	60.000000	20.000000	19.000000
0.920000	26.050000	29.330000	613.000000	0.000000	131.000000	60.000000	13.000000	33.000000
0.930000	26.120000	29.750000	616.000000	0.000000	131.000000	60.000000	7.000000	42.000000
0.940000	26.120000	30.310000	609.000000	0.000000	132.000000	60.000000	0.000000	56.000000
0.950000	26.120000	31.030000	614.000000	0.000000	132.000000	60.000000	0.000000	72.000000
0.960000	26.120000	31.850000	613.000000	0.000000	132.000000	60.000000	0.000000	82.000000
0.970000	25.980000	32.850000	636.000000	0.000000	132.000000	60.000000	-14.000000	100.000000
0.980000	25.720000	33.840000	655.000000	0.000000	134.000000	60.000000	-26.000000	99.000000
0.990000	25.380000	34.560000	676.000000	0.000000	132.000000	60.000000	-34.000000	72.000000
1.000000	25.080000	35.100000	713.000000	0.000000	132.000000	60.000000	-30.000000	54.000000
1.010000	24.980000	35.210000	716.000000	0.000000	132.000000	60.000000	-10.000000	11.000000
1.020000	24.980000	35.090000	714.000000	0.000000	132.000000	60.000000	0.000000	-12.000000
1.030000	25.180000	34.830000	720.000000	0.000000	131.000000	60.000000	20.000000	-26.000000
1.040000	25.570000	33.970000	736.000000	0.000000	131.000000	60.000000	39.000000	-86.000000
1.050000	26.120000	32.930000	755.000000	0.000000	131.000000	60.000000	55.000000	-104.000000
1.060000	26.760000	31.770000	754.000000	0.000000	131.000000	60.000000	64.000000	-116.000000
1.070000	27.300000	30.850000	753.000000	0.000000	132.000000	60.000000	54.000000	-92.000000
1.080000	27.760000	30.170000	748.000000	0.000000	132.000000	60.000000	46.000000	-68.000000
1.090000	28.190000	29.640000	673.000000	0.000000	134.000000	60.000000	43.000000	-53.000000
1.100000	28.470000	29.280000	537.000000	0.000000	135.000000	60.000000	28.000000	-36.000000
1.110000	28.560000	29.110000	237.000000	0.000000	136.000000	61.000000	9.000000	-17.000000
1.120000	28.560000	29.110000	0.000000	1.000000	136.000000	61.000000	0.000000	0.000000
1.130000	28.290000	29.240000	0.000000	0.000000	138.000000	61.000000	-27.000000	13.000000
1.140000	27.810000	29.580000	0.000000	0.000000	138.000000	61.000000	-48.000000	34.000000
1.150000	27.160000	30.030000	0.000000	0.000000	138.000000	61.000000	-65.000000	45.000000
1.160000	26.500000	30.500000	0.000000	0.000000	138.000000	61.000000	-66.000000	47.000000
1.170000	25.880000	30.950000	0.000000	0.000000	138.000000	61.000000	-62.000000	45.000000
1.180000	25.880000	30.950000	372.000000	1.000000	136.000000	61.000000	0.000000	0.000000
1.190000	25.260000	31.330000	430.000000	0.000000	135.000000	60.000000	-62.000000	38.000000
1.200000	25.260000	31.440000	527.000000	0.000000	135.000000	60.000000	0.000000	11.000000
1.210000	26.010000	31.580000	560.000000	0.000000	134.000000	60.000000	75.000000	14.000000
1.220000	27.180000	31.740000	577.000000	0.000000	134.000000	60.000000	117.000000	16.000000
1.230000	28.190000	31.910000	564.000000	0.000000	134.000000	60.000000	101.000000	17.000000
1.240000	28.990000	32.010000	491.000000	0.000000	135.000000	59.000000	80.000000	10.000000
1.250000	29.660000	32.100000	335.000000	0.000000	135.000000	59.000000	67.000000	9.000000
1.260000	30.120000	32.150000	17.000000	0.000000	136.000000	60.000000	46.000000	5.000000
1.270000	30.120000	32.150000	0.000000	1.000000	136.000000	60.000000	0.000000	0.000000
1.280000	30.410000	32.150000	0.000000	0.000000	138.000000	60.000000	29.000000	0.000000
1.290000	30.180000	32.150000	0.000000	0.000000	138.000000	60.000000	-23.000000	0.000000
1.300000	29.980000	32.150000	0.000000	0.000000	138.000000	60.000000	-20.000000	0.000000
1.310000	29.980000	32.150000	206.000000	1.000000	138.000000	60.000000	0.000000	0.000000
1.320000	29.980000	32.150000	336.000000	0.000000	138.000000	60.000000	0.000000	0.000000
1.330000	29.980000	32.150000	486.000000	0.000000	138.000000	60.000000	0.000000	0.000000
1.340000	30.020000	31.880000	585.000000	0.000000	138.000000	60.000000	4.000000	-27.000000
1.350000	30.180000	31.690000	666.000000	0.000000	138.000000	60.000000	16.000000	-19.000000
1.360000	30.350000	31.430000	690.000000	0.000000	139.000000	60.000000	17.000000	-26.000000
1.370000	30.480000	31.120000	702.000000	0.000000	138.000000	60.000000	13.000000	-31.000000
1.380000	30.580000	30.810000	700.000000	0.000000	138.000000	60.000000	10.000000	-31.000000
1.390000	30.750000	30.520000	645.000000	0.000000	138.000000	60.000000	17.000000	-29.000000
1.400000	30.900000	30.360000	420.000000	0.000000	138.000000	60.000000	15.000000	-16.000000
1.410000	30.900000	30.360000	0.000000	1.000000	138.000000	60.000000	0.000000	0.000000
1.420000	31.030000	30.380000	0.000000	0.000000	138.000000	60.000000	13.000000	2.000000
1.430000	30.940000	30.670000	0.000000	0.000000	138.000000	60.000000	-9.000000	29.000000
1.440000	30.740000	31.100000	0.000000	0.000000	138.000000	60.000000	-20.000000	43.000000
1.450000	30.570000	31.760000	0.000000	0.000000	138.000000	60.000000	-17.000000	66.000000
1.460000	30.570000	32.480000	0.000000	0.000000	136.000000	60.000000	0.000000	72.000000
1.470000	30.690000	33.250000	0.000000	0.000000	136.000000	60.000000	12.000000	77.000000
1.480000	30.690000	33.840000	0.000000	0.000000	135.000000	59.000000	0.000000	59.000000
1.490000	30.620000	34.220000	0.000000	0.000000	134.000000	58.000000	-7.000000	38.000000
1.500000	30.620000	34.220000	149.000000	1.000000	134.000000	58.000000	0.000000	0.000000
1.510000	30.440000	34.590000	155.000000	0.000000	134.000000	58.000000	-18.000000	37.000000
1.520000	30.320000	34.720000	96.000000	0.000000	131.000000	58.000000	-12.000000	13.000000
1.530000	30.320000	34.720000	0.000000	1.000000	131.000000	58.000000	0.000000	0.000000
1.540000	30.460000	34.840000	0.000000	0.000000	132.000000	59.000000	14.000000	12.000000
1.550000	30.730000	35.030000	0.000000	0.000000	131.000000	60.000000	27.000000	19.000000
1.560000	31.050000	35.260000	0.000000	0.000000	131.000000	60.000000	32.000000	23.000000
1.570000	31.540000	35.490000	0.000000	0.000000	131.000000	60.000000	49.000000	23.000000
1.580000	32.120000	35.710000	0.000000	0.000000	131.000000	60.000000	58.000000	22.000000
1.590000	32.740000	35.900000	0.000000	0.000000	131.000000	60.000000	62.000000	19.000000
1.600000	33.210000	36.060000	0.000000	0.000000	132.000000	59.000000	47.000000	16.000000
1.610000	33.570000	36.220000	0.000000	0.000000	131.000000	58.000000	36.000000	16.000000
1.620000	33.570000	36.220000	206.000000	1.000000	131.000000	58.000000	0.000000	0.000000
1.630000	33.680000	36.490000	334.000000	0.000000	132.000000	58.000000	11.000000	27.000000
1.640000	33.410000	36.650000	415.000000	0.000000	132.000000	58.000000	-27.000000	16.000000
1.650000	33.070000	36.650000	522.000000	0.000000	132.000000	58.000000	-34.000000	0.000000
1.660000	32.600000	36.650000	589.000000	0.000000	132.000000	58.000000	-47.000000	0.000000
1.670000	32.040000	36.400000	614.000000	0.000000	131.000000	58.000000	-56.000000	-25.000000
1.680000	31.360000	35.920000	636.000000	0.000000	131.000000	58.000000	-68.000000	-48.000000
1.690000	30.900000	35.260000	644.000000	0.000000	131.000000	58.000000	-46.000000	-66.000000
1.700000	30.590000	34.520000	658.000000	0.000000	131.000000	58.000000	-31.000000	-74.000000
1.710000	30.770000	33.750000	668.000000	0.000000	131.000000	58.000000	18.000000	-77.000000
1.720000	31.140000	32.880000	666.000000	0.000000	131.000000	58.000000	37.000000	-87.000000
1.730000	31.630000	31.960000	675.000000	0.000000	131.000000	58.000000	49.000000	-92.000000
1.740000	32.070000	31.100000	676.000000	0.000000	132.000000	59.000000	44.000000	-86.000000
1.750000	32.200000	30.250000	681.000000	0.000000	132.000000	59.000000	13.000000	-85.000000
1.760000	32.110000	29.400000	684.000000	0.000000	132.000000	59.000000	-9.000000	-85.000000
1.770000	31.760000	28.440000	685.000000	0.000000	132.000000	59.000000	-35.000000	-96.000000
1.780000	31.140000	27.410000	676.000000	0.000000	132.000000	60.000000	-62.000000	-103.000000
1.790000	30.330000	26.710000	662.000000	0.000000	132.000000	60.000000	-81.000000	-70.000000
1.800000	29.560000	26.290000	638.000000	0.000000	131.000000	61.000000	-77.000000	-42.000000
1.810000	29.040000	26.070000	538.000000	0.000000	129.000000	61.000000	-52.000000	-22.000000
1.820000	28.680000	26.200000	292.000000	0.000000	127.000000	62.000000	-36.000000	13.000000
1.830000	28.680000	26.200000	0.000000	1.000000	126.000000	62.000000	0.000000	0.000000
1.840000	28.420000	27.230000	0.000000	0.000000	126.000000	62.000000	-26.000000	103.000000
1.850000	28.600000	27.950000	0.000000	0.000000	124.000000	63.000000	18.000000	72.000000
1.860000	28.990000	28.670000	0.000000	0.000000	124.000000	63.000000	39.000000	72.000000
1.870000	29.780000	29.380000	0.000000	0.000000	124.000000	63.000000	79.000000	71.000000
1.880000	30.840000	30.000000	0.000000	0.000000	126.000000	62.000000	106.000000	62.000000
1.890000	32.220000	30.570000	0.000000	0.000000	126.000000	62.000000	138.000000	57.000000
1.900000	33.440000	31.060000	0.000000	0.000000	127.000000	62.000000	122.000000	49.000000
1.910000	34.560000	31.470000	0.000000	0.000000	129.000000	61.000000	112.000000	41.000000
1.920000	35.320000	31.800000	0.000000	0.000000	131.000000	61.000000	76.000000	33.000000
1.930000	35.700000	32.090000	0.000000	0.000000	132.000000	60.000000	38.000000	29.000000
1.940000	35.700000	32.090000	182.000000	1.000000	132.000000	60.000000	0.000000	0.000000
1.950000	35.640000	32.560000	270.000000	0.000000	134.000000	61.000000	-6.000000	47.000000
1.960000	35.330000	32.740000	379.000000	0.000000	135.000000	60.000000	-31.000000	18.000000
1.970000	34.930000	32.830000	449.000000	0.000000	135.000000	60.000000	-40.000000	9.000000
1.980000	34.370000	32.830000	488.000000	0.000000	135.000000	60.000000	-56.000000	0.000000
1.990000	33.740000	32.590000	489.000000	0.000000	135.000000	60.000000	-63.000000	-24.000000
2.000000	33.060000	32.240000	537.000000	0.000000	134.000000	60.000000	-68.000000	-35.000000
2.010000	32.570000	31.830000	570.000000	0.000000	134.000000	60.000000	-49.000000	-41.000000
2.020000	32.420000	31.520000	577.000000	0.000000	134.000000	60.000000	-15.000000	-31.000000
2.030000	32.490000	31.280000	586.000000	0.000000	132.000000	59.000000	7.000000	-24.000000
2.040000	32.660000	31.020000	594.000000	0.000000	132.000000	59.000000	17.000000	-26.000000
2.050000	33.110000	30.860000	603.000000	0.000000	132.000000	59.000000	45.000000	-16.000000
2.060000	33.750000	30.780000	613.000000	0.000000	132.000000	59.000000	64.000000	-8.000000
2.070000	34.400000	30.780000	617.000000	0.000000	132.000000	59.000000	65.000000	0.000000
2.080000	35.030000	30.850000	617.000000	0.000000	132.000000	59.000000	63.000000	7.000000
2.090000	35.640000	30.850000	622.000000	0.000000	134.000000	60.000000	61.000000	0.000000
2.100000	36.310000	30.950000	624.000000	0.000000	134.000000	60.000000	67.000000	10.000000
2.110000	37.040000	31.070000	620.000000	0.000000	134.000000	60.000000	73.000000	12.000000
2.120000	37.810000	31.070000	614.000000	0.000000	135.000000	60.000000	77.000000	0.000000
2.130000	38.400000	31.070000	548.000000	0.000000	138.000000	60.000000	59.000000	0.000000
2.140000	38.720000	31.070000	379.000000	0.000000	138.000000	60.000000	32.000000	0.000000
2.150000	38.720000	31.070000	0.000000	1.000000	139.000000	61.000000	0.000000	0.000000
2.160000	38.690000	30.830000	0.000000	0.000000	139.000000	61.000000	-3.000000	-24.000000
2.170000	38.060000	30.640000	0.000000	0.000000	142.000000	61.000000	-63.000000	-19.000000
2.180000	37.120000	30.460000	0.000000	0.000000	142.000000	61.000000	-94.000000	-18.000000
2.190000	36.220000	30.460000	0.000000	0.000000	141.000000	61.000000	-90.000000	0.000000
2.200000	35.310000	30.460000	0.000000	0.000000	141.000000	61.000000	-91.000000	0.000000
