t	x	y	pressure	penup	azimuth	inclination	v_x	v_y
0.000000	88.670000	51.440000	51.000000	1.000000	150.000000	50.000000	0.000000	0.000000
0.010000	89.500000	51.430000	80.000000	0.000000	150.000000	50.000000	83.000000	-1.000000
0.020000	89.780000	51.580000	115.000000	0.000000	150.000000	50.000000	28.000000	15.000000
0.030000	90.050000	51.730000	160.000000	0.000000	151.000000	50.000000	27.000000	15.000000
0.040000	90.320000	51.900000	207.000000	0.000000	151.000000	50.000000	27.000000	17.000000
0.050000	90.460000	52.090000	225.000000	0.000000	151.000000	50.000000	14.000000	19.000000
0.060000	90.230000	52.180000	244.000000	0.000000	151.000000	50.000000	-23.000000	9.000000
0.070000	89.760000	52.180000	260.000000	0.000000	151.000000	50.000000	-47.000000	0.000000
0.080000	88.490000	51.820000	276.000000	0.000000	151.000000	50.000000	-127.000000	-36.000000
0.090000	86.800000	51.160000	311.000000	0.000000	151.000000	50.000000	-169.000000	-66.000000
0.100000	84.840000	50.180000	353.000000	0.000000	150.000000	50.000000	-196.000000	-98.000000
0.110000	83.520000	49.200000	337.000000	0.000000	150.000000	50.000000	-132.000000	-98.000000
0.120000	83.220000	48.210000	284.000000	0.000000	149.000000	51.000000	-30.000000	-99.000000
0.130000	83.590000	47.460000	254.000000	0.000000	149.000000	51.000000	37.000000	-75.000000
0.140000	84.530000	46.850000	218.000000	0.000000	147.000000	51.000000	94.000000	-61.000000
0.150000	85.710000	46.530000	214.000000	0.000000	147.000000	51.000000	118.000000	-32.000000
0.160000	87.050000	46.330000	216.000000	0.000000	146.000000	52.000000	134.000000	-20.000000
0.170000	87.910000	46.200000	209.000000	0.000000	143.000000	52.000000	86.000000	-13.000000
0.180000	88.080000	46.010000	254.000000	0.000000	143.000000	52.000000	17.000000	-19.000000
0.190000	87.790000	45.760000	311.000000	0.000000	142.000000	53.000000	-29.000000	-25.000000
0.200000	86.800000	45.490000	374.000000	0.000000	142.000000	53.000000	-99.000000	-27.000000
0.210000	85.560000	45.240000	448.000000	0.000000	141.000000	53.000000	-124.000000	-25.000000
0.220000	84.150000	45.050000	519.000000	0.000000	141.000000	53.000000	-141.000000	-19.000000
0.230000	83.050000	45.000000	526.000000	0.000000	141.000000	53.000000	-110.000000	-5.000000
0.240000	82.780000	45.000000	510.000000	0.000000	141.000000	53.000000	-27.000000	0.000000
0.250000	83.060000	45.190000	464.000000	0.000000	141.000000	53.000000	28.000000	19.000000
0.260000	83.980000	45.490000	430.000000	0.000000	141.000000	53.000000	92.000000	30.000000
0.270000	85.220000	45.900000	422.000000	0.000000	141.000000	53.000000	124.000000	41.000000
0.280000	86.670000	46.440000	423.000000	0.000000	140.000000	53.000000	145.000000	54.000000
0.290000	88.270000	47.070000	458.000000	0.000000	141.000000	53.000000	160.000000	63.000000
0.300000	89.690000	47.770000	483.000000	0.000000	142.000000	53.000000	142.000000	70.000000
0.310000	90.990000	48.310000	504.000000	0.000000	143.000000	53.000000	130.000000	54.000000
0.320000	91.490000	48.820000	537.000000	0.000000	146.000000	53.000000	50.000000	51.000000
0.330000	91.410000	48.990000	562.000000	0.000000	146.000000	53.000000	-8.000000	17.000000
0.340000	90.930000	48.990000	577.000000	0.000000	148.000000	53.000000	-48.000000	0.000000
0.350000	89.860000	48.590000	594.000000	0.000000	149.000000	53.000000	-107.000000	-40.000000
0.360000	88.740000	48.050000	589.000000	0.000000	149.000000	53.000000	-112.000000	-54.000000
0.370000	87.590000	47.390000	588.000000	0.000000	150.000000	52.000000	-115.000000	-66.000000
0.380000	87.080000	46.870000	584.000000	0.000000	149.000000	53.000000	-51.000000	-52.000000
0.390000	87.080000	46.470000	564.000000	0.000000	148.000000	53.000000	0.000000	-40.000000
0.400000	87.390000	46.140000	548.000000	0.000000	148.000000	53.000000	31.000000	-33.000000
0.410000	88.080000	46.090000	542.000000	0.000000	146.000000	53.000000	69.000000	-5.000000
0.420000	89.150000	46.380000	540.000000	0.000000	146.000000	53.000000	107.000000	29.000000
0.430000	90.460000	46.900000	543.000000	0.000000	146.000000	53.000000	131.000000	52.000000
0.440000	91.480000	47.450000	560.000000	0.000000	146.000000	53.000000	102.000000	55.000000
0.450000	92.240000	48.070000	572.000000	0.000000	147.000000	53.000000	76.000000	62.000000
0.460000	92.830000	48.750000	591.000000	0.000000	147.000000	53.000000	59.000000	68.000000
0.470000	92.880000	49.080000	588.000000	0.000000	148.000000	54.000000	5.000000	33.000000
0.480000	92.630000	49.160000	595.000000	0.000000	149.000000	53.000000	-25.000000	8.000000
0.490000	92.180000	49.080000	602.000000	0.000000	151.000000	53.000000	-45.000000	-8.000000
0.500000	91.620000	48.610000	603.000000	0.000000	151.000000	53.000000	-56.000000	-47.000000
0.510000	91.200000	48.010000	608.000000	0.000000	152.000000	53.000000	-42.000000	-60.000000
0.520000	90.870000	47.330000	611.000000	0.000000	152.000000	53.000000	-33.000000	-68.000000
0.530000	90.700000	46.870000	609.000000	0.000000	152.000000	53.000000	-17.000000	-46.000000
0.540000	90.840000	46.630000	614.000000	0.000000	152.000000	54.000000	14.000000	-24.000000
0.550000	91.180000	46.540000	611.000000	0.000000	152.000000	54.000000	34.000000	-9.000000
0.560000	91.710000	46.680000	613.000000	0.000000	152.000000	54.000000	53.000000	14.000000
0.570000	92.350000	47.050000	616.000000	0.000000	152.000000	54.000000	64.000000	37.000000
0.580000	93.050000	47.570000	622.000000	0.000000	152.000000	54.000000	70.000000	52.000000
0.590000	93.560000	48.130000	616.000000	0.000000	152.000000	54.000000	51.000000	56.000000
0.600000	93.950000	48.690000	619.000000	0.000000	152.000000	54.000000	39.000000	56.000000
0.610000	94.270000	49.250000	617.000000	0.000000	151.000000	53.000000	32.000000	56.000000
0.620000	94.340000	49.310000	619.000000	0.000000	151.000000	53.000000	7.000000	6.000000
0.630000	94.340000	49.190000	627.000000	0.000000	149.000000	53.000000	0.000000	-12.000000
0.640000	94.270000	48.950000	671.000000	0.000000	149.000000	53.000000	-7.000000	-24.000000
0.650000	94.210000	48.460000	699.000000	0.000000	150.000000	52.000000	-6.000000	-49.000000
0.660000	94.120000	48.040000	716.000000	0.000000	149.000000	52.000000	-9.000000	-42.000000
0.670000	94.020000	47.660000	711.000000	0.000000	149.000000	52.000000	-10.000000	-38.000000
0.680000	94.140000	47.570000	716.000000	0.000000	149.000000	52.000000	12.000000	-9.000000
0.690000	94.300000	47.640000	710.000000	0.000000	149.000000	52.000000	16.000000	7.000000
0.700000	94.720000	47.830000	696.000000	0.000000	149.000000	52.000000	42.000000	19.000000
0.710000	95.280000	48.190000	702.000000	0.000000	149.000000	52.000000	56.000000	36.000000
0.720000	95.660000	48.600000	693.000000	0.000000	149.000000	52.000000	38.000000	41.000000
0.730000	95.900000	49.050000	682.000000	0.000000	149.000000	52.000000	24.000000	45.000000
0.740000	96.050000	49.340000	679.000000	0.000000	149.000000	52.000000	15.000000	29.000000
0.750000	96.000000	49.340000	678.000000	0.000000	149.000000	52.000000	-5.000000	0.000000
0.760000	96.000000	49.200000	681.000000	0.000000	149.000000	52.000000	0.000000	-14.000000
0.770000	95.830000	48.860000	682.000000	0.000000	148.000000	53.000000	-17.000000	-34.000000
0.780000	95.630000	48.490000	681.000000	0.000000	147.000000	52.000000	-20.000000	-37.000000
0.790000	95.630000	48.100000	673.000000	0.000000	147.000000	52.000000	0.000000	-39.000000
0.800000	95.740000	47.950000	659.000000	0.000000	147.000000	52.000000	11.000000	-15.000000
0.810000	95.980000	47.950000	560.000000	0.000000	147.000000	52.000000	24.000000	0.000000
0.820000	96.370000	48.100000	425.000000	0.000000	147.000000	52.000000	39.000000	15.000000
0.830000	96.700000	48.400000	280.000000	0.000000	147.000000	52.000000	33.000000	30.000000
0.840000	97.000000	48.790000	98.000000	0.000000	146.000000	52.000000	30.000000	39.000000
0.850000	97.000000	48.790000	0.000000	1.000000	146.000000	52.000000	0.000000	0.000000
0.860000	97.270000	49.590000	0.000000	0.000000	146.000000	52.000000	27.000000	80.000000
0.870000	97.460000	50.570000	0.000000	0.000000	146.000000	52.000000	19.000000	98.000000
0.880000	97.460000	50.570000	20.000000	1.000000	146.000000	52.000000	0.000000	0.000000
0.890000	98.010000	53.360000	101.000000	0.000000	147.000000	52.000000	55.000000	279.000000
0.900000	98.310000	54.650000	254.000000	0.000000	148.000000	51.000000	30.000000	129.000000
0.910000	98.440000	55.880000	433.000000	0.000000	148.000000	51.000000	13.000000	123.000000
0.920000	98.440000	56.140000	504.000000	0.000000	149.000000	52.000000	0.000000	26.000000
0.930000	98.380000	55.830000	556.000000	0.000000	150.000000	51.000000	-6.000000	-31.000000
0.940000	98.110000	55.150000	588.000000	0.000000	151.000000	51.000000	-27.000000	-68.000000
0.950000	97.720000	53.680000	603.000000	0.000000	151.000000	51.000000	-39.000000	-147.000000
0.960000	97.420000	52.000000	603.000000	0.000000	152.000000	51.000000	-30.000000	-168.000000
0.970000	97.130000	50.190000	599.000000	0.000000	152.000000	51.000000	-29.000000	-181.000000
0.980000	97.180000	48.610000	592.000000	0.000000	151.000000	51.000000	5.000000	-158.000000
0.990000	97.460000	47.650000	575.000000	0.000000	151.000000	51.000000	28.000000	-96.000000
1.000000	97.630000	47.110000	577.000000	0.000000	151.000000	51.000000	17.000000	-54.000000
1.010000	97.630000	46.920000	597.000000	0.000000	149.000000	52.000000	0.000000	-19.000000
1.020000	97.470000	47.000000	595.000000	0.000000	149.000000	52.000000	-16.000000	8.000000
1.030000	97.150000	47.260000	586.000000	0.000000	149.000000	52.000000	-32.000000	26.000000
1.040000	96.780000	47.630000	595.000000	0.000000	148.000000	53.000000	-37.000000	37.000000
1.050000	96.380000	48.120000	570.000000	0.000000	148.000000	53.000000	-40.000000	49.000000
1.060000	96.300000	48.680000	564.000000	0.000000	148.000000	53.000000	-8.000000	56.000000
1.070000	96.510000	48.840000	567.000000	0.000000	148.000000	53.000000	21.000000	16.000000
1.080000	96.910000	48.940000	561.000000	0.000000	148.000000	53.000000	40.000000	10.000000
1.090000	97.400000	48.940000	563.000000	0.000000	149.000000	52.000000	49.000000	0.000000
1.100000	98.060000	48.940000	569.000000	0.000000	150.000000	52.000000	66.000000	0.000000
1.110000	98.820000	49.050000	577.000000	0.000000	150.000000	52.000000	76.000000	11.000000
1.120000	99.490000	49.170000	581.000000	0.000000	150.000000	52.000000	67.000000	12.000000
1.130000	100.000000	49.330000	588.000000	0.000000	152.000000	53.000000	51.000000	16.000000
1.140000	100.400000	49.560000	589.000000	0.000000	152.000000	53.000000	40.000000	23.000000
1.150000	100.650000	49.840000	614.000000	0.000000	153.000000	53.000000	25.000000	28.000000
1.160000	100.700000	49.920000	665.000000	0.000000	154.000000	53.000000	5.000000	8.000000
1.170000	100.620000	49.830000	676.000000	0.000000	154.000000	53.000000	-8.000000	-9.000000
1.180000	100.510000	49.640000	696.000000	0.000000	156.000000	53.000000	-11.000000	-19.000000
1.190000	100.370000	49.090000	690.000000	0.000000	156.000000	53.000000	-14.000000	-55.000000
1.200000	100.220000	48.530000	690.000000	0.000000	156.000000	53.000000	-15.000000	-56.000000
1.210000	100.290000	47.980000	702.000000	0.000000	156.000000	53.000000	7.000000	-55.000000
1.220000	100.660000	47.700000	693.000000	0.000000	156.000000	53.000000	37.000000	-28.000000
1.230000	101.220000	47.570000	584.000000	0.000000	154.000000	53.000000	56.000000	-13.000000
1.240000	101.690000	47.680000	260.000000	0.000000	154.000000	53.000000	47.000000	11.000000
1.250000	101.690000	47.680000	0.000000	1.000000	154.000000	53.000000	0.000000	0.000000
1.260000	101.910000	48.470000	0.000000	0.000000	154.000000	53.000000	22.000000	79.000000
1.270000	101.600000	48.910000	0.000000	0.000000	156.000000	53.000000	-31.000000	44.000000
1.280000	101.130000	49.510000	0.000000	0.000000	156.000000	53.000000	-47.000000	60.000000
1.290000	100.590000	50.230000	0.000000	0.000000	156.000000	53.000000	-54.000000	72.000000
1.300000	100.590000	50.230000	182.000000	1.000000	157.000000	54.000000	0.000000	0.000000
1.310000	100.440000	51.450000	280.000000	0.000000	157.000000	54.000000	-15.000000	122.000000
1.320000	100.510000	51.700000	405.000000	0.000000	157.000000	54.000000	7.000000	25.000000
1.330000	100.560000	51.790000	446.000000	0.000000	158.000000	53.000000	5.000000	9.000000
1.340000	100.620000	51.790000	445.000000	0.000000	158.000000	53.000000	6.000000	0.000000
1.350000	100.890000	51.670000	317.000000	0.000000	158.000000	53.000000	27.000000	-12.000000
1.360000	100.890000	51.670000	0.000000	1.000000	158.000000	52.000000	0.000000	0.000000
1.370000	101.800000	51.050000	0.000000	0.000000	158.000000	52.000000	91.000000	-62.000000
1.380000	102.230000	50.740000	0.000000	0.000000	158.000000	52.000000	43.000000	-31.000000
1.390000	102.590000	50.410000	0.000000	0.000000	158.000000	52.000000	36.000000	-33.000000
1.400000	102.910000	50.070000	0.000000	0.000000	158.000000	53.000000	32.000000	-34.000000
1.410000	103.450000	49.790000	0.000000	0.000000	158.000000	53.000000	54.000000	-28.000000
1.420000	103.850000	49.600000	0.000000	0.000000	158.000000	53.000000	40.000000	-19.000000
1.430000	103.850000	49.600000	180.000000	1.000000	157.000000	54.000000	0.000000	0.000000
1.440000	103.850000	49.600000	363.000000	0.000000	156.000000	53.000000	0.000000	0.000000
1.450000	103.850000	49.600000	567.000000	0.000000	156.000000	53.000000	0.000000	0.000000
1.460000	103.510000	49.800000	588.000000	0.000000	156.000000	53.000000	-34.000000	20.000000
1.470000	103.310000	49.800000	605.000000	0.000000	156.000000	53.000000	-20.000000	0.000000
1.480000	103.070000	49.660000	614.000000	0.000000	156.000000	53.000000	-24.000000	-14.000000
1.490000	102.800000	49.370000	613.000000	0.000000	156.000000	53.000000	-27.000000	-29.000000
1.500000	102.510000	48.930000	609.000000	0.000000	156.000000	53.000000	-29.000000	-44.000000
1.510000	102.300000	48.490000	588.000000	0.000000	156.000000	53.000000	-21.000000	-44.000000
1.520000	102.300000	48.070000	577.000000	0.000000	156.000000	53.000000	0.000000	-42.000000
1.530000	102.530000	47.850000	561.000000	0.000000	156.000000	53.000000	23.000000	-22.000000
1.540000	103.010000	47.760000	515.000000	0.000000	156.000000	53.000000	48.000000	-9.000000
1.550000	103.510000	47.970000	488.000000	0.000000	156.000000	53.000000	50.000000	21.000000
1.560000	104.070000	48.300000	491.000000	0.000000	154.000000	53.000000	56.000000	33.000000
1.570000	104.640000	48.720000	491.000000	0.000000	154.000000	53.000000	57.000000	42.000000
1.580000	104.920000	49.080000	496.000000	0.000000	154.000000	53.000000	28.000000	36.000000
1.590000	105.000000	49.420000	491.000000	0.000000	153.000000	53.000000	8.000000	34.000000
1.600000	105.000000	49.580000	505.000000	0.000000	153.000000	53.000000	0.000000	16.000000
1.610000	104.870000	49.630000	519.000000	0.000000	153.000000	53.000000	-13.000000	5.000000
1.620000	104.680000	49.480000	519.000000	0.000000	153.000000	53.000000	-19.000000	-15.000000
1.630000	104.680000	49.290000	522.000000	0.000000	153.000000	53.000000	0.000000	-19.000000
1.640000	104.680000	49.060000	516.000000	0.000000	153.000000	53.000000	0.000000	-23.000000
1.650000	104.870000	48.830000	494.000000	0.000000	153.000000	53.000000	19.000000	-23.000000
1.660000	105.170000	48.760000	344.000000	0.000000	152.000000	54.000000	30.000000	-7.000000
1.670000	105.410000	48.760000	89.000000	0.000000	152.000000	54.000000	24.000000	0.000000
1.680000	105.410000	48.760000	0.000000	1.000000	152.000000	54.000000	0.000000	0.000000
1.690000	106.160000	48.900000	0.000000	0.000000	152.000000	54.000000	75.000000	14.000000
1.700000	106.780000	49.060000	0.000000	0.000000	152.000000	54.000000	62.000000	16.000000
1.710000	107.400000	49.270000	0.000000	0.000000	152.000000	54.000000	62.000000	21.000000
1.720000	108.010000	49.460000	0.000000	0.000000	151.000000	54.000000	61.000000	19.000000
1.730000	108.440000	49.610000	0.000000	0.000000	153.000000	55.000000	43.000000	15.000000
1.740000	108.740000	49.610000	0.000000	0.000000	153.000000	55.000000	30.000000	0.000000
1.750000	108.740000	49.610000	93.000000	1.000000	153.000000	55.000000	0.000000	0.000000
1.760000	108.740000	49.610000	120.000000	0.000000	153.000000	55.000000	0.000000	0.000000
1.770000	108.290000	49.600000	155.000000	0.000000	153.000000	55.000000	-45.000000	-1.000000
1.780000	108.060000	49.740000	210.000000	0.000000	153.000000	55.000000	-23.000000	14.000000
1.790000	107.880000	49.840000	235.000000	0.000000	153.000000	55.000000	-18.000000	10.000000
1.800000	107.810000	49.920000	257.000000	0.000000	153.000000	54.000000	-7.000000	8.000000
1.810000	107.810000	49.980000	285.000000	0.000000	153.000000	54.000000	0.000000	6.000000
1.820000	107.810000	49.980000	310.000000	0.000000	153.000000	54.000000	0.000000	0.000000
1.830000	107.810000	49.980000	336.000000	0.000000	153.000000	54.000000	0.000000	0.000000
1.840000	107.810000	49.980000	339.000000	0.000000	152.000000	54.000000	0.000000	0.000000
1.850000	107.810000	49.880000	337.000000	0.000000	152.000000	54.000000	0.000000	-10.000000
1.860000	107.750000	49.740000	309.000000	0.000000	152.000000	54.000000	-6.000000	-14.000000
1.870000	107.700000	49.540000	255.000000	0.000000	152.000000	54.000000	-5.000000	-20.000000
1.880000	107.840000	49.030000	256.000000	0.000000	152.000000	54.000000	14.000000	-51.000000
1.890000	107.980000	48.310000	247.000000	0.000000	151.000000	54.000000	14.000000	-72.000000
1.900000	107.980000	47.190000	285.000000	0.000000	151.000000	54.000000	0.000000	-112.000000
1.910000	107.910000	46.190000	309.000000	0.000000	151.000000	54.000000	-7.000000	-100.000000
1.920000	107.670000	45.260000	396.000000	0.000000	150.000000	55.000000	-24.000000	-93.000000
1.930000	107.310000	44.740000	470.000000	0.000000	149.000000	56.000000	-36.000000	-52.000000
1.940000	106.870000	44.530000	536.000000	0.000000	147.000000	56.000000	-44.000000	-21.000000
1.950000	106.260000	44.530000	641.000000	0.000000	147.000000	56.000000	-61.000000	0.000000
1.960000	105.650000	44.740000	659.000000	0.000000	144.000000	57.000000	-61.000000	21.000000
1.970000	105.380000	45.150000	647.000000	0.000000	144.000000	57.000000	-27.000000	41.000000
1.980000	105.380000	45.690000	619.000000	0.000000	144.000000	57.000000	0.000000	54.000000
1.990000	105.790000	46.260000	608.000000	0.000000	143.000000	56.000000	41.000000	57.000000
2.000000	106.530000	46.780000	602.000000	0.000000	143.000000	56.000000	74.000000	52.000000
2.010000	107.450000	47.160000	599.000000	0.000000	143.000000	56.000000	92.000000	38.000000
2.020000	108.420000	47.460000	597.000000	0.000000	143.000000	56.000000	97.000000	30.000000
2.030000	109.380000	47.820000	602.000000	0.000000	145.000000	56.000000	96.000000	36.000000
2.040000	110.330000	48.270000	606.000000	0.000000	145.000000	56.000000	95.000000	45.000000
2.050000	110.900000	48.770000	620.000000	0.000000	147.000000	56.000000	57.000000	50.000000
2.060000	111.230000	49.230000	613.000000	0.000000	149.000000	56.000000	33.000000	46.000000
2.070000	111.050000	49.730000	636.000000	0.000000	149.000000	56.000000	-18.000000	50.000000
2.080000	110.590000	49.970000	664.000000	0.000000	151.000000	56.000000	-46.000000	24.000000
2.090000	109.930000	50.030000	630.000000	0.000000	151.000000	56.000000	-66.000000	6.000000
2.100000	109.410000	49.870000	550.000000	0.000000	152.000000	57.000000	-52.000000	-16.000000
2.110000	109.230000	49.710000	155.000000	0.000000	153.000000	56.000000	-18.000000	-16.000000
2.120000	109.230000	49.710000	0.000000	1.000000	153.000000	56.000000	0.000000	0.000000
2.130000	109.410000	49.440000	0.000000	0.000000	153.000000	56.000000	18.000000	-27.000000
2.140000	109.300000	49.500000	0.000000	0.000000	153.000000	56.000000	-11.000000	6.000000
2.150000	109.020000	49.680000	0.000000	0.000000	153.000000	56.000000	-28.000000	18.000000
2.160000	108.910000	49.680000	0.000000	0.000000	152.000000	57.000000	-11.000000	0.000000
2.170000	108.590000	49.680000	0.000000	0.000000	154.000000	57.000000	-32.000000	0.000000
2.180000	108.140000	49.610000	0.000000	0.000000	155.000000	58.000000	-45.000000	-7.000000
2.190000	107.490000	49.520000	0.000000	0.000000	154.000000	58.000000	-65.000000	-9.000000
