t	x	y	pressure	penup	azimuth	inclination	v_x	v_y
0.000000	50.060000	17.680000	29.000000	1.000000	131.000000	56.000000	0.000000	0.000000
0.010000	51.100000	17.750000	93.000000	0.000000	132.000000	55.000000	104.000000	7.000000
0.020000	51.360000	17.950000	139.000000	0.000000	132.000000	55.000000	26.000000	20.000000
0.030000	51.470000	18.250000	277.000000	0.000000	132.000000	55.000000	11.000000	30.000000
0.040000	51.470000	18.320000	446.000000	0.000000	134.000000	55.000000	0.000000	7.000000
0.050000	51.360000	18.320000	481.000000	0.000000	134.000000	55.000000	-11.000000	0.000000
0.060000	51.080000	18.390000	492.000000	0.000000	134.000000	55.000000	-28.000000	7.000000
0.070000	50.390000	18.120000	501.000000	0.000000	136.000000	55.000000	-69.000000	-27.000000
0.080000	49.700000	17.810000	499.000000	0.000000	136.000000	55.000000	-69.000000	-31.000000
0.090000	49.010000	17.440000	496.000000	0.000000	136.000000	55.000000	-69.000000	-37.000000
0.100000	48.690000	17.150000	493.000000	0.000000	136.000000	55.000000	-32.000000	-29.000000
0.110000	48.760000	16.900000	493.000000	0.000000	136.000000	55.000000	7.000000	-25.000000
0.120000	49.100000	16.660000	493.000000	0.000000	136.000000	55.000000	34.000000	-24.000000
0.130000	49.820000	16.490000	495.000000	0.000000	136.000000	55.000000	72.000000	-17.000000
0.140000	50.650000	16.360000	495.000000	0.000000	137.000000	54.000000	83.000000	-13.000000
0.150000	51.560000	16.080000	493.000000	0.000000	137.000000	54.000000	91.000000	-28.000000
0.160000	52.130000	15.750000	499.000000	0.000000	137.000000	54.000000	57.000000	-33.000000
0.170000	52.270000	15.360000	546.000000	0.000000	137.000000	54.000000	14.000000	-39.000000
0.180000	52.110000	14.980000	625.000000	0.000000	137.000000	54.000000	-16.000000	-38.000000
0.190000	51.250000	14.520000	684.000000	0.000000	136.000000	55.000000	-86.000000	-46.000000
0.200000	50.240000	14.010000	727.000000	0.000000	136.000000	55.000000	-101.000000	-51.000000
0.210000	49.130000	13.630000	740.000000	0.000000	135.000000	55.000000	-111.000000	-38.000000
0.220000	48.390000	13.570000	746.000000	0.000000	132.000000	57.000000	-74.000000	-6.000000
0.230000	48.270000	13.730000	728.000000	0.000000	131.000000	57.000000	-12.000000	16.000000
0.240000	48.550000	14.030000	696.000000	0.000000	132.000000	58.000000	28.000000	30.000000
0.250000	49.170000	14.390000	691.000000	0.000000	131.000000	58.000000	62.000000	36.000000
0.260000	49.990000	14.780000	666.000000	0.000000	131.000000	58.000000	82.000000	39.000000
0.270000	50.940000	15.160000	673.000000	0.000000	131.000000	58.000000	95.000000	38.000000
0.280000	51.910000	15.600000	671.000000	0.000000	132.000000	58.000000	97.000000	44.000000
0.290000	52.790000	16.070000	673.000000	0.000000	132.000000	57.000000	88.000000	47.000000
0.300000	53.610000	16.520000	671.000000	0.000000	134.000000	56.000000	82.000000	45.000000
0.310000	54.040000	16.910000	662.000000	0.000000	135.000000	55.000000	43.000000	39.000000
0.320000	54.140000	17.050000	669.000000	0.000000	134.000000	55.000000	10.000000	14.000000
0.330000	54.030000	17.050000	669.000000	0.000000	135.000000	54.000000	-11.000000	0.000000
0.340000	53.600000	16.780000	693.000000	0.000000	135.000000	54.000000	-43.000000	-27.000000
0.350000	52.870000	16.220000	687.000000	0.000000	135.000000	54.000000	-73.000000	-56.000000
0.360000	51.930000	15.470000	687.000000	0.000000	134.000000	54.000000	-94.000000	-75.000000
0.370000	51.560000	14.870000	667.000000	0.000000	135.000000	54.000000	-37.000000	-60.000000
0.380000	51.450000	14.480000	668.000000	0.000000	134.000000	55.000000	-11.000000	-39.000000
0.390000	51.520000	14.220000	658.000000	0.000000	134.000000	55.000000	7.000000	-26.000000
0.400000	51.920000	14.220000	652.000000	0.000000	132.000000	55.000000	40.000000	0.000000
0.410000	52.550000	14.540000	641.000000	0.000000	132.000000	55.000000	63.000000	32.000000
0.420000	53.330000	15.090000	644.000000	0.000000	130.000000	55.000000	78.000000	55.000000
0.430000	54.020000	15.740000	644.000000	0.000000	130.000000	55.000000	69.000000	65.000000
0.440000	54.500000	16.370000	646.000000	0.000000	130.000000	55.000000	48.000000	63.000000
0.450000	54.850000	16.970000	664.000000	0.000000	131.000000	55.000000	35.000000	60.000000
0.460000	54.850000	17.200000	681.000000	0.000000	131.000000	55.000000	0.000000	23.000000
0.470000	54.850000	17.200000	690.000000	0.000000	133.000000	54.000000	0.000000	0.000000
0.480000	54.690000	16.940000	702.000000	0.000000	133.000000	54.000000	-16.000000	-26.000000
0.490000	54.520000	16.500000	697.000000	0.000000	135.000000	54.000000	-17.000000	-44.000000
0.500000	54.400000	15.930000	699.000000	0.000000	135.000000	54.000000	-12.000000	-57.000000
0.510000	54.480000	15.530000	690.000000	0.000000	135.000000	54.000000	8.000000	-40.000000
0.520000	54.670000	15.310000	694.000000	0.000000	135.000000	54.000000	19.000000	-22.000000
0.530000	54.980000	15.220000	696.000000	0.000000	134.000000	54.000000	31.000000	-9.000000
0.540000	55.270000	15.340000	688.000000	0.000000	134.000000	54.000000	29.000000	12.000000
0.550000	55.550000	15.660000	681.000000	0.000000	135.000000	54.000000	28.000000	32.000000
0.560000	55.830000	16.110000	673.000000	0.000000	135.000000	54.000000	28.000000	45.000000
0.570000	55.960000	16.470000	646.000000	0.000000	135.000000	54.000000	13.000000	36.000000
0.580000	55.960000	16.810000	639.000000	0.000000	135.000000	54.000000	0.000000	34.000000
0.590000	55.960000	16.810000	636.000000	0.000000	136.000000	54.000000	0.000000	0.000000
0.600000	55.960000	16.810000	641.000000	0.000000	136.000000	54.000000	0.000000	0.000000
0.610000	56.070000	16.290000	637.000000	0.000000	139.000000	54.000000	11.000000	-52.000000
0.620000	56.120000	15.890000	661.000000	0.000000	139.000000	54.000000	5.000000	-40.000000
0.630000	56.220000	15.660000	678.000000	0.000000	139.000000	54.000000	10.000000	-23.000000
0.640000	56.330000	15.570000	693.000000	0.000000	139.000000	54.000000	11.000000	-9.000000
0.650000	56.470000	15.520000	697.000000	0.000000	139.000000	54.000000	14.000000	-5.000000
0.660000	56.520000	15.570000	711.000000	0.000000	137.000000	54.000000	5.000000	5.000000
0.670000	56.520000	15.680000	717.000000	0.000000	137.000000	54.000000	0.000000	11.000000
0.680000	56.670000	16.050000	714.000000	0.000000	137.000000	54.000000	15.000000	37.000000
0.690000	56.770000	16.220000	716.000000	0.000000	137.000000	54.000000	10.000000	17.000000
0.700000	56.840000	16.220000	719.000000	0.000000	137.000000	54.000000	7.000000	0.000000
0.710000	56.910000	16.000000	722.000000	0.000000	139.000000	55.000000	7.000000	-22.000000
0.720000	57.040000	15.730000	717.000000	0.000000	139.000000	55.000000	13.000000	-27.000000
0.730000	57.280000	15.450000	716.000000	0.000000	140.000000	54.000000	24.000000	-28.000000
0.740000	57.810000	15.500000	713.000000	0.000000	140.000000	54.000000	53.000000	5.000000
0.750000	58.530000	15.750000	694.000000	0.000000	140.000000	54.000000	72.000000	25.000000
0.760000	59.060000	16.270000	687.000000	0.000000	141.000000	55.000000	53.000000	52.000000
0.770000	59.310000	16.790000	664.000000	0.000000	140.000000	55.000000	25.000000	52.000000
0.780000	59.360000	17.400000	562.000000	0.000000	140.000000	55.000000	5.000000	61.000000
0.790000	59.170000	18.090000	443.000000	0.000000	140.000000	55.000000	-19.000000	69.000000
0.800000	58.830000	18.890000	149.000000	0.000000	140.000000	55.000000	-34.000000	80.000000
0.810000	58.390000	19.910000	13.000000	1.000000	140.000000	55.000000	0.000000	0.000000
0.820000	58.050000	21.080000	160.000000	1.000000	141.000000	55.000000	0.000000	0.000000
0.830000	57.980000	21.660000	286.000000	0.000000	141.000000	55.000000	-7.000000	58.000000
0.840000	58.080000	21.820000	418.000000	0.000000	142.000000	54.000000	10.000000	16.000000
0.850000	58.160000	21.700000	545.000000	0.000000	141.000000	53.000000	8.000000	-12.000000
0.860000	58.280000	21.350000	668.000000	0.000000	141.000000	53.000000	12.000000	-35.000000
0.870000	58.460000	20.700000	707.000000	0.000000	140.000000	53.000000	18.000000	-65.000000
0.880000	58.670000	19.860000	724.000000	0.000000	141.000000	52.000000	21.000000	-84.000000
0.890000	58.930000	18.890000	727.000000	0.000000	140.000000	52.000000	26.000000	-97.000000
0.900000	59.160000	17.920000	728.000000	0.000000	140.000000	53.000000	23.000000	-97.000000
0.910000	59.360000	17.110000	696.000000	0.000000	140.000000	53.000000	20.000000	-81.000000
0.920000	59.360000	16.410000	628.000000	0.000000	140.000000	53.000000	0.000000	-70.000000
0.930000	59.300000	16.040000	561.000000	0.000000	141.000000	53.000000	-6.000000	-37.000000
0.940000	59.200000	15.740000	522.000000	0.000000	140.000000	54.000000	-10.000000	-30.000000
0.950000	58.990000	15.500000	441.000000	0.000000	140.000000	54.000000	-21.000000	-24.000000
0.960000	58.770000	15.500000	407.000000	0.000000	141.000000	55.000000	-22.000000	0.000000
0.970000	58.550000	15.770000	425.000000	0.000000	140.000000	55.000000	-22.000000	27.000000
0.980000	58.500000	16.130000	465.000000	0.000000	140.000000	55.000000	-5.000000	36.000000
0.990000	58.500000	16.130000	544.000000	0.000000	140.000000	55.000000	0.000000	0.000000
1.000000	58.500000	16.130000	575.000000	0.000000	140.000000	55.000000	0.000000	0.000000
1.010000	58.840000	16.110000	611.000000	0.000000	140.000000	54.000000	34.000000	-2.000000
1.020000	59.220000	16.040000	628.000000	0.000000	140.000000	54.000000	38.000000	-7.000000
1.030000	59.650000	16.150000	647.000000	0.000000	140.000000	54.000000	43.000000	11.000000
1.040000	60.300000	16.390000	652.000000	0.000000	140.000000	54.000000	65.000000	24.000000
1.050000	61.070000	16.840000	652.000000	0.000000	140.000000	54.000000	77.000000	45.000000
1.060000	61.770000	17.320000	636.000000	0.000000	140.000000	54.000000	70.000000	48.000000
1.070000	62.240000	17.830000	645.000000	0.000000	140.000000	54.000000	47.000000	51.000000
1.080000	62.550000	18.120000	667.000000	0.000000	140.000000	54.000000	31.000000	29.000000
1.090000	62.500000	18.120000	716.000000	0.000000	140.000000	54.000000	-5.000000	0.000000
1.100000	62.210000	17.890000	774.000000	0.000000	140.000000	54.000000	-29.000000	-23.000000
1.110000	61.760000	17.430000	787.000000	0.000000	139.000000	55.000000	-45.000000	-46.000000
1.120000	61.420000	16.950000	794.000000	0.000000	139.000000	55.000000	-34.000000	-48.000000
1.130000	61.420000	16.450000	794.000000	0.000000	139.000000	55.000000	0.000000	-50.000000
1.140000	61.530000	16.080000	790.000000	0.000000	139.000000	55.000000	11.000000	-37.000000
1.150000	61.840000	15.790000	791.000000	0.000000	139.000000	55.000000	31.000000	-29.000000
1.160000	62.350000	15.710000	757.000000	0.000000	139.000000	55.000000	51.000000	-8.000000
1.170000	62.980000	15.870000	619.000000	0.000000	137.000000	54.000000	63.000000	16.000000
1.180000	63.340000	16.200000	369.000000	0.000000	137.000000	54.000000	36.000000	33.000000
1.190000	63.340000	16.200000	0.000000	1.000000	137.000000	54.000000	0.000000	0.000000
1.200000	63.340000	17.060000	0.000000	0.000000	137.000000	54.000000	0.000000	86.000000
1.210000	63.000000	17.600000	0.000000	0.000000	137.000000	54.000000	-34.000000	54.000000
1.220000	62.580000	18.260000	0.000000	0.000000	137.000000	54.000000	-42.000000	66.000000
1.230000	62.580000	18.260000	272.000000	1.000000	137.000000	54.000000	0.000000	0.000000
1.240000	61.880000	19.270000	371.000000	0.000000	137.000000	54.000000	-70.000000	101.000000
1.250000	61.660000	19.550000	386.000000	0.000000	140.000000	54.000000	-22.000000	28.000000
1.260000	61.740000	19.650000	394.000000	0.000000	140.000000	54.000000	8.000000	10.000000
1.270000	62.010000	19.730000	361.000000	0.000000	140.000000	54.000000	27.000000	8.000000
1.280000	62.010000	19.730000	0.000000	1.000000	140.000000	54.000000	0.000000	0.000000
1.290000	63.240000	19.730000	0.000000	0.000000	140.000000	54.000000	123.000000	0.000000
1.300000	63.760000	19.730000	0.000000	0.000000	140.000000	53.000000	52.000000	0.000000
1.310000	64.210000	19.780000	0.000000	0.000000	140.000000	53.000000	45.000000	5.000000
1.320000	64.710000	19.780000	0.000000	0.000000	140.000000	53.000000	50.000000	0.000000
1.330000	65.420000	19.780000	0.000000	0.000000	141.000000	53.000000	71.000000	0.000000
1.340000	66.270000	19.620000	0.000000	0.000000	141.000000	53.000000	85.000000	-16.000000
1.350000	67.350000	19.400000	0.000000	0.000000	142.000000	54.000000	108.000000	-22.000000
1.360000	68.200000	19.150000	0.000000	0.000000	144.000000	54.000000	85.000000	-25.000000
1.370000	68.900000	18.910000	0.000000	0.000000	143.000000	55.000000	70.000000	-24.000000
1.380000	68.580000	18.670000	0.000000	0.000000	144.000000	56.000000	-32.000000	-24.000000
1.390000	67.890000	18.170000	0.000000	0.000000	144.000000	56.000000	-69.000000	-50.000000
1.400000	66.950000	17.630000	0.000000	0.000000	143.000000	56.000000	-94.000000	-54.000000
1.410000	65.920000	17.220000	0.000000	0.000000	143.000000	56.000000	-103.000000	-41.000000
1.420000	65.410000	16.920000	0.000000	0.000000	144.000000	56.000000	-51.000000	-30.000000
1.430000	65.240000	16.740000	0.000000	0.000000	143.000000	55.000000	-17.000000	-18.000000
1.440000	65.150000	16.690000	0.000000	0.000000	142.000000	54.000000	-9.000000	-5.000000
1.450000	65.220000	16.690000	0.000000	0.000000	142.000000	54.000000	7.000000	0.000000
1.460000	65.390000	16.920000	0.000000	0.000000	141.000000	53.000000	17.000000	23.000000
1.470000	65.450000	17.160000	0.000000	0.000000	142.000000	53.000000	6.000000	24.000000
1.480000	65.300000	17.420000	0.000000	0.000000	142.000000	53.000000	-15.000000	26.000000
1.490000	65.020000	17.580000	0.000000	0.000000	141.000000	53.000000	-28.000000	16.000000
1.500000	65.020000	17.690000	0.000000	0.000000	140.000000	53.000000	0.000000	11.000000
1.510000	65.020000	17.690000	179.000000	1.000000	140.000000	53.000000	0.000000	0.000000
1.520000	64.200000	17.690000	297.000000	0.000000	139.000000	54.000000	-82.000000	0.000000
1.530000	63.950000	17.770000	407.000000	0.000000	137.000000	54.000000	-25.000000	8.000000
1.540000	63.740000	17.860000	458.000000	0.000000	136.000000	54.000000	-21.000000	9.000000
1.550000	63.740000	17.860000	502.000000	0.000000	136.000000	54.000000	0.000000	0.000000
1.560000	63.740000	17.860000	518.000000	0.000000	136.000000	54.000000	0.000000	0.000000
1.570000	63.690000	17.790000	527.000000	0.000000	136.000000	54.000000	-5.000000	-7.000000
1.580000	63.580000	17.510000	537.000000	0.000000	137.000000	53.000000	-11.000000	-28.000000
1.590000	63.440000	17.100000	533.000000	0.000000	137.000000	53.000000	-14.000000	-41.000000
1.600000	63.600000	16.750000	530.000000	0.000000	136.000000	52.000000	16.000000	-35.000000
1.610000	64.150000	16.680000	516.000000	0.000000	136.000000	52.000000	55.000000	-7.000000
1.620000	64.950000	16.800000	502.000000	0.000000	136.000000	52.000000	80.000000	12.000000
1.630000	66.030000	17.260000	477.000000	0.000000	137.000000	53.000000	108.000000	46.000000
1.640000	66.800000	17.700000	466.000000	0.000000	137.000000	53.000000	77.000000	44.000000
1.650000	67.370000	18.140000	460.000000	0.000000	137.000000	53.000000	57.000000	44.000000
1.660000	67.430000	18.350000	460.000000	0.000000	139.000000	54.000000	6.000000	21.000000
1.670000	67.290000	18.510000	491.000000	0.000000	140.000000	53.000000	-14.000000	16.000000
1.680000	67.020000	18.580000	501.000000	0.000000	140.000000	53.000000	-27.000000	7.000000
1.690000	66.740000	18.580000	505.000000	0.000000	141.000000	53.000000	-28.000000	0.000000
1.700000	66.670000	18.580000	502.000000	0.000000	141.000000	53.000000	-7.000000	0.000000
1.710000	66.750000	18.520000	504.000000	0.000000	141.000000	53.000000	8.000000	-6.000000
1.720000	66.750000	18.390000	507.000000	0.000000	141.000000	53.000000	0.000000	-13.000000
1.730000	66.890000	18.170000	509.000000	0.000000	141.000000	53.000000	14.000000	-22.000000
1.740000	67.090000	17.900000	512.000000	0.000000	141.000000	53.000000	20.000000	-27.000000
1.750000	67.360000	17.810000	520.000000	0.000000	141.000000	53.000000	27.000000	-9.000000
1.760000	67.660000	17.810000	512.000000	0.000000	141.000000	53.000000	30.000000	0.000000
1.770000	68.030000	17.970000	520.000000	0.000000	141.000000	53.000000	37.000000	16.000000
1.780000	68.530000	18.220000	501.000000	0.000000	141.000000	53.000000	50.000000	25.000000
1.790000	69.030000	18.460000	409.000000	0.000000	142.000000	54.000000	50.000000	24.000000
1.800000	69.480000	18.700000	247.000000	0.000000	142.000000	54.000000	45.000000	24.000000
1.810000	69.750000	18.750000	8.000000	1.000000	142.000000	54.000000	0.000000	0.000000
1.820000	69.750000	18.750000	0.000000	0.000000	144.000000	54.000000	0.000000	0.000000
1.830000	69.990000	18.510000	0.000000	0.000000	144.000000	54.000000	24.000000	-24.000000
1.840000	69.990000	18.510000	0.000000	0.000000	145.000000	55.000000	0.000000	0.000000
1.850000	70.320000	18.460000	0.000000	0.000000	145.000000	55.000000	33.000000	-5.000000
1.860000	70.730000	18.460000	0.000000	0.000000	145.000000	55.000000	41.000000	0.000000
1.870000	71.120000	18.510000	0.000000	0.000000	145.000000	55.000000	39.000000	5.000000
1.880000	71.120000	18.510000	127.000000	1.000000	145.000000	55.000000	0.000000	0.000000
1.890000	71.120000	18.510000	245.000000	0.000000	145.000000	55.000000	0.000000	0.000000
1.900000	71.120000	18.510000	325.000000	0.000000	145.000000	55.000000	0.000000	0.000000
1.910000	71.120000	18.510000	333.000000	0.000000	145.000000	55.000000	0.000000	0.000000
1.920000	70.950000	18.800000	351.000000	0.000000	145.000000	55.000000	-17.000000	29.000000
1.930000	71.000000	18.800000	346.000000	0.000000	145.000000	55.000000	5.000000	0.000000
1.940000	71.080000	18.870000	344.000000	0.000000	145.000000	55.000000	8.000000	7.000000
1.950000	71.220000	18.950000	349.000000	0.000000	145.000000	55.000000	14.000000	8.000000
1.960000	71.360000	19.040000	359.000000	0.000000	145.000000	55.000000	14.000000	9.000000
1.970000	71.360000	19.100000	431.000000	0.000000	145.000000	55.000000	0.000000	6.000000
1.980000	71.360000	19.100000	473.000000	0.000000	145.000000	55.000000	0.000000	0.000000
1.990000	71.160000	19.100000	483.000000	0.000000	146.000000	54.000000	-20.000000	0.000000
2.000000	70.950000	19.050000	493.000000	0.000000	146.000000	54.000000	-21.000000	-5.000000
2.010000	70.700000	18.900000	491.000000	0.000000	146.000000	54.000000	-25.000000	-15.000000
2.020000	70.620000	18.700000	481.000000	0.000000	146.000000	54.000000	-8.000000	-20.000000
2.030000	70.750000	18.400000	464.000000	0.000000	145.000000	55.000000	13.000000	-30.000000
2.040000	71.020000	17.650000	469.000000	0.000000	145.000000	55.000000	27.000000	-75.000000
2.050000	71.480000	16.620000	464.000000	0.000000	145.000000	55.000000	46.000000	-103.000000
2.060000	71.720000	15.200000	491.000000	0.000000	144.000000	56.000000	24.000000	-142.000000
2.070000	71.810000	13.980000	543.000000	0.000000	143.000000	56.000000	9.000000	-122.000000
2.080000	71.450000	12.900000	710.000000	0.000000	140.000000	58.000000	-36.000000	-108.000000
2.090000	70.930000	12.170000	834.000000	0.000000	139.000000	58.000000	-52.000000	-73.000000
2.100000	70.300000	11.920000	927.000000	0.000000	138.000000	60.000000	-63.000000	-25.000000
2.110000	69.780000	11.990000	952.000000	0.000000	135.000000	62.000000	-52.000000	7.000000
2.120000	69.290000	12.390000	940.000000	0.000000	133.000000	62.000000	-49.000000	40.000000
2.130000	69.290000	13.160000	897.000000	0.000000	130.000000	63.000000	0.000000	77.000000
2.140000	69.540000	14.170000	870.000000	0.000000	130.000000	63.000000	25.000000	101.000000
2.150000	70.210000	15.260000	855.000000	0.000000	130.000000	63.000000	67.000000	109.000000
2.160000	71.020000	16.030000	854.000000	0.000000	132.000000	63.000000	81.000000	77.000000
2.170000	71.910000	16.580000	869.000000	0.000000	133.000000	62.000000	89.000000	55.000000
2.180000	72.460000	17.010000	843.000000	0.000000	136.000000	61.000000	55.000000	43.000000
2.190000	72.810000	17.290000	817.000000	0.000000	136.000000	60.000000	35.000000	28.000000
2.200000	73.030000	17.480000	725.000000	0.000000	138.000000	59.000000	22.000000	19.000000
