t	x	y	pressure	penup	azimuth	inclination	v_x	v_y
0.000000	90.270000	11.380000	91.000000	1.000000	153.000000	55.000000	0.000000	0.000000
0.010000	90.270000	11.380000	173.000000	0.000000	153.000000	55.000000	0.000000	0.000000
0.020000	90.270000	11.380000	260.000000	0.000000	152.000000	56.000000	0.000000	0.000000
0.030000	90.270000	11.380000	344.000000	0.000000	153.000000	56.000000	0.000000	0.000000
0.040000	90.270000	11.380000	423.000000	0.000000	153.000000	56.000000	0.000000	0.000000
0.050000	91.150000	11.480000	477.000000	0.000000	152.000000	57.000000	88.000000	10.000000
0.060000	92.270000	11.940000	494.000000	0.000000	152.000000	57.000000	112.000000	46.000000
0.070000	94.020000	12.710000	502.000000	0.000000	152.000000	57.000000	175.000000	77.000000
0.080000	95.910000	13.600000	490.000000	0.000000	153.000000	56.000000	189.000000	89.000000
0.090000	97.900000	14.580000	481.000000	0.000000	153.000000	56.000000	199.000000	98.000000
0.100000	99.740000	15.560000	480.000000	0.000000	154.000000	55.000000	184.000000	98.000000
0.110000	100.860000	16.200000	493.000000	0.000000	156.000000	53.000000	112.000000	64.000000
0.120000	101.490000	16.620000	533.000000	0.000000	158.000000	52.000000	63.000000	42.000000
0.130000	101.430000	16.560000	561.000000	0.000000	160.000000	50.000000	-6.000000	-6.000000
0.140000	100.870000	16.440000	585.000000	0.000000	161.000000	49.000000	-56.000000	-12.000000
0.150000	99.980000	15.980000	595.000000	0.000000	162.000000	48.000000	-89.000000	-46.000000
0.160000	98.030000	15.310000	594.000000	0.000000	162.000000	47.000000	-195.000000	-67.000000
0.170000	95.660000	14.380000	577.000000	0.000000	162.000000	47.000000	-237.000000	-93.000000
0.180000	93.000000	13.040000	542.000000	0.000000	162.000000	48.000000	-266.000000	-134.000000
0.190000	89.940000	11.430000	539.000000	0.000000	161.000000	49.000000	-306.000000	-161.000000
0.200000	86.920000	9.910000	556.000000	0.000000	159.000000	50.000000	-302.000000	-152.000000
0.210000	83.930000	8.640000	563.000000	0.000000	156.000000	51.000000	-299.000000	-127.000000
0.220000	82.640000	7.540000	565.000000	0.000000	153.000000	53.000000	-129.000000	-110.000000
0.230000	82.640000	6.940000	567.000000	0.000000	150.000000	54.000000	0.000000	-60.000000
0.240000	83.600000	6.810000	606.000000	0.000000	149.000000	55.000000	96.000000	-13.000000
0.250000	85.400000	7.000000	644.000000	0.000000	146.000000	55.000000	180.000000	19.000000
0.260000	88.240000	7.820000	684.000000	0.000000	146.000000	55.000000	284.000000	82.000000
0.270000	91.760000	8.780000	697.000000	0.000000	146.000000	55.000000	352.000000	96.000000
0.280000	95.680000	9.840000	691.000000	0.000000	146.000000	55.000000	392.000000	106.000000
0.290000	99.470000	10.910000	656.000000	0.000000	149.000000	55.000000	379.000000	107.000000
0.300000	103.180000	12.120000	595.000000	0.000000	151.000000	54.000000	371.000000	121.000000
0.310000	106.570000	13.420000	541.000000	0.000000	154.000000	53.000000	339.000000	130.000000
0.320000	109.400000	14.350000	517.000000	0.000000	157.000000	52.000000	283.000000	93.000000
0.330000	111.860000	14.910000	497.000000	0.000000	159.000000	49.000000	246.000000	56.000000
0.340000	113.410000	15.220000	504.000000	0.000000	161.000000	46.000000	155.000000	31.000000
0.350000	114.210000	15.380000	519.000000	0.000000	163.000000	44.000000	80.000000	16.000000
0.360000	114.520000	15.380000	512.000000	0.000000	165.000000	41.000000	31.000000	0.000000
0.370000	114.420000	15.280000	422.000000	0.000000	166.000000	38.000000	-10.000000	-10.000000
0.380000	113.840000	15.180000	282.000000	0.000000	167.000000	36.000000	-58.000000	-10.000000
0.390000	113.840000	15.180000	0.000000	1.000000	167.000000	34.000000	0.000000	0.000000
0.400000	111.550000	14.660000	0.000000	0.000000	167.000000	34.000000	-229.000000	-52.000000
0.410000	109.470000	14.250000	0.000000	0.000000	167.000000	34.000000	-208.000000	-41.000000
0.420000	106.930000	13.850000	0.000000	0.000000	167.000000	34.000000	-254.000000	-40.000000
0.430000	103.730000	13.410000	0.000000	0.000000	167.000000	35.000000	-320.000000	-44.000000
0.440000	100.440000	12.710000	0.000000	0.000000	167.000000	36.000000	-329.000000	-70.000000
0.450000	97.100000	11.860000	0.000000	0.000000	166.000000	38.000000	-334.000000	-85.000000
0.460000	95.000000	10.950000	0.000000	0.000000	166.000000	39.000000	-210.000000	-91.000000
0.470000	93.450000	10.350000	0.000000	0.000000	166.000000	41.000000	-155.000000	-60.000000
0.480000	92.260000	9.960000	0.000000	0.000000	164.000000	43.000000	-119.000000	-39.000000
0.490000	91.400000	9.720000	0.000000	0.000000	162.000000	45.000000	-86.000000	-24.000000
0.500000	91.040000	9.720000	0.000000	0.000000	160.000000	46.000000	-36.000000	0.000000
0.510000	91.040000	9.840000	0.000000	0.000000	159.000000	48.000000	0.000000	12.000000
0.520000	91.170000	10.100000	0.000000	0.000000	156.000000	50.000000	13.000000	26.000000
0.530000	91.510000	10.460000	0.000000	0.000000	155.000000	50.000000	34.000000	36.000000
0.540000	91.980000	10.900000	0.000000	0.000000	155.000000	51.000000	47.000000	44.000000
0.550000	92.350000	11.280000	0.000000	0.000000	153.000000	52.000000	37.000000	38.000000
0.560000	92.520000	11.660000	0.000000	0.000000	153.000000	52.000000	17.000000	38.000000
0.570000	92.520000	11.800000	0.000000	0.000000	153.000000	53.000000	0.000000	14.000000
0.580000	92.520000	11.800000	139.000000	1.000000	153.000000	53.000000	0.000000	0.000000
0.590000	92.090000	11.750000	215.000000	0.000000	153.000000	53.000000	-43.000000	-5.000000
0.600000	91.570000	11.490000	335.000000	0.000000	153.000000	54.000000	-52.000000	-26.000000
0.610000	91.000000	11.060000	387.000000	0.000000	153.000000	54.000000	-57.000000	-43.000000
0.620000	90.380000	10.520000	449.000000	0.000000	153.000000	55.000000	-62.000000	-54.000000
0.630000	89.730000	10.040000	466.000000	0.000000	153.000000	55.000000	-65.000000	-48.000000
0.640000	89.380000	9.610000	474.000000	0.000000	152.000000	56.000000	-35.000000	-43.000000
0.650000	89.270000	9.310000	472.000000	0.000000	152.000000	56.000000	-11.000000	-30.000000
0.660000	89.330000	9.130000	495.000000	0.000000	150.000000	55.000000	6.000000	-18.000000
0.670000	89.680000	9.020000	504.000000	0.000000	150.000000	55.000000	35.000000	-11.000000
0.680000	90.230000	9.090000	522.000000	0.000000	150.000000	55.000000	55.000000	7.000000
0.690000	90.920000	9.360000	518.000000	0.000000	149.000000	55.000000	69.000000	27.000000
0.700000	91.690000	9.770000	518.000000	0.000000	149.000000	55.000000	77.000000	41.000000
0.710000	92.240000	10.230000	517.000000	0.000000	150.000000	55.000000	55.000000	46.000000
0.720000	92.630000	10.820000	505.000000	0.000000	150.000000	55.000000	39.000000	59.000000
0.730000	92.840000	11.500000	510.000000	0.000000	150.000000	55.000000	21.000000	68.000000
0.740000	92.840000	12.060000	522.000000	0.000000	152.000000	56.000000	0.000000	56.000000
0.750000	92.670000	12.230000	512.000000	0.000000	152.000000	56.000000	-17.000000	17.000000
0.760000	92.670000	12.230000	515.000000	0.000000	152.000000	56.000000	0.000000	0.000000
0.770000	92.320000	11.630000	532.000000	0.000000	152.000000	56.000000	-35.000000	-60.000000
0.780000	91.940000	11.010000	537.000000	0.000000	150.000000	55.000000	-38.000000	-62.000000
0.790000	91.680000	10.330000	543.000000	0.000000	150.000000	55.000000	-26.000000	-68.000000
0.800000	91.610000	9.840000	532.000000	0.000000	150.000000	55.000000	-7.000000	-49.000000
0.810000	91.660000	9.540000	475.000000	0.000000	150.000000	55.000000	5.000000	-30.000000
0.820000	91.830000	9.360000	284.000000	0.000000	150.000000	55.000000	17.000000	-18.000000
0.830000	91.830000	9.360000	0.000000	1.000000	150.000000	55.000000	0.000000	0.000000
0.840000	92.660000	9.600000	0.000000	0.000000	150.000000	55.000000	83.000000	24.000000
0.850000	92.970000	10.060000	0.000000	0.000000	150.000000	55.000000	31.000000	46.000000
0.860000	93.160000	10.610000	0.000000	0.000000	151.000000	54.000000	19.000000	55.000000
0.870000	93.280000	11.160000	0.000000	0.000000	151.000000	54.000000	12.000000	55.000000
0.880000	93.380000	11.710000	0.000000	0.000000	151.000000	54.000000	10.000000	55.000000
0.890000	93.380000	11.710000	158.000000	1.000000	151.000000	54.000000	0.000000	0.000000
0.900000	93.380000	11.710000	246.000000	0.000000	152.000000	54.000000	0.000000	0.000000
0.910000	93.380000	11.710000	337.000000	0.000000	152.000000	54.000000	0.000000	0.000000
0.920000	93.380000	11.710000	374.000000	0.000000	151.000000	54.000000	0.000000	0.000000
0.930000	93.330000	11.230000	423.000000	0.000000	151.000000	54.000000	-5.000000	-48.000000
0.940000	93.400000	10.810000	422.000000	0.000000	151.000000	54.000000	7.000000	-42.000000
0.950000	93.460000	10.370000	433.000000	0.000000	151.000000	54.000000	6.000000	-44.000000
0.960000	93.560000	10.040000	436.000000	0.000000	151.000000	54.000000	10.000000	-33.000000
0.970000	93.650000	9.790000	435.000000	0.000000	151.000000	54.000000	9.000000	-25.000000
0.980000	93.700000	9.790000	443.000000	0.000000	151.000000	54.000000	5.000000	0.000000
0.990000	93.700000	9.790000	439.000000	0.000000	151.000000	54.000000	0.000000	0.000000
1.000000	93.700000	9.910000	447.000000	0.000000	151.000000	54.000000	0.000000	12.000000
1.010000	93.750000	10.190000	450.000000	0.000000	151.000000	54.000000	5.000000	28.000000
1.020000	93.820000	10.750000	468.000000	0.000000	151.000000	54.000000	7.000000	56.000000
1.030000	94.070000	11.250000	464.000000	0.000000	151.000000	54.000000	25.000000	50.000000
1.040000	94.330000	11.560000	464.000000	0.000000	151.000000	54.000000	26.000000	31.000000
1.050000	94.590000	11.770000	483.000000	0.000000	150.000000	54.000000	26.000000	21.000000
1.060000	94.830000	11.720000	486.000000	0.000000	150.000000	54.000000	24.000000	-5.000000
1.070000	95.090000	11.510000	491.000000	0.000000	148.000000	54.000000	26.000000	-21.000000
1.080000	95.360000	11.190000	509.000000	0.000000	148.000000	54.000000	27.000000	-32.000000
1.090000	95.660000	10.900000	522.000000	0.000000	148.000000	54.000000	30.000000	-29.000000
1.100000	95.970000	10.680000	537.000000	0.000000	147.000000	53.000000	31.000000	-22.000000
1.110000	96.590000	10.510000	544.000000	0.000000	147.000000	53.000000	62.000000	-17.000000
1.120000	97.270000	10.510000	536.000000	0.000000	148.000000	53.000000	68.000000	0.000000
1.130000	98.040000	10.720000	542.000000	0.000000	149.000000	53.000000	77.000000	21.000000
1.140000	98.480000	10.970000	551.000000	0.000000	149.000000	53.000000	44.000000	25.000000
1.150000	98.690000	11.220000	592.000000	0.000000	149.000000	53.000000	21.000000	25.000000
1.160000	98.690000	11.690000	609.000000	0.000000	151.000000	53.000000	0.000000	47.000000
1.170000	98.220000	12.300000	619.000000	0.000000	152.000000	53.000000	-47.000000	61.000000
1.180000	97.530000	12.630000	630.000000	0.000000	152.000000	53.000000	-69.000000	33.000000
1.190000	96.650000	12.630000	619.000000	0.000000	152.000000	53.000000	-88.000000	0.000000
1.200000	95.790000	12.470000	592.000000	0.000000	152.000000	53.000000	-86.000000	-16.000000
1.210000	95.000000	12.050000	473.000000	0.000000	151.000000	53.000000	-79.000000	-42.000000
1.220000	94.560000	11.730000	171.000000	0.000000	149.000000	53.000000	-44.000000	-32.000000
1.230000	94.560000	11.730000	0.000000	1.000000	149.000000	53.000000	0.000000	0.000000
1.240000	94.770000	11.610000	0.000000	0.000000	149.000000	53.000000	21.000000	-12.000000
1.250000	95.420000	12.080000	0.000000	0.000000	148.000000	53.000000	65.000000	47.000000
1.260000	96.200000	12.780000	0.000000	0.000000	148.000000	53.000000	78.000000	70.000000
1.270000	96.880000	13.340000	0.000000	0.000000	148.000000	53.000000	68.000000	56.000000
1.280000	97.480000	13.880000	0.000000	0.000000	150.000000	52.000000	60.000000	54.000000
1.290000	98.020000	14.400000	0.000000	0.000000	151.000000	51.000000	54.000000	52.000000
1.300000	98.480000	14.910000	0.000000	0.000000	153.000000	50.000000	46.000000	51.000000
1.310000	98.690000	15.350000	0.000000	0.000000	155.000000	49.000000	21.000000	44.000000
1.320000	98.690000	15.350000	254.000000	1.000000	156.000000	48.000000	0.000000	0.000000
1.330000	98.460000	15.600000	317.000000	0.000000	157.000000	48.000000	-23.000000	25.000000
1.340000	98.210000	15.540000	366.000000	0.000000	157.000000	48.000000	-25.000000	-6.000000
1.350000	97.990000	15.280000	435.000000	0.000000	157.000000	47.000000	-22.000000	-26.000000
1.360000	97.910000	14.900000	481.000000	0.000000	157.000000	48.000000	-8.000000	-38.000000
1.370000	97.860000	14.260000	491.000000	0.000000	157.000000	48.000000	-5.000000	-64.000000
1.380000	97.910000	13.510000	490.000000	0.000000	156.000000	48.000000	5.000000	-75.000000
1.390000	98.000000	12.680000	465.000000	0.000000	154.000000	50.000000	9.000000	-83.000000
1.400000	98.320000	12.100000	339.000000	0.000000	153.000000	51.000000	32.000000	-58.000000
1.410000	98.640000	11.730000	55.000000	0.000000	153.000000	51.000000	32.000000	-37.000000
1.420000	98.640000	11.730000	0.000000	1.000000	153.000000	52.000000	0.000000	0.000000
1.430000	99.070000	11.590000	0.000000	0.000000	154.000000	52.000000	43.000000	-14.000000
1.440000	99.120000	12.000000	0.000000	0.000000	154.000000	52.000000	5.000000	41.000000
1.450000	99.120000	12.620000	0.000000	0.000000	154.000000	52.000000	0.000000	62.000000
1.460000	99.120000	13.230000	0.000000	0.000000	155.000000	52.000000	0.000000	61.000000
1.470000	99.330000	13.800000	0.000000	0.000000	156.000000	51.000000	21.000000	57.000000
1.480000	99.330000	13.800000	198.000000	1.000000	156.000000	51.000000	0.000000	0.000000
1.490000	99.660000	14.350000	284.000000	0.000000	157.000000	51.000000	33.000000	55.000000
1.500000	99.600000	14.350000	363.000000	0.000000	157.000000	51.000000	-6.000000	0.000000
1.510000	99.600000	14.420000	425.000000	0.000000	155.000000	50.000000	0.000000	7.000000
1.520000	99.600000	14.180000	495.000000	0.000000	156.000000	50.000000	0.000000	-24.000000
1.530000	99.600000	13.770000	538.000000	0.000000	155.000000	50.000000	0.000000	-41.000000
1.540000	99.600000	13.080000	537.000000	0.000000	154.000000	50.000000	0.000000	-69.000000
1.550000	99.650000	12.490000	543.000000	0.000000	154.000000	50.000000	5.000000	-59.000000
1.560000	99.750000	11.970000	465.000000	0.000000	153.000000	51.000000	10.000000	-52.000000
1.570000	100.000000	11.670000	235.000000	0.000000	153.000000	51.000000	25.000000	-30.000000
1.580000	100.000000	11.670000	0.000000	1.000000	153.000000	51.000000	0.000000	0.000000
1.590000	100.710000	11.870000	0.000000	0.000000	153.000000	51.000000	71.000000	20.000000
1.600000	100.830000	12.450000	0.000000	0.000000	155.000000	51.000000	12.000000	58.000000
1.610000	100.780000	13.200000	0.000000	0.000000	155.000000	51.000000	-5.000000	75.000000
1.620000	100.510000	14.060000	0.000000	0.000000	155.000000	50.000000	-27.000000	86.000000
1.630000	100.290000	14.780000	0.000000	0.000000	156.000000	50.000000	-22.000000	72.000000
1.640000	100.090000	15.210000	0.000000	0.000000	157.000000	49.000000	-20.000000	43.000000
1.650000	100.090000	15.210000	132.000000	1.000000	158.000000	48.000000	0.000000	0.000000
1.660000	100.090000	15.560000	193.000000	0.000000	158.000000	47.000000	0.000000	35.000000
1.670000	100.090000	15.660000	217.000000	0.000000	158.000000	46.000000	0.000000	10.000000
1.680000	100.090000	15.570000	239.000000	0.000000	158.000000	46.000000	0.000000	-9.000000
1.690000	100.230000	15.370000	239.000000	0.000000	158.000000	46.000000	14.000000	-20.000000
1.700000	100.440000	15.050000	151.000000	0.000000	158.000000	46.000000	21.000000	-32.000000
1.710000	100.440000	15.050000	0.000000	1.000000	157.000000	47.000000	0.000000	0.000000
1.720000	101.260000	14.450000	0.000000	0.000000	158.000000	48.000000	82.000000	-60.000000
1.730000	101.530000	14.260000	0.000000	0.000000	158.000000	48.000000	27.000000	-19.000000
1.740000	101.630000	14.190000	0.000000	0.000000	158.000000	48.000000	10.000000	-7.000000
1.750000	101.630000	14.190000	0.000000	0.000000	158.000000	48.000000	0.000000	0.000000
1.760000	101.700000	14.240000	0.000000	0.000000	158.000000	48.000000	7.000000	5.000000
1.770000	101.790000	14.190000	0.000000	0.000000	158.000000	48.000000	9.000000	-5.000000
1.780000	101.790000	14.190000	168.000000	1.000000	158.000000	47.000000	0.000000	0.000000
1.790000	101.790000	14.190000	203.000000	0.000000	158.000000	47.000000	0.000000	0.000000
1.800000	101.920000	13.970000	280.000000	0.000000	158.000000	47.000000	13.000000	-22.000000
1.810000	101.840000	13.760000	320.000000	0.000000	158.000000	48.000000	-8.000000	-21.000000
1.820000	101.760000	13.480000	356.000000	0.000000	159.000000	48.000000	-8.000000	-28.000000
1.830000	101.640000	13.160000	374.000000	0.000000	158.000000	49.000000	-12.000000	-32.000000
1.840000	101.750000	12.860000	389.000000	0.000000	158.000000	49.000000	11.000000	-30.000000
1.850000	101.910000	12.640000	389.000000	0.000000	157.000000	50.000000	16.000000	-22.000000
1.860000	102.170000	12.470000	389.000000	0.000000	157.000000	50.000000	26.000000	-17.000000
1.870000	102.540000	12.570000	388.000000	0.000000	157.000000	51.000000	37.000000	10.000000
1.880000	102.970000	12.790000	396.000000	0.000000	157.000000	51.000000	43.000000	22.000000
1.890000	103.400000	13.100000	393.000000	0.000000	157.000000	51.000000	43.000000	31.000000
1.900000	103.640000	13.530000	398.000000	0.000000	157.000000	51.000000	24.000000	43.000000
1.910000	103.740000	14.010000	427.000000	0.000000	156.000000	50.000000	10.000000	48.000000
1.920000	103.660000	14.530000	448.000000	0.000000	156.000000	50.000000	-8.000000	52.000000
1.930000	103.510000	14.750000	440.000000	0.000000	157.000000	49.000000	-15.000000	22.000000
1.940000	103.310000	14.750000	477.000000	0.000000	157.000000	49.000000	-20.000000	0.000000
1.950000	103.080000	14.690000	475.000000	0.000000	157.000000	49.000000	-23.000000	-6.000000
1.960000	102.880000	14.510000	475.000000	0.000000	158.000000	48.000000	-20.000000	-18.000000
1.970000	102.790000	14.190000	481.000000	0.000000	158.000000	48.000000	-9.000000	-32.000000
1.980000	102.790000	13.770000	478.000000	0.000000	158.000000	48.000000	0.000000	-42.000000
1.990000	103.040000	13.490000	480.000000	0.000000	158.000000	48.000000	25.000000	-28.000000
2.000000	103.460000	13.290000	478.000000	0.000000	157.000000	49.000000	42.000000	-20.000000
2.010000	104.010000	13.150000	472.000000	0.000000	158.000000	49.000000	55.000000	-14.000000
2.020000	104.670000	13.200000	450.000000	0.000000	158.000000	49.000000	66.000000	5.000000
2.030000	105.400000	13.380000	418.000000	0.000000	158.000000	49.000000	73.000000	18.000000
2.040000	105.890000	13.650000	412.000000	0.000000	158.000000	49.000000	49.000000	27.000000
2.050000	106.200000	13.970000	412.000000	0.000000	159.000000	49.000000	31.000000	32.000000
2.060000	106.380000	14.390000	435.000000	0.000000	160.000000	48.000000	18.000000	42.000000
2.070000	106.460000	14.890000	469.000000	0.000000	161.000000	47.000000	8.000000	50.000000
2.080000	106.310000	15.290000	488.000000	0.000000	161.000000	47.000000	-15.000000	40.000000
2.090000	106.000000	15.510000	515.000000	0.000000	161.000000	46.000000	-31.000000	22.000000
2.100000	105.560000	15.620000	538.000000	0.000000	162.000000	46.000000	-44.000000	11.000000
2.110000	104.950000	15.620000	542.000000	0.000000	162.000000	45.000000	-61.000000	0.000000
2.120000	104.230000	15.430000	546.000000	0.000000	162.000000	45.000000	-72.000000	-19.000000
2.130000	103.720000	15.130000	546.000000	0.000000	162.000000	45.000000	-51.000000	-30.000000
2.140000	103.590000	14.860000	553.000000	0.000000	161.000000	44.000000	-13.000000	-27.000000
2.150000	103.720000	14.530000	554.000000	0.000000	161.000000	45.000000	13.000000	-33.000000
2.160000	104.200000	14.280000	551.000000	0.000000	161.000000	45.000000	48.000000	-25.000000
2.170000	105.030000	14.110000	515.000000	0.000000	159.000000	46.000000	83.000000	-17.000000
2.180000	106.100000	14.210000	398.000000	0.000000	159.000000	46.000000	107.000000	10.000000
2.190000	107.010000	14.470000	173.000000	0.000000	160.000000	46.000000	91.000000	26.000000
2.200000	107.010000	14.470000	0.000000	1.000000	160.000000	46.000000	0.000000	0.000000
