t	x	y	pressure	penup	azimuth	inclination	v_x	v_y
0.000000	17.710000	30.310000	55.000000	1.000000	159.000000	49.000000	0.000000	0.000000
0.010000	17.190000	30.180000	83.000000	0.000000	158.000000	49.000000	-52.000000	-13.000000
0.020000	16.840000	29.990000	100.000000	0.000000	157.000000	50.000000	-35.000000	-19.000000
0.030000	16.440000	29.690000	117.000000	0.000000	157.000000	50.000000	-40.000000	-30.000000
0.040000	16.080000	29.330000	119.000000	0.000000	159.000000	50.000000	-36.000000	-36.000000
0.050000	15.820000	28.940000	117.000000	0.000000	160.000000	50.000000	-26.000000	-39.000000
0.060000	15.820000	28.620000	122.000000	0.000000	160.000000	51.000000	0.000000	-32.000000
0.070000	15.870000	28.330000	117.000000	0.000000	162.000000	52.000000	5.000000	-29.000000
0.080000	16.180000	28.130000	93.000000	0.000000	163.000000	52.000000	31.000000	-20.000000
0.090000	16.680000	28.130000	63.000000	0.000000	163.000000	52.000000	50.000000	0.000000
0.100000	17.310000	28.330000	42.000000	0.000000	163.000000	52.000000	63.000000	20.000000
0.110000	17.790000	28.560000	22.000000	0.000000	163.000000	52.000000	48.000000	23.000000
0.120000	18.170000	28.850000	15.000000	0.000000	162.000000	52.000000	38.000000	29.000000
0.130000	18.480000	29.170000	3.000000	1.000000	160.000000	51.000000	0.000000	0.000000
0.140000	18.650000	29.480000	1.000000	0.000000	159.000000	51.000000	17.000000	31.000000
0.150000	18.650000	29.760000	8.000000	0.000000	158.000000	51.000000	0.000000	28.000000
0.160000	18.540000	29.980000	44.000000	1.000000	157.000000	51.000000	0.000000	0.000000
0.170000	18.360000	30.150000	60.000000	0.000000	156.000000	50.000000	-18.000000	17.000000
0.180000	18.180000	30.280000	94.000000	0.000000	156.000000	50.000000	-18.000000	13.000000
0.190000	18.030000	30.360000	108.000000	0.000000	156.000000	50.000000	-15.000000	8.000000
0.200000	17.910000	30.360000	120.000000	0.000000	156.000000	50.000000	-12.000000	0.000000
0.210000	17.850000	30.300000	119.000000	0.000000	156.000000	50.000000	-6.000000	-6.000000
0.220000	17.850000	30.180000	120.000000	0.000000	156.000000	50.000000	0.000000	-12.000000
0.230000	17.850000	29.910000	122.000000	0.000000	156.000000	50.000000	0.000000	-27.000000
0.240000	17.990000	29.560000	120.000000	0.000000	156.000000	50.000000	14.000000	-35.000000
0.250000	18.180000	29.220000	120.000000	0.000000	156.000000	50.000000	19.000000	-34.000000
0.260000	18.420000	28.960000	107.000000	0.000000	156.000000	50.000000	24.000000	-26.000000
0.270000	18.730000	28.750000	93.000000	0.000000	156.000000	50.000000	31.000000	-21.000000
0.280000	19.090000	28.750000	47.000000	0.000000	157.000000	50.000000	36.000000	0.000000
0.290000	19.530000	28.880000	1.000000	1.000000	157.000000	50.000000	0.000000	0.000000
0.300000	19.530000	28.880000	0.000000	0.000000	157.000000	50.000000	0.000000	0.000000
0.310000	20.310000	29.360000	0.000000	0.000000	157.000000	50.000000	78.000000	48.000000
0.320000	20.550000	29.640000	0.000000	0.000000	157.000000	50.000000	24.000000	28.000000
0.330000	20.550000	29.640000	10.000000	0.000000	159.000000	50.000000	0.000000	0.000000
0.340000	20.580000	30.180000	39.000000	1.000000	159.000000	50.000000	0.000000	0.000000
0.350000	20.440000	30.380000	53.000000	0.000000	159.000000	50.000000	-14.000000	20.000000
0.360000	20.280000	30.480000	70.000000	0.000000	159.000000	50.000000	-16.000000	10.000000
0.370000	20.150000	30.480000	91.000000	0.000000	159.000000	50.000000	-13.000000	0.000000
0.380000	20.040000	30.480000	91.000000	0.000000	159.000000	50.000000	-11.000000	0.000000
0.390000	20.040000	30.410000	94.000000	0.000000	159.000000	50.000000	0.000000	-7.000000
0.400000	19.990000	30.280000	94.000000	0.000000	159.000000	50.000000	-5.000000	-13.000000
0.410000	19.990000	30.140000	98.000000	0.000000	159.000000	50.000000	0.000000	-14.000000
0.420000	20.080000	30.010000	98.000000	0.000000	159.000000	50.000000	9.000000	-13.000000
0.430000	20.150000	29.780000	98.000000	0.000000	159.000000	50.000000	7.000000	-23.000000
0.440000	20.150000	29.560000	101.000000	0.000000	159.000000	50.000000	0.000000	-22.000000
0.450000	20.220000	29.350000	101.000000	0.000000	159.000000	50.000000	7.000000	-21.000000
0.460000	20.300000	29.220000	99.000000	0.000000	159.000000	50.000000	8.000000	-13.000000
0.470000	20.370000	29.120000	93.000000	0.000000	159.000000	50.000000	7.000000	-10.000000
0.480000	20.430000	29.120000	110.000000	0.000000	159.000000	50.000000	6.000000	0.000000
0.490000	20.430000	29.260000	141.000000	0.000000	159.000000	50.000000	0.000000	14.000000
0.500000	20.430000	29.420000	156.000000	0.000000	159.000000	50.000000	0.000000	16.000000
0.510000	20.430000	29.660000	170.000000	0.000000	159.000000	50.000000	0.000000	24.000000
0.520000	20.430000	29.940000	185.000000	0.000000	159.000000	50.000000	0.000000	28.000000
0.530000	20.350000	30.250000	226.000000	0.000000	159.000000	50.000000	-8.000000	31.000000
0.540000	20.230000	30.500000	247.000000	0.000000	159.000000	50.000000	-12.000000	25.000000
0.550000	20.170000	30.720000	254.000000	0.000000	159.000000	50.000000	-6.000000	22.000000
0.560000	20.170000	30.880000	262.000000	0.000000	159.000000	50.000000	0.000000	16.000000
0.570000	20.250000	30.970000	265.000000	0.000000	159.000000	50.000000	8.000000	9.000000
0.580000	20.410000	31.020000	255.000000	0.000000	159.000000	49.000000	16.000000	5.000000
0.590000	20.650000	31.020000	247.000000	0.000000	159.000000	49.000000	24.000000	0.000000
0.600000	20.940000	31.020000	209.000000	0.000000	159.000000	49.000000	29.000000	0.000000
0.610000	21.230000	31.020000	175.000000	0.000000	159.000000	49.000000	29.000000	0.000000
0.620000	21.500000	31.020000	109.000000	0.000000	159.000000	49.000000	27.000000	0.000000
0.630000	21.500000	31.020000	0.000000	1.000000	159.000000	49.000000	0.000000	0.000000
0.640000	21.600000	31.020000	0.000000	0.000000	159.000000	49.000000	10.000000	0.000000
0.650000	21.540000	31.020000	0.000000	0.000000	159.000000	49.000000	-6.000000	0.000000
0.660000	21.470000	31.020000	0.000000	0.000000	159.000000	49.000000	-7.000000	0.000000
0.670000	21.420000	31.070000	0.000000	0.000000	159.000000	49.000000	-5.000000	5.000000
0.680000	21.420000	31.150000	0.000000	0.000000	159.000000	49.000000	0.000000	8.000000
0.690000	21.420000	31.200000	0.000000	0.000000	159.000000	49.000000	0.000000	5.000000
0.700000	21.420000	31.200000	0.000000	0.000000	159.000000	49.000000	0.000000	0.000000
0.710000	21.330000	31.200000	0.000000	0.000000	158.000000	49.000000	-9.000000	0.000000
0.720000	21.380000	31.150000	0.000000	0.000000	158.000000	49.000000	5.000000	-5.000000
0.730000	21.470000	31.150000	0.000000	0.000000	158.000000	49.000000	9.000000	0.000000
0.740000	21.640000	31.080000	0.000000	0.000000	157.000000	49.000000	17.000000	-7.000000
0.750000	21.860000	31.080000	0.000000	0.000000	157.000000	49.000000	22.000000	0.000000
0.760000	21.860000	31.080000	0.000000	0.000000	157.000000	49.000000	0.000000	0.000000
0.770000	22.220000	31.080000	0.000000	0.000000	157.000000	49.000000	36.000000	0.000000
0.780000	22.430000	31.080000	0.000000	0.000000	158.000000	48.000000	21.000000	0.000000
0.790000	22.630000	31.080000	0.000000	0.000000	158.000000	48.000000	20.000000	0.000000
0.800000	22.820000	31.080000	0.000000	0.000000	157.000000	48.000000	19.000000	0.000000
0.810000	22.990000	31.080000	0.000000	0.000000	157.000000	48.000000	17.000000	0.000000
0.820000	23.090000	31.020000	0.000000	0.000000	157.000000	48.000000	10.000000	-6.000000
0.830000	23.150000	30.970000	0.000000	0.000000	157.000000	48.000000	6.000000	-5.000000
0.840000	23.150000	30.890000	0.000000	0.000000	157.000000	48.000000	0.000000	-8.000000
0.850000	23.050000	30.770000	0.000000	0.000000	157.000000	48.000000	-10.000000	-12.000000
0.860000	22.960000	30.660000	0.000000	0.000000	157.000000	48.000000	-9.000000	-11.000000
0.870000	22.960000	30.580000	0.000000	0.000000	156.000000	48.000000	0.000000	-8.000000
0.880000	22.880000	30.530000	0.000000	0.000000	156.000000	48.000000	-8.000000	-5.000000
0.890000	22.880000	30.530000	0.000000	0.000000	157.000000	49.000000	0.000000	0.000000
0.900000	22.880000	30.450000	0.000000	0.000000	157.000000	49.000000	0.000000	-8.000000
0.910000	22.930000	30.450000	0.000000	0.000000	157.000000	49.000000	5.000000	0.000000
0.920000	23.010000	30.450000	0.000000	0.000000	156.000000	50.000000	8.000000	0.000000
0.930000	23.010000	30.400000	0.000000	0.000000	156.000000	50.000000	0.000000	-5.000000
0.940000	22.900000	30.320000	0.000000	0.000000	156.000000	50.000000	-11.000000	-8.000000
0.950000	22.820000	30.230000	0.000000	0.000000	156.000000	50.000000	-8.000000	-9.000000
0.960000	22.820000	30.230000	0.000000	0.000000	156.000000	50.000000	0.000000	0.000000
0.970000	22.820000	30.230000	0.000000	0.000000	156.000000	50.000000	0.000000	0.000000
0.980000	22.820000	30.230000	0.000000	0.000000	156.000000	50.000000	0.000000	0.000000
0.990000	22.820000	30.230000	0.000000	0.000000	156.000000	50.000000	0.000000	0.000000
1.000000	22.820000	30.230000	0.000000	0.000000	156.000000	50.000000	0.000000	0.000000
1.010000	23.100000	30.270000	0.000000	0.000000	156.000000	50.000000	28.000000	4.000000
1.020000	23.320000	30.390000	0.000000	0.000000	156.000000	50.000000	22.000000	12.000000
1.030000	23.530000	30.470000	0.000000	0.000000	156.000000	50.000000	21.000000	8.000000
1.040000	23.670000	30.550000	0.000000	0.000000	156.000000	50.000000	14.000000	8.000000
1.050000	23.760000	30.630000	0.000000	0.000000	156.000000	50.000000	9.000000	8.000000
1.060000	23.690000	30.690000	0.000000	0.000000	156.000000	50.000000	-7.000000	6.000000
1.070000	23.540000	30.690000	0.000000	0.000000	156.000000	50.000000	-15.000000	0.000000
1.080000	23.330000	30.690000	0.000000	0.000000	156.000000	50.000000	-21.000000	0.000000
1.090000	23.250000	30.690000	0.000000	0.000000	157.000000	49.000000	-8.000000	0.000000
1.100000	23.150000	30.690000	0.000000	0.000000	157.000000	49.000000	-10.000000	0.000000
1.110000	23.030000	30.690000	0.000000	0.000000	156.000000	48.000000	-12.000000	0.000000
1.120000	22.910000	30.690000	0.000000	0.000000	156.000000	48.000000	-12.000000	0.000000
1.130000	22.790000	30.610000	0.000000	0.000000	156.000000	48.000000	-12.000000	-8.000000
1.140000	22.690000	30.610000	0.000000	0.000000	156.000000	48.000000	-10.000000	0.000000
1.150000	22.600000	30.610000	0.000000	0.000000	156.000000	48.000000	-9.000000	0.000000
1.160000	22.510000	30.610000	0.000000	0.000000	156.000000	48.000000	-9.000000	0.000000
1.170000	22.420000	30.610000	0.000000	0.000000	156.000000	48.000000	-9.000000	0.000000
1.180000	22.330000	30.610000	0.000000	0.000000	156.000000	48.000000	-9.000000	0.000000
1.190000	22.270000	30.610000	0.000000	0.000000	156.000000	48.000000	-6.000000	0.000000
1.200000	22.210000	30.610000	0.000000	0.000000	157.000000	48.000000	-6.000000	0.000000
1.210000	22.160000	30.610000	0.000000	0.000000	157.000000	48.000000	-5.000000	0.000000
1.220000	22.110000	30.660000	0.000000	0.000000	157.000000	48.000000	-5.000000	5.000000
1.230000	22.110000	30.660000	0.000000	0.000000	157.000000	48.000000	0.000000	0.000000
1.240000	22.040000	30.660000	0.000000	0.000000	157.000000	48.000000	-7.000000	0.000000
1.250000	22.040000	30.660000	0.000000	0.000000	157.000000	48.000000	0.000000	0.000000
1.260000	22.040000	30.660000	0.000000	0.000000	157.000000	48.000000	0.000000	0.000000
1.270000	22.110000	30.660000	0.000000	0.000000	156.000000	48.000000	7.000000	0.000000
1.280000	22.160000	30.660000	0.000000	0.000000	156.000000	48.000000	5.000000	0.000000
1.290000	22.160000	30.660000	0.000000	0.000000	156.000000	48.000000	0.000000	0.000000
1.300000	22.210000	30.660000	0.000000	0.000000	156.000000	48.000000	5.000000	0.000000
1.310000	22.210000	30.740000	0.000000	0.000000	156.000000	48.000000	0.000000	8.000000
1.320000	22.210000	30.740000	0.000000	0.000000	156.000000	48.000000	0.000000	0.000000
1.330000	22.270000	30.800000	0.000000	0.000000	156.000000	48.000000	6.000000	6.000000
1.340000	22.270000	30.800000	0.000000	0.000000	156.000000	48.000000	0.000000	0.000000
1.350000	22.270000	30.800000	0.000000	0.000000	156.000000	48.000000	0.000000	0.000000
1.360000	22.270000	30.850000	0.000000	0.000000	156.000000	48.000000	0.000000	5.000000
1.370000	22.270000	30.850000	0.000000	0.000000	156.000000	48.000000	0.000000	0.000000
1.380000	22.180000	30.850000	0.000000	0.000000	156.000000	48.000000	-9.000000	0.000000
1.390000	22.110000	30.850000	0.000000	0.000000	156.000000	48.000000	-7.000000	0.000000
1.400000	22.040000	30.850000	0.000000	0.000000	156.000000	48.000000	-7.000000	0.000000
1.410000	21.990000	30.790000	0.000000	0.000000	156.000000	48.000000	-5.000000	-6.000000
1.420000	21.930000	30.790000	0.000000	0.000000	156.000000	48.000000	-6.000000	0.000000
1.430000	21.870000	30.790000	0.000000	0.000000	156.000000	48.000000	-6.000000	0.000000
1.440000	21.870000	30.790000	0.000000	0.000000	156.000000	48.000000	0.000000	0.000000
1.450000	21.870000	30.790000	0.000000	0.000000	156.000000	48.000000	0.000000	0.000000
1.460000	21.870000	30.850000	0.000000	0.000000	156.000000	48.000000	0.000000	6.000000
1.470000	21.870000	30.850000	0.000000	0.000000	156.000000	48.000000	0.000000	0.000000
1.480000	21.870000	30.900000	0.000000	0.000000	157.000000	48.000000	0.000000	5.000000
1.490000	21.870000	30.900000	0.000000	0.000000	157.000000	48.000000	0.000000	0.000000
1.500000	21.870000	30.960000	0.000000	0.000000	157.000000	48.000000	0.000000	6.000000
1.510000	21.940000	30.960000	0.000000	0.000000	157.000000	48.000000	7.000000	0.000000
1.520000	21.940000	30.960000	0.000000	0.000000	157.000000	48.000000	0.000000	0.000000
1.530000	22.040000	31.030000	0.000000	0.000000	157.000000	48.000000	10.000000	7.000000
1.540000	22.100000	31.030000	0.000000	0.000000	156.000000	48.000000	6.000000	0.000000
1.550000	22.190000	31.110000	0.000000	0.000000	156.000000	48.000000	9.000000	8.000000
1.560000	22.290000	31.110000	0.000000	0.000000	156.000000	48.000000	10.000000	0.000000
1.570000	22.380000	31.160000	0.000000	0.000000	156.000000	48.000000	9.000000	5.000000
1.580000	22.450000	31.160000	0.000000	0.000000	156.000000	48.000000	7.000000	0.000000
1.590000	22.500000	31.160000	0.000000	0.000000	156.000000	48.000000	5.000000	0.000000
1.600000	22.500000	31.210000	0.000000	0.000000	156.000000	48.000000	0.000000	5.000000
1.610000	22.600000	31.210000	0.000000	0.000000	156.000000	48.000000	10.000000	0.000000
1.620000	22.690000	31.270000	0.000000	0.000000	156.000000	48.000000	9.000000	6.000000
1.630000	22.790000	31.320000	0.000000	0.000000	156.000000	48.000000	10.000000	5.000000
1.640000	22.870000	31.320000	0.000000	0.000000	156.000000	48.000000	8.000000	0.000000
1.650000	22.960000	31.390000	0.000000	0.000000	156.000000	48.000000	9.000000	7.000000
1.660000	22.960000	31.390000	0.000000	0.000000	156.000000	48.000000	0.000000	0.000000
1.670000	22.960000	31.440000	0.000000	0.000000	155.000000	48.000000	0.000000	5.000000
1.680000	23.020000	31.440000	0.000000	0.000000	155.000000	48.000000	6.000000	0.000000
1.690000	23.020000	31.440000	0.000000	0.000000	155.000000	48.000000	0.000000	0.000000
1.700000	22.970000	31.440000	0.000000	0.000000	155.000000	48.000000	-5.000000	0.000000
1.710000	22.970000	31.440000	0.000000	0.000000	155.000000	48.000000	0.000000	0.000000
1.720000	22.910000	31.440000	0.000000	0.000000	155.000000	48.000000	-6.000000	0.000000
1.730000	22.910000	31.490000	0.000000	0.000000	155.000000	48.000000	0.000000	5.000000
1.740000	22.910000	31.490000	0.000000	0.000000	155.000000	48.000000	0.000000	0.000000
1.750000	22.910000	31.490000	0.000000	0.000000	155.000000	48.000000	0.000000	0.000000
1.760000	22.910000	31.490000	0.000000	0.000000	155.000000	48.000000	0.000000	0.000000
1.770000	22.910000	31.490000	0.000000	0.000000	155.000000	48.000000	0.000000	0.000000
1.780000	22.830000	31.490000	0.000000	0.000000	155.000000	48.000000	-8.000000	0.000000
1.790000	22.780000	31.490000	0.000000	0.000000	155.000000	48.000000	-5.000000	0.000000
1.800000	22.700000	31.490000	0.000000	0.000000	155.000000	48.000000	-8.000000	0.000000
1.810000	22.610000	31.440000	0.000000	0.000000	155.000000	48.000000	-9.000000	-5.000000
1.820000	22.550000	31.440000	0.000000	0.000000	155.000000	48.000000	-6.000000	0.000000
1.830000	22.500000	31.440000	0.000000	0.000000	155.000000	48.000000	-5.000000	0.000000
1.840000	22.450000	31.440000	0.000000	0.000000	155.000000	48.000000	-5.000000	0.000000
1.850000	22.450000	31.440000	0.000000	0.000000	155.000000	48.000000	0.000000	0.000000
1.860000	22.450000	31.440000	0.000000	0.000000	155.000000	48.000000	0.000000	0.000000
1.870000	22.400000	31.440000	0.000000	0.000000	156.000000	48.000000	-5.000000	0.000000
1.880000	22.400000	31.440000	0.000000	0.000000	156.000000	48.000000	0.000000	0.000000
1.890000	22.400000	31.440000	0.000000	0.000000	156.000000	48.000000	0.000000	0.000000
1.900000	22.450000	31.440000	0.000000	0.000000	156.000000	48.000000	5.000000	0.000000
1.910000	22.450000	31.390000	0.000000	0.000000	156.000000	48.000000	0.000000	-5.000000
1.920000	22.520000	31.390000	0.000000	0.000000	156.000000	48.000000	7.000000	0.000000
1.930000	22.520000	31.440000	0.000000	0.000000	156.000000	48.000000	0.000000	5.000000
1.940000	22.520000	31.490000	0.000000	0.000000	156.000000	48.000000	0.000000	5.000000
1.950000	22.520000	31.490000	0.000000	0.000000	156.000000	48.000000	0.000000	0.000000
1.960000	22.470000	31.550000	0.000000	0.000000	156.000000	48.000000	-5.000000	6.000000
1.970000	22.470000	31.550000	0.000000	0.000000	156.000000	48.000000	0.000000	0.000000
1.980000	22.550000	31.550000	0.000000	0.000000	155.000000	48.000000	8.000000	0.000000
1.990000	22.640000	31.550000	0.000000	0.000000	155.000000	48.000000	9.000000	0.000000
2.000000	22.720000	31.550000	0.000000	0.000000	155.000000	48.000000	8.000000	0.000000
2.010000	22.780000	31.550000	0.000000	0.000000	155.000000	48.000000	6.000000	0.000000
2.020000	22.840000	31.550000	0.000000	0.000000	155.000000	48.000000	6.000000	0.000000
2.030000	22.900000	31.550000	0.000000	0.000000	155.000000	48.000000	6.000000	0.000000
2.040000	22.900000	31.550000	0.000000	0.000000	155.000000	48.000000	0.000000	0.000000
2.050000	22.950000	31.550000	0.000000	0.000000	155.000000	48.000000	5.000000	0.000000
2.060000	22.950000	31.550000	0.000000	0.000000	155.000000	48.000000	0.000000	0.000000
2.070000	22.950000	31.550000	0.000000	0.000000	155.000000	48.000000	0.000000	0.000000
2.080000	22.860000	31.550000	0.000000	0.000000	155.000000	48.000000	-9.000000	0.000000
2.090000	22.790000	31.550000	0.000000	0.000000	155.000000	48.000000	-7.000000	0.000000
2.100000	22.720000	31.550000	0.000000	0.000000	155.000000	48.000000	-7.000000	0.000000
2.110000	22.660000	31.500000	0.000000	0.000000	155.000000	48.000000	-6.000000	-5.000000
2.120000	22.610000	31.500000	0.000000	0.000000	155.000000	48.000000	-5.000000	0.000000
2.130000	22.490000	31.400000	0.000000	0.000000	155.000000	48.000000	-12.000000	-10.000000
2.140000	22.310000	31.350000	0.000000	0.000000	155.000000	48.000000	-18.000000	-5.000000
2.150000	22.170000	31.300000	0.000000	0.000000	155.000000	48.000000	-14.000000	-5.000000
2.160000	22.020000	31.250000	0.000000	0.000000	155.000000	48.000000	-15.000000	-5.000000
2.170000	21.880000	31.250000	0.000000	0.000000	155.000000	48.000000	-14.000000	0.000000
2.180000	21.760000	31.250000	0.000000	0.000000	156.000000	48.000000	-12.000000	0.000000
2.190000	21.680000	31.250000	0.000000	0.000000	157.000000	48.000000	-8.000000	0.000000
2.200000	21.590000	31.300000	0.000000	0.000000	157.000000	48.000000	-9.000000	5.000000
2.210000	21.490000	31.300000	0.000000	0.000000	157.000000	48.000000	-10.000000	0.000000
2.220000	21.330000	31.370000	0.000000	0.000000	157.000000	48.000000	-16.000000	7.000000
2.230000	21.120000	31.430000	0.000000	0.000000	157.000000	48.000000	-21.000000	6.000000
2.240000	20.870000	31.430000	0.000000	0.000000	157.000000	48.000000	-25.000000	0.000000
2.250000	20.620000	31.430000	0.000000	0.000000	157.000000	48.000000	-25.000000	0.000000
2.260000	20.380000	31.430000	0.000000	0.000000	157.000000	49.000000	-24.000000	0.000000
2.270000	20.210000	31.430000	0.000000	0.000000	157.000000	49.000000	-17.000000	0.000000
