t	x	y	pressure	penup	azimuth	inclination	v_x	v_y
0.000000	52.740000	83.440000	207.000000	1.000000	143.000000	55.000000	0.000000	0.000000
0.010000	52.970000	83.100000	274.000000	0.000000	141.000000	56.000000	23.000000	-34.000000
0.020000	53.400000	83.160000	398.000000	0.000000	143.000000	56.000000	43.000000	6.000000
0.030000	54.170000	83.310000	473.000000	0.000000	143.000000	56.000000	77.000000	15.000000
0.040000	55.160000	83.560000	502.000000	0.000000	143.000000	56.000000	99.000000	25.000000
0.050000	56.380000	83.880000	520.000000	0.000000	144.000000	57.000000	122.000000	32.000000
0.060000	57.680000	84.260000	516.000000	0.000000	146.000000	57.000000	130.000000	38.000000
0.070000	59.030000	84.680000	521.000000	0.000000	147.000000	58.000000	135.000000	42.000000
0.080000	60.000000	85.120000	530.000000	0.000000	148.000000	57.000000	97.000000	44.000000
0.090000	60.580000	85.540000	563.000000	0.000000	149.000000	58.000000	58.000000	42.000000
0.100000	60.910000	85.720000	630.000000	0.000000	150.000000	58.000000	33.000000	18.000000
0.110000	60.910000	85.720000	644.000000	0.000000	152.000000	59.000000	0.000000	0.000000
0.120000	60.280000	85.720000	638.000000	0.000000	152.000000	59.000000	-63.000000	0.000000
0.130000	59.330000	85.280000	644.000000	0.000000	153.000000	59.000000	-95.000000	-44.000000
0.140000	57.430000	84.590000	641.000000	0.000000	153.000000	59.000000	-190.000000	-69.000000
0.150000	55.170000	83.650000	631.000000	0.000000	153.000000	59.000000	-226.000000	-94.000000
0.160000	52.660000	82.660000	636.000000	0.000000	152.000000	59.000000	-251.000000	-99.000000
0.170000	49.900000	81.460000	653.000000	0.000000	150.000000	58.000000	-276.000000	-120.000000
0.180000	47.190000	80.140000	669.000000	0.000000	149.000000	58.000000	-271.000000	-132.000000
0.190000	45.800000	79.390000	669.000000	0.000000	147.000000	58.000000	-139.000000	-75.000000
0.200000	45.260000	78.960000	675.000000	0.000000	146.000000	57.000000	-54.000000	-43.000000
0.210000	45.850000	78.750000	721.000000	0.000000	142.000000	57.000000	59.000000	-21.000000
0.220000	47.820000	79.010000	754.000000	0.000000	140.000000	56.000000	197.000000	26.000000
0.230000	50.710000	79.760000	811.000000	0.000000	140.000000	56.000000	289.000000	75.000000
0.240000	54.790000	80.840000	820.000000	0.000000	140.000000	56.000000	408.000000	108.000000
0.250000	59.130000	81.680000	799.000000	0.000000	140.000000	56.000000	434.000000	84.000000
0.260000	63.640000	82.310000	751.000000	0.000000	142.000000	57.000000	451.000000	63.000000
0.270000	67.160000	82.810000	702.000000	0.000000	144.000000	58.000000	352.000000	50.000000
0.280000	69.890000	83.210000	676.000000	0.000000	147.000000	59.000000	273.000000	40.000000
0.290000	72.100000	83.600000	627.000000	0.000000	152.000000	59.000000	221.000000	39.000000
0.300000	73.350000	83.820000	595.000000	0.000000	155.000000	60.000000	125.000000	22.000000
0.310000	73.930000	83.930000	512.000000	0.000000	158.000000	60.000000	58.000000	11.000000
0.320000	74.050000	83.930000	287.000000	0.000000	161.000000	60.000000	12.000000	0.000000
0.330000	74.050000	83.930000	0.000000	1.000000	162.000000	60.000000	0.000000	0.000000
0.340000	72.960000	83.930000	0.000000	0.000000	164.000000	60.000000	-109.000000	0.000000
0.350000	71.590000	83.740000	0.000000	0.000000	166.000000	60.000000	-137.000000	-19.000000
0.360000	69.840000	83.490000	0.000000	0.000000	166.000000	60.000000	-175.000000	-25.000000
0.370000	67.510000	83.250000	0.000000	0.000000	166.000000	60.000000	-233.000000	-24.000000
0.380000	64.800000	82.990000	0.000000	0.000000	166.000000	60.000000	-271.000000	-26.000000
0.390000	61.850000	82.720000	0.000000	0.000000	166.000000	60.000000	-295.000000	-27.000000
0.400000	58.680000	82.240000	0.000000	0.000000	164.000000	60.000000	-317.000000	-48.000000
0.410000	55.370000	81.610000	0.000000	0.000000	160.000000	60.000000	-331.000000	-63.000000
0.420000	53.100000	81.070000	0.000000	0.000000	158.000000	60.000000	-227.000000	-54.000000
0.430000	52.090000	80.840000	0.000000	0.000000	154.000000	60.000000	-101.000000	-23.000000
0.440000	51.920000	80.840000	0.000000	0.000000	152.000000	60.000000	-17.000000	0.000000
0.450000	52.140000	81.000000	0.000000	0.000000	148.000000	60.000000	22.000000	16.000000
0.460000	52.360000	81.150000	0.000000	0.000000	145.000000	60.000000	22.000000	15.000000
0.470000	52.610000	81.250000	0.000000	0.000000	144.000000	60.000000	25.000000	10.000000
0.480000	52.800000	81.330000	0.000000	0.000000	142.000000	59.000000	19.000000	8.000000
0.490000	52.950000	81.400000	0.000000	0.000000	142.000000	59.000000	15.000000	7.000000
0.500000	53.470000	81.470000	0.000000	0.000000	141.000000	59.000000	52.000000	7.000000
0.510000	53.600000	81.470000	0.000000	0.000000	141.000000	59.000000	13.000000	0.000000
0.520000	53.600000	81.470000	91.000000	1.000000	141.000000	59.000000	0.000000	0.000000
0.530000	53.720000	81.760000	180.000000	0.000000	141.000000	59.000000	12.000000	29.000000
0.540000	53.950000	82.010000	314.000000	0.000000	141.000000	59.000000	23.000000	25.000000
0.550000	54.160000	82.210000	467.000000	0.000000	142.000000	58.000000	21.000000	20.000000
0.560000	54.160000	82.340000	589.000000	0.000000	142.000000	58.000000	0.000000	13.000000
0.570000	54.060000	82.400000	633.000000	0.000000	142.000000	58.000000	-10.000000	6.000000
0.580000	53.790000	82.400000	667.000000	0.000000	142.000000	58.000000	-27.000000	0.000000
0.590000	53.100000	82.190000	713.000000	0.000000	142.000000	58.000000	-69.000000	-21.000000
0.600000	52.120000	81.770000	725.000000	0.000000	142.000000	58.000000	-98.000000	-42.000000
0.610000	51.410000	81.360000	725.000000	0.000000	143.000000	57.000000	-71.000000	-41.000000
0.620000	50.760000	80.970000	730.000000	0.000000	142.000000	58.000000	-65.000000	-39.000000
0.630000	50.610000	80.700000	728.000000	0.000000	142.000000	58.000000	-15.000000	-27.000000
0.640000	50.770000	80.500000	728.000000	0.000000	142.000000	58.000000	16.000000	-20.000000
0.650000	51.110000	80.360000	725.000000	0.000000	142.000000	58.000000	34.000000	-14.000000
0.660000	51.830000	80.470000	733.000000	0.000000	142.000000	58.000000	72.000000	11.000000
0.670000	52.800000	80.760000	710.000000	0.000000	142.000000	58.000000	97.000000	29.000000
0.680000	53.550000	81.120000	707.000000	0.000000	142.000000	58.000000	75.000000	36.000000
0.690000	53.970000	81.450000	705.000000	0.000000	140.000000	58.000000	42.000000	33.000000
0.700000	54.160000	81.770000	710.000000	0.000000	140.000000	58.000000	19.000000	32.000000
0.710000	54.210000	81.990000	730.000000	0.000000	140.000000	58.000000	5.000000	22.000000
0.720000	54.210000	82.070000	721.000000	0.000000	142.000000	58.000000	0.000000	8.000000
0.730000	54.130000	82.070000	731.000000	0.000000	142.000000	58.000000	-8.000000	0.000000
0.740000	54.030000	82.070000	725.000000	0.000000	142.000000	58.000000	-10.000000	0.000000
0.750000	53.870000	81.960000	719.000000	0.000000	142.000000	58.000000	-16.000000	-11.000000
0.760000	53.680000	81.750000	702.000000	0.000000	143.000000	57.000000	-19.000000	-21.000000
0.770000	53.680000	81.460000	645.000000	0.000000	143.000000	57.000000	0.000000	-29.000000
0.780000	53.770000	81.340000	526.000000	0.000000	143.000000	57.000000	9.000000	-12.000000
0.790000	53.940000	81.270000	309.000000	0.000000	143.000000	57.000000	17.000000	-7.000000
0.800000	53.940000	81.270000	0.000000	1.000000	142.000000	57.000000	0.000000	0.000000
0.810000	54.450000	81.370000	0.000000	0.000000	142.000000	57.000000	51.000000	10.000000
0.820000	54.780000	81.690000	0.000000	0.000000	142.000000	57.000000	33.000000	32.000000
0.830000	54.960000	82.130000	0.000000	0.000000	142.000000	57.000000	18.000000	44.000000
0.840000	55.040000	82.520000	0.000000	0.000000	143.000000	57.000000	8.000000	39.000000
0.850000	55.040000	82.860000	0.000000	0.000000	143.000000	57.000000	0.000000	34.000000
0.860000	54.900000	82.970000	0.000000	0.000000	143.000000	57.000000	-14.000000	11.000000
0.870000	54.900000	82.970000	239.000000	1.000000	143.000000	57.000000	0.000000	0.000000
0.880000	54.900000	82.970000	344.000000	0.000000	143.000000	57.000000	0.000000	0.000000
0.890000	54.900000	82.970000	418.000000	0.000000	143.000000	57.000000	0.000000	0.000000
0.900000	54.670000	82.640000	516.000000	0.000000	143.000000	57.000000	-23.000000	-33.000000
0.910000	54.670000	82.260000	537.000000	0.000000	143.000000	57.000000	0.000000	-38.000000
0.920000	54.740000	81.950000	542.000000	0.000000	142.000000	57.000000	7.000000	-31.000000
0.930000	54.850000	81.680000	550.000000	0.000000	143.000000	56.000000	11.000000	-27.000000
0.940000	54.970000	81.490000	548.000000	0.000000	143.000000	56.000000	12.000000	-19.000000
0.950000	55.080000	81.400000	543.000000	0.000000	143.000000	56.000000	11.000000	-9.000000
0.960000	55.140000	81.400000	544.000000	0.000000	143.000000	56.000000	6.000000	0.000000
0.970000	55.140000	81.400000	539.000000	0.000000	143.000000	56.000000	0.000000	0.000000
0.980000	55.140000	81.640000	537.000000	0.000000	143.000000	56.000000	0.000000	24.000000
0.990000	55.210000	82.030000	551.000000	0.000000	143.000000	56.000000	7.000000	39.000000
1.000000	55.280000	82.330000	556.000000	0.000000	143.000000	56.000000	7.000000	30.000000
1.010000	55.380000	82.620000	554.000000	0.000000	143.000000	56.000000	10.000000	29.000000
1.020000	55.550000	82.730000	556.000000	0.000000	143.000000	56.000000	17.000000	11.000000
1.030000	55.730000	82.730000	561.000000	0.000000	143.000000	56.000000	18.000000	0.000000
1.040000	55.900000	82.560000	561.000000	0.000000	144.000000	57.000000	17.000000	-17.000000
1.050000	56.010000	82.380000	567.000000	0.000000	144.000000	57.000000	11.000000	-18.000000
1.060000	56.080000	82.100000	586.000000	0.000000	144.000000	57.000000	7.000000	-28.000000
1.070000	56.210000	81.760000	599.000000	0.000000	144.000000	57.000000	13.000000	-34.000000
1.080000	56.400000	81.510000	633.000000	0.000000	144.000000	57.000000	19.000000	-25.000000
1.090000	56.900000	81.420000	647.000000	0.000000	146.000000	57.000000	50.000000	-9.000000
1.100000	57.580000	81.420000	659.000000	0.000000	146.000000	57.000000	68.000000	0.000000
1.110000	58.310000	81.640000	670.000000	0.000000	146.000000	57.000000	73.000000	22.000000
1.120000	58.770000	81.930000	688.000000	0.000000	147.000000	58.000000	46.000000	29.000000
1.130000	59.040000	82.270000	717.000000	0.000000	148.000000	57.000000	27.000000	34.000000
1.140000	59.040000	82.630000	755.000000	0.000000	148.000000	57.000000	0.000000	36.000000
1.150000	58.750000	82.950000	757.000000	0.000000	150.000000	57.000000	-29.000000	32.000000
1.160000	58.340000	83.250000	760.000000	0.000000	150.000000	57.000000	-41.000000	30.000000
1.170000	57.590000	83.250000	733.000000	0.000000	150.000000	57.000000	-75.000000	0.000000
1.180000	56.590000	82.980000	694.000000	0.000000	150.000000	57.000000	-100.000000	-27.000000
1.190000	55.430000	82.630000	586.000000	0.000000	150.000000	57.000000	-116.000000	-35.000000
1.200000	54.800000	82.300000	354.000000	0.000000	148.000000	57.000000	-63.000000	-33.000000
1.210000	54.800000	82.300000	0.000000	1.000000	147.000000	56.000000	0.000000	0.000000
1.220000	55.070000	82.050000	0.000000	0.000000	144.000000	57.000000	27.000000	-25.000000
1.230000	55.240000	82.260000	0.000000	0.000000	144.000000	57.000000	17.000000	21.000000
1.240000	55.850000	82.650000	0.000000	0.000000	144.000000	57.000000	61.000000	39.000000
1.250000	56.760000	83.160000	0.000000	0.000000	143.000000	56.000000	91.000000	51.000000
1.260000	57.510000	83.580000	0.000000	0.000000	144.000000	57.000000	75.000000	42.000000
1.270000	58.100000	84.000000	0.000000	0.000000	144.000000	57.000000	59.000000	42.000000
1.280000	58.590000	84.440000	0.000000	0.000000	144.000000	57.000000	49.000000	44.000000
1.290000	58.950000	84.930000	0.000000	0.000000	146.000000	57.000000	36.000000	49.000000
1.300000	58.950000	84.930000	366.000000	1.000000	147.000000	58.000000	0.000000	0.000000
1.310000	59.090000	85.690000	460.000000	0.000000	149.000000	58.000000	14.000000	76.000000
1.320000	59.090000	85.960000	562.000000	0.000000	149.000000	58.000000	0.000000	27.000000
1.330000	59.090000	86.020000	595.000000	0.000000	150.000000	58.000000	0.000000	6.000000
1.340000	59.090000	85.940000	639.000000	0.000000	150.000000	58.000000	0.000000	-8.000000
1.350000	59.090000	85.600000	664.000000	0.000000	150.000000	58.000000	0.000000	-34.000000
1.360000	59.170000	84.970000	669.000000	0.000000	152.000000	59.000000	8.000000	-63.000000
1.370000	59.240000	84.150000	675.000000	0.000000	152.000000	59.000000	7.000000	-82.000000
1.380000	59.340000	83.460000	673.000000	0.000000	152.000000	59.000000	10.000000	-69.000000
1.390000	59.440000	83.010000	611.000000	0.000000	152.000000	59.000000	10.000000	-45.000000
1.400000	59.580000	82.720000	470.000000	0.000000	150.000000	58.000000	14.000000	-29.000000
1.410000	59.660000	82.510000	222.000000	0.000000	150.000000	58.000000	8.000000	-21.000000
1.420000	59.660000	82.510000	0.000000	1.000000	151.000000	58.000000	0.000000	0.000000
1.430000	59.660000	82.570000	0.000000	0.000000	151.000000	58.000000	0.000000	6.000000
1.440000	59.710000	82.950000	0.000000	0.000000	151.000000	58.000000	5.000000	38.000000
1.450000	59.810000	83.340000	0.000000	0.000000	150.000000	58.000000	10.000000	39.000000
1.460000	59.810000	83.340000	70.000000	1.000000	150.000000	58.000000	0.000000	0.000000
1.470000	60.100000	84.010000	247.000000	0.000000	150.000000	58.000000	29.000000	67.000000
1.480000	60.170000	84.240000	399.000000	0.000000	150.000000	58.000000	7.000000	23.000000
1.490000	60.170000	84.300000	486.000000	0.000000	150.000000	58.000000	0.000000	6.000000
1.500000	60.230000	84.250000	539.000000	0.000000	150.000000	58.000000	6.000000	-5.000000
1.510000	60.230000	84.120000	592.000000	0.000000	150.000000	58.000000	0.000000	-13.000000
1.520000	60.230000	83.750000	606.000000	0.000000	150.000000	58.000000	0.000000	-37.000000
1.530000	60.230000	83.230000	609.000000	0.000000	150.000000	58.000000	0.000000	-52.000000
1.540000	60.360000	82.770000	594.000000	0.000000	151.000000	58.000000	13.000000	-46.000000
1.550000	60.510000	82.400000	510.000000	0.000000	151.000000	58.000000	15.000000	-37.000000
1.560000	60.730000	82.100000	245.000000	0.000000	151.000000	58.000000	22.000000	-30.000000
1.570000	60.730000	82.100000	0.000000	1.000000	150.000000	57.000000	0.000000	0.000000
1.580000	61.060000	82.150000	0.000000	0.000000	150.000000	57.000000	33.000000	5.000000
1.590000	61.060000	82.440000	0.000000	0.000000	150.000000	57.000000	0.000000	29.000000
1.600000	60.860000	82.940000	0.000000	0.000000	149.000000	58.000000	-20.000000	50.000000
1.610000	60.680000	83.500000	0.000000	0.000000	149.000000	58.000000	-18.000000	56.000000
1.620000	60.540000	84.090000	0.000000	0.000000	149.000000	58.000000	-14.000000	59.000000
1.630000	60.440000	84.460000	0.000000	0.000000	147.000000	58.000000	-10.000000	37.000000
1.640000	60.440000	84.460000	212.000000	1.000000	147.000000	58.000000	0.000000	0.000000
1.650000	60.200000	85.050000	245.000000	0.000000	147.000000	58.000000	-24.000000	59.000000
1.660000	60.200000	85.270000	281.000000	0.000000	147.000000	58.000000	0.000000	22.000000
1.670000	60.200000	85.270000	279.000000	0.000000	147.000000	58.000000	0.000000	0.000000
1.680000	60.270000	85.210000	209.000000	0.000000	147.000000	59.000000	7.000000	-6.000000
1.690000	60.270000	85.210000	0.000000	1.000000	147.000000	59.000000	0.000000	0.000000
1.700000	60.620000	84.710000	0.000000	0.000000	147.000000	59.000000	35.000000	-50.000000
1.710000	60.820000	84.490000	0.000000	0.000000	147.000000	59.000000	20.000000	-22.000000
1.720000	61.000000	84.420000	0.000000	0.000000	147.000000	59.000000	18.000000	-7.000000
1.730000	61.160000	84.420000	0.000000	0.000000	147.000000	59.000000	16.000000	0.000000
1.740000	61.370000	84.420000	0.000000	0.000000	147.000000	59.000000	21.000000	0.000000
1.750000	61.540000	84.360000	0.000000	0.000000	147.000000	58.000000	17.000000	-6.000000
1.760000	61.540000	84.360000	218.000000	1.000000	147.000000	58.000000	0.000000	0.000000
1.770000	61.540000	84.360000	364.000000	0.000000	147.000000	58.000000	0.000000	0.000000
1.780000	61.430000	84.070000	445.000000	0.000000	146.000000	57.000000	-11.000000	-29.000000
1.790000	61.330000	83.910000	546.000000	0.000000	147.000000	58.000000	-10.000000	-16.000000
1.800000	61.280000	83.630000	583.000000	0.000000	147.000000	58.000000	-5.000000	-28.000000
1.810000	61.280000	83.270000	585.000000	0.000000	147.000000	58.000000	0.000000	-36.000000
1.820000	61.340000	82.880000	588.000000	0.000000	148.000000	57.000000	6.000000	-39.000000
1.830000	61.530000	82.650000	592.000000	0.000000	148.000000	57.000000	19.000000	-23.000000
1.840000	61.880000	82.540000	577.000000	0.000000	148.000000	57.000000	35.000000	-11.000000
1.850000	62.240000	82.540000	570.000000	0.000000	148.000000	57.000000	36.000000	0.000000
1.860000	62.630000	82.750000	540.000000	0.000000	148.000000	57.000000	39.000000	21.000000
1.870000	62.880000	83.030000	544.000000	0.000000	148.000000	57.000000	25.000000	28.000000
1.880000	63.040000	83.460000	546.000000	0.000000	148.000000	57.000000	16.000000	43.000000
1.890000	62.910000	83.850000	566.000000	0.000000	147.000000	56.000000	-13.000000	39.000000
1.900000	62.760000	84.190000	570.000000	0.000000	147.000000	56.000000	-15.000000	34.000000
1.910000	62.600000	84.320000	594.000000	0.000000	147.000000	56.000000	-16.000000	13.000000
1.920000	62.600000	84.320000	595.000000	0.000000	147.000000	56.000000	0.000000	0.000000
1.930000	62.550000	84.320000	600.000000	0.000000	147.000000	56.000000	-5.000000	0.000000
1.940000	62.550000	84.100000	605.000000	0.000000	147.000000	56.000000	0.000000	-22.000000
1.950000	62.550000	83.730000	609.000000	0.000000	147.000000	56.000000	0.000000	-37.000000
1.960000	62.550000	83.360000	611.000000	0.000000	147.000000	56.000000	0.000000	-37.000000
1.970000	62.850000	83.100000	613.000000	0.000000	147.000000	56.000000	30.000000	-26.000000
1.980000	63.280000	82.910000	609.000000	0.000000	147.000000	56.000000	43.000000	-19.000000
1.990000	63.710000	82.850000	605.000000	0.000000	147.000000	56.000000	43.000000	-6.000000
2.000000	64.170000	82.940000	595.000000	0.000000	147.000000	56.000000	46.000000	9.000000
2.010000	64.670000	83.130000	581.000000	0.000000	147.000000	56.000000	50.000000	19.000000
2.020000	65.020000	83.420000	578.000000	0.000000	147.000000	56.000000	35.000000	29.000000
2.030000	65.270000	83.790000	581.000000	0.000000	147.000000	56.000000	25.000000	37.000000
2.040000	65.380000	84.220000	594.000000	0.000000	147.000000	56.000000	11.000000	43.000000
2.050000	65.380000	84.520000	606.000000	0.000000	147.000000	56.000000	0.000000	30.000000
2.060000	65.200000	84.770000	620.000000	0.000000	147.000000	56.000000	-18.000000	25.000000
2.070000	64.980000	84.910000	624.000000	0.000000	147.000000	56.000000	-22.000000	14.000000
2.080000	64.500000	84.910000	638.000000	0.000000	147.000000	56.000000	-48.000000	0.000000
2.090000	63.840000	84.760000	658.000000	0.000000	146.000000	57.000000	-66.000000	-15.000000
2.100000	63.370000	84.610000	668.000000	0.000000	146.000000	57.000000	-47.000000	-15.000000
2.110000	63.140000	84.430000	672.000000	0.000000	146.000000	57.000000	-23.000000	-18.000000
2.120000	63.060000	84.160000	675.000000	0.000000	146.000000	57.000000	-8.000000	-27.000000
2.130000	63.060000	83.910000	678.000000	0.000000	146.000000	57.000000	0.000000	-25.000000
2.140000	63.310000	83.720000	691.000000	0.000000	146.000000	57.000000	25.000000	-19.000000
2.150000	63.690000	83.510000	691.000000	0.000000	147.000000	56.000000	38.000000	-21.000000
2.160000	64.200000	83.420000	699.000000	0.000000	147.000000	56.000000	51.000000	-9.000000
2.170000	64.720000	83.420000	707.000000	0.000000	147.000000	56.000000	52.000000	0.000000
2.180000	65.160000	83.420000	707.000000	0.000000	147.000000	56.000000	44.000000	0.000000
2.190000	65.540000	83.420000	700.000000	0.000000	147.000000	56.000000	38.000000	0.000000
2.200000	65.900000	83.420000	661.000000	0.000000	147.000000	56.000000	36.000000	0.000000
2.210000	66.110000	83.420000	546.000000	0.000000	148.000000	57.000000	21.000000	0.000000
