t	x	y	pressure	penup	azimuth	inclination	v_x	v_y
0.000000	92.170000	83.040000	170.000000	1.000000	139.000000	61.000000	0.000000	0.000000
0.010000	92.330000	83.540000	212.000000	0.000000	141.000000	60.000000	16.000000	50.000000
0.020000	91.980000	83.540000	307.000000	0.000000	142.000000	61.000000	-35.000000	0.000000
0.030000	91.710000	83.600000	423.000000	0.000000	142.000000	61.000000	-27.000000	6.000000
0.040000	91.210000	83.490000	465.000000	0.000000	142.000000	61.000000	-50.000000	-11.000000
0.050000	90.550000	83.290000	515.000000	0.000000	142.000000	61.000000	-66.000000	-20.000000
0.060000	89.630000	82.930000	561.000000	0.000000	142.000000	61.000000	-92.000000	-36.000000
0.070000	88.590000	82.360000	592.000000	0.000000	142.000000	61.000000	-104.000000	-57.000000
0.080000	87.480000	81.660000	631.000000	0.000000	142.000000	61.000000	-111.000000	-70.000000
0.090000	86.500000	80.900000	638.000000	0.000000	142.000000	61.000000	-98.000000	-76.000000
0.100000	85.790000	80.130000	653.000000	0.000000	142.000000	61.000000	-71.000000	-77.000000
0.110000	85.260000	79.350000	661.000000	0.000000	142.000000	61.000000	-53.000000	-78.000000
0.120000	85.160000	78.780000	662.000000	0.000000	141.000000	60.000000	-10.000000	-57.000000
0.130000	85.480000	78.350000	668.000000	0.000000	139.000000	61.000000	32.000000	-43.000000
0.140000	86.080000	78.010000	673.000000	0.000000	139.000000	61.000000	60.000000	-34.000000
0.150000	87.250000	78.010000	685.000000	0.000000	138.000000	60.000000	117.000000	0.000000
0.160000	89.140000	78.160000	702.000000	0.000000	138.000000	60.000000	189.000000	15.000000
0.170000	91.510000	78.680000	707.000000	0.000000	138.000000	60.000000	237.000000	52.000000
0.180000	94.300000	79.470000	727.000000	0.000000	138.000000	61.000000	279.000000	79.000000
0.190000	97.280000	80.430000	727.000000	0.000000	138.000000	61.000000	298.000000	96.000000
0.200000	100.390000	81.210000	722.000000	0.000000	138.000000	61.000000	311.000000	78.000000
0.210000	102.990000	81.940000	727.000000	0.000000	140.000000	62.000000	260.000000	73.000000
0.220000	104.950000	82.310000	710.000000	0.000000	141.000000	63.000000	196.000000	37.000000
0.230000	106.470000	82.470000	714.000000	0.000000	143.000000	63.000000	152.000000	16.000000
0.240000	107.190000	82.470000	699.000000	0.000000	145.000000	64.000000	72.000000	0.000000
0.250000	107.490000	82.470000	652.000000	0.000000	145.000000	64.000000	30.000000	0.000000
0.260000	107.490000	82.470000	561.000000	0.000000	146.000000	64.000000	0.000000	0.000000
0.270000	107.210000	82.410000	275.000000	0.000000	146.000000	64.000000	-28.000000	-6.000000
0.280000	107.210000	82.410000	0.000000	1.000000	146.000000	64.000000	0.000000	0.000000
0.290000	104.790000	81.950000	0.000000	0.000000	146.000000	64.000000	-242.000000	-46.000000
0.300000	102.940000	81.820000	0.000000	0.000000	146.000000	64.000000	-185.000000	-13.000000
0.310000	100.630000	81.670000	0.000000	0.000000	146.000000	64.000000	-231.000000	-15.000000
0.320000	98.010000	81.500000	0.000000	0.000000	146.000000	64.000000	-262.000000	-17.000000
0.330000	95.480000	81.350000	0.000000	0.000000	145.000000	65.000000	-253.000000	-15.000000
0.340000	93.300000	80.860000	0.000000	0.000000	143.000000	64.000000	-218.000000	-49.000000
0.350000	91.350000	80.140000	0.000000	0.000000	138.000000	64.000000	-195.000000	-72.000000
0.360000	90.230000	79.670000	0.000000	0.000000	137.000000	63.000000	-112.000000	-47.000000
0.370000	89.450000	79.390000	0.000000	0.000000	135.000000	63.000000	-78.000000	-28.000000
0.380000	88.890000	79.250000	0.000000	0.000000	133.000000	62.000000	-56.000000	-14.000000
0.390000	88.460000	79.250000	0.000000	0.000000	135.000000	62.000000	-43.000000	0.000000
0.400000	88.320000	79.320000	0.000000	0.000000	136.000000	61.000000	-14.000000	7.000000
0.410000	88.380000	79.490000	0.000000	0.000000	138.000000	61.000000	6.000000	17.000000
0.420000	88.600000	79.740000	0.000000	0.000000	140.000000	62.000000	22.000000	25.000000
0.430000	88.970000	80.020000	0.000000	0.000000	143.000000	62.000000	37.000000	28.000000
0.440000	89.430000	80.320000	0.000000	0.000000	143.000000	63.000000	46.000000	30.000000
0.450000	89.880000	80.580000	0.000000	0.000000	143.000000	63.000000	45.000000	26.000000
0.460000	90.180000	80.820000	0.000000	0.000000	141.000000	64.000000	30.000000	24.000000
0.470000	90.370000	80.950000	0.000000	0.000000	140.000000	65.000000	19.000000	13.000000
0.480000	90.370000	80.950000	173.000000	1.000000	138.000000	64.000000	0.000000	0.000000
0.490000	90.370000	80.950000	264.000000	0.000000	137.000000	63.000000	0.000000	0.000000
0.500000	90.020000	81.120000	389.000000	0.000000	137.000000	63.000000	-35.000000	17.000000
0.510000	89.550000	81.120000	449.000000	0.000000	137.000000	62.000000	-47.000000	0.000000
0.520000	88.850000	80.920000	468.000000	0.000000	137.000000	62.000000	-70.000000	-20.000000
0.530000	87.990000	80.580000	488.000000	0.000000	137.000000	62.000000	-86.000000	-34.000000
0.540000	87.430000	80.110000	488.000000	0.000000	138.000000	61.000000	-56.000000	-47.000000
0.550000	87.190000	79.780000	492.000000	0.000000	138.000000	61.000000	-24.000000	-33.000000
0.560000	87.190000	79.520000	501.000000	0.000000	137.000000	62.000000	0.000000	-26.000000
0.570000	87.340000	79.300000	517.000000	0.000000	137.000000	62.000000	15.000000	-22.000000
0.580000	87.790000	79.150000	516.000000	0.000000	137.000000	62.000000	45.000000	-15.000000
0.590000	88.400000	79.200000	521.000000	0.000000	137.000000	62.000000	61.000000	5.000000
0.600000	89.230000	79.390000	518.000000	0.000000	137.000000	62.000000	83.000000	19.000000
0.610000	89.870000	79.720000	516.000000	0.000000	137.000000	62.000000	64.000000	33.000000
0.620000	90.390000	80.150000	512.000000	0.000000	137.000000	62.000000	52.000000	43.000000
0.630000	90.720000	80.660000	515.000000	0.000000	137.000000	62.000000	33.000000	51.000000
0.640000	90.790000	81.220000	527.000000	0.000000	137.000000	62.000000	7.000000	56.000000
0.650000	90.690000	81.600000	530.000000	0.000000	137.000000	62.000000	-10.000000	38.000000
0.660000	90.540000	81.860000	532.000000	0.000000	137.000000	62.000000	-15.000000	26.000000
0.670000	90.230000	81.860000	535.000000	0.000000	138.000000	61.000000	-31.000000	0.000000
0.680000	89.810000	81.500000	546.000000	0.000000	138.000000	61.000000	-42.000000	-36.000000
0.690000	89.570000	81.000000	537.000000	0.000000	138.000000	61.000000	-24.000000	-50.000000
0.700000	89.570000	80.400000	542.000000	0.000000	138.000000	61.000000	0.000000	-60.000000
0.710000	89.700000	79.850000	521.000000	0.000000	138.000000	61.000000	13.000000	-55.000000
0.720000	90.070000	79.510000	420.000000	0.000000	138.000000	61.000000	37.000000	-34.000000
0.730000	90.460000	79.300000	112.000000	0.000000	138.000000	61.000000	39.000000	-21.000000
0.740000	90.460000	79.300000	0.000000	1.000000	135.000000	62.000000	0.000000	0.000000
0.750000	91.120000	79.490000	0.000000	0.000000	135.000000	62.000000	66.000000	19.000000
0.760000	91.210000	79.820000	0.000000	0.000000	135.000000	62.000000	9.000000	33.000000
0.770000	91.270000	80.320000	0.000000	0.000000	133.000000	62.000000	6.000000	50.000000
0.780000	91.320000	80.830000	0.000000	0.000000	133.000000	62.000000	5.000000	51.000000
0.790000	91.320000	81.350000	0.000000	0.000000	133.000000	62.000000	0.000000	52.000000
0.800000	91.320000	81.350000	98.000000	1.000000	133.000000	62.000000	0.000000	0.000000
0.810000	91.340000	81.620000	254.000000	0.000000	133.000000	62.000000	2.000000	27.000000
0.820000	91.340000	81.570000	349.000000	0.000000	135.000000	62.000000	0.000000	-5.000000
0.830000	91.270000	81.490000	425.000000	0.000000	135.000000	62.000000	-7.000000	-8.000000
0.840000	91.270000	81.250000	470.000000	0.000000	136.000000	61.000000	0.000000	-24.000000
0.850000	91.340000	80.900000	481.000000	0.000000	136.000000	61.000000	7.000000	-35.000000
0.860000	91.340000	80.460000	485.000000	0.000000	138.000000	61.000000	0.000000	-44.000000
0.870000	91.340000	80.010000	481.000000	0.000000	139.000000	61.000000	0.000000	-45.000000
0.880000	91.340000	79.690000	460.000000	0.000000	139.000000	61.000000	0.000000	-32.000000
0.890000	91.340000	79.460000	423.000000	0.000000	139.000000	61.000000	0.000000	-23.000000
0.900000	91.340000	79.460000	407.000000	0.000000	138.000000	61.000000	0.000000	0.000000
0.910000	91.430000	79.650000	399.000000	0.000000	136.000000	61.000000	9.000000	19.000000
0.920000	91.590000	80.040000	384.000000	0.000000	136.000000	61.000000	16.000000	39.000000
0.930000	91.820000	80.570000	391.000000	0.000000	136.000000	61.000000	23.000000	53.000000
0.940000	91.900000	81.050000	392.000000	0.000000	136.000000	61.000000	8.000000	48.000000
0.950000	91.970000	81.330000	418.000000	0.000000	136.000000	61.000000	7.000000	28.000000
0.960000	92.040000	81.510000	422.000000	0.000000	136.000000	61.000000	7.000000	18.000000
0.970000	92.100000	81.510000	427.000000	0.000000	136.000000	61.000000	6.000000	0.000000
0.980000	92.180000	81.410000	447.000000	0.000000	136.000000	61.000000	8.000000	-10.000000
0.990000	92.280000	81.260000	483.000000	0.000000	136.000000	61.000000	10.000000	-15.000000
1.000000	92.400000	80.970000	512.000000	0.000000	136.000000	61.000000	12.000000	-29.000000
1.010000	92.720000	80.600000	535.000000	0.000000	136.000000	61.000000	32.000000	-37.000000
1.020000	93.160000	80.320000	553.000000	0.000000	136.000000	61.000000	44.000000	-28.000000
1.030000	93.790000	80.190000	551.000000	0.000000	136.000000	61.000000	63.000000	-13.000000
1.040000	94.440000	80.190000	554.000000	0.000000	136.000000	61.000000	65.000000	0.000000
1.050000	95.080000	80.280000	556.000000	0.000000	136.000000	61.000000	64.000000	9.000000
1.060000	95.440000	80.450000	564.000000	0.000000	135.000000	60.000000	36.000000	17.000000
1.070000	95.630000	80.660000	561.000000	0.000000	134.000000	61.000000	19.000000	21.000000
1.080000	95.630000	81.010000	581.000000	0.000000	134.000000	61.000000	0.000000	35.000000
1.090000	95.390000	81.300000	588.000000	0.000000	134.000000	61.000000	-24.000000	29.000000
1.100000	94.890000	81.560000	578.000000	0.000000	134.000000	61.000000	-50.000000	26.000000
1.110000	94.150000	81.610000	499.000000	0.000000	135.000000	60.000000	-74.000000	5.000000
1.120000	93.350000	81.460000	344.000000	0.000000	135.000000	60.000000	-80.000000	-15.000000
1.130000	92.500000	81.180000	1.000000	1.000000	135.000000	60.000000	0.000000	0.000000
1.140000	92.500000	81.180000	0.000000	0.000000	135.000000	60.000000	0.000000	0.000000
1.150000	92.010000	81.190000	0.000000	0.000000	135.000000	60.000000	-49.000000	1.000000
1.160000	92.080000	81.450000	0.000000	0.000000	135.000000	60.000000	7.000000	26.000000
1.170000	92.570000	81.890000	0.000000	0.000000	135.000000	60.000000	49.000000	44.000000
1.180000	93.200000	82.330000	0.000000	0.000000	135.000000	60.000000	63.000000	44.000000
1.190000	93.910000	82.770000	0.000000	0.000000	135.000000	60.000000	71.000000	44.000000
1.200000	94.470000	83.110000	0.000000	0.000000	134.000000	60.000000	56.000000	34.000000
1.210000	94.970000	83.470000	0.000000	0.000000	134.000000	60.000000	50.000000	36.000000
1.220000	95.430000	83.700000	0.000000	0.000000	134.000000	60.000000	46.000000	23.000000
1.230000	95.430000	83.700000	337.000000	1.000000	134.000000	60.000000	0.000000	0.000000
1.240000	95.660000	83.990000	447.000000	0.000000	134.000000	60.000000	23.000000	29.000000
1.250000	95.490000	83.990000	542.000000	0.000000	135.000000	59.000000	-17.000000	0.000000
1.260000	95.490000	83.900000	637.000000	0.000000	135.000000	59.000000	0.000000	-9.000000
1.270000	95.490000	83.480000	679.000000	0.000000	135.000000	59.000000	0.000000	-42.000000
1.280000	95.490000	82.900000	694.000000	0.000000	138.000000	59.000000	0.000000	-58.000000
1.290000	95.590000	82.210000	697.000000	0.000000	138.000000	59.000000	10.000000	-69.000000
1.300000	95.670000	81.760000	652.000000	0.000000	138.000000	59.000000	8.000000	-45.000000
1.310000	95.740000	81.410000	493.000000	0.000000	138.000000	59.000000	7.000000	-35.000000
1.320000	95.930000	81.130000	99.000000	0.000000	138.000000	59.000000	19.000000	-28.000000
1.330000	95.930000	81.130000	0.000000	1.000000	136.000000	58.000000	0.000000	0.000000
1.340000	96.200000	81.200000	0.000000	0.000000	136.000000	60.000000	27.000000	7.000000
1.350000	96.250000	81.650000	0.000000	0.000000	136.000000	60.000000	5.000000	45.000000
1.360000	96.330000	82.300000	0.000000	0.000000	136.000000	60.000000	8.000000	65.000000
1.370000	96.480000	82.710000	0.000000	0.000000	136.000000	60.000000	15.000000	41.000000
1.380000	96.680000	82.960000	0.000000	0.000000	136.000000	60.000000	20.000000	25.000000
1.390000	96.680000	82.960000	270.000000	1.000000	136.000000	60.000000	0.000000	0.000000
1.400000	96.680000	82.960000	349.000000	0.000000	138.000000	60.000000	0.000000	0.000000
1.410000	96.680000	82.960000	442.000000	0.000000	138.000000	60.000000	0.000000	0.000000
1.420000	96.680000	82.960000	529.000000	0.000000	138.000000	60.000000	0.000000	0.000000
1.430000	96.740000	82.390000	562.000000	0.000000	139.000000	60.000000	6.000000	-57.000000
1.440000	96.740000	81.960000	567.000000	0.000000	139.000000	60.000000	0.000000	-43.000000
1.450000	96.850000	81.470000	550.000000	0.000000	139.000000	60.000000	11.000000	-49.000000
1.460000	96.970000	81.200000	474.000000	0.000000	138.000000	59.000000	12.000000	-27.000000
1.470000	97.140000	81.090000	223.000000	0.000000	138.000000	59.000000	17.000000	-11.000000
1.480000	97.140000	81.090000	0.000000	1.000000	136.000000	60.000000	0.000000	0.000000
1.490000	97.410000	81.360000	0.000000	0.000000	138.000000	60.000000	27.000000	27.000000
1.500000	97.410000	81.870000	0.000000	0.000000	138.000000	60.000000	0.000000	51.000000
1.510000	97.220000	82.540000	0.000000	0.000000	138.000000	60.000000	-19.000000	67.000000
1.520000	97.100000	83.170000	0.000000	0.000000	138.000000	60.000000	-12.000000	63.000000
1.530000	97.100000	83.590000	0.000000	0.000000	138.000000	60.000000	0.000000	42.000000
1.540000	97.160000	83.880000	0.000000	0.000000	138.000000	60.000000	6.000000	29.000000
1.550000	97.160000	83.880000	191.000000	1.000000	138.000000	60.000000	0.000000	0.000000
1.560000	97.270000	84.130000	206.000000	0.000000	138.000000	60.000000	11.000000	25.000000
1.570000	97.220000	84.130000	209.000000	0.000000	138.000000	60.000000	-5.000000	0.000000
1.580000	97.280000	84.130000	158.000000	0.000000	138.000000	60.000000	6.000000	0.000000
1.590000	97.280000	84.130000	0.000000	1.000000	138.000000	60.000000	0.000000	0.000000
1.600000	97.540000	83.870000	0.000000	0.000000	138.000000	60.000000	26.000000	-26.000000
1.610000	97.680000	83.700000	0.000000	0.000000	138.000000	60.000000	14.000000	-17.000000
1.620000	97.750000	83.700000	0.000000	0.000000	138.000000	60.000000	7.000000	0.000000
1.630000	97.750000	83.700000	0.000000	0.000000	138.000000	60.000000	0.000000	0.000000
1.640000	97.990000	83.640000	0.000000	0.000000	138.000000	60.000000	24.000000	-6.000000
1.650000	98.210000	83.570000	0.000000	0.000000	139.000000	61.000000	22.000000	-7.000000
1.660000	98.210000	83.570000	213.000000	1.000000	139.000000	61.000000	0.000000	0.000000
1.670000	98.210000	83.570000	316.000000	0.000000	141.000000	60.000000	0.000000	0.000000
1.680000	98.090000	83.300000	448.000000	0.000000	141.000000	60.000000	-12.000000	-27.000000
1.690000	98.000000	83.160000	548.000000	0.000000	141.000000	60.000000	-9.000000	-14.000000
1.700000	98.000000	82.850000	616.000000	0.000000	141.000000	60.000000	0.000000	-31.000000
1.710000	97.930000	82.440000	617.000000	0.000000	141.000000	60.000000	-7.000000	-41.000000
1.720000	98.030000	82.180000	624.000000	0.000000	141.000000	60.000000	10.000000	-26.000000
1.730000	98.240000	81.910000	620.000000	0.000000	139.000000	60.000000	21.000000	-27.000000
1.740000	98.530000	81.800000	608.000000	0.000000	139.000000	60.000000	29.000000	-11.000000
1.750000	98.960000	81.800000	588.000000	0.000000	139.000000	60.000000	43.000000	0.000000
1.760000	99.480000	81.960000	548.000000	0.000000	139.000000	60.000000	52.000000	16.000000
1.770000	99.930000	82.280000	518.000000	0.000000	139.000000	61.000000	45.000000	32.000000
1.780000	100.130000	82.710000	519.000000	0.000000	139.000000	61.000000	20.000000	43.000000
1.790000	100.130000	83.120000	533.000000	0.000000	139.000000	61.000000	0.000000	41.000000
1.800000	100.130000	83.440000	563.000000	0.000000	141.000000	61.000000	0.000000	32.000000
1.810000	99.950000	83.540000	577.000000	0.000000	141.000000	61.000000	-18.000000	10.000000
1.820000	99.770000	83.540000	581.000000	0.000000	144.000000	61.000000	-18.000000	0.000000
1.830000	99.640000	83.430000	584.000000	0.000000	144.000000	61.000000	-13.000000	-11.000000
1.840000	99.550000	83.200000	589.000000	0.000000	144.000000	61.000000	-9.000000	-23.000000
1.850000	99.550000	82.860000	592.000000	0.000000	144.000000	61.000000	0.000000	-34.000000
1.860000	99.630000	82.500000	580.000000	0.000000	144.000000	61.000000	8.000000	-36.000000
1.870000	99.940000	82.260000	537.000000	0.000000	144.000000	61.000000	31.000000	-24.000000
1.880000	100.390000	82.110000	473.000000	0.000000	144.000000	61.000000	45.000000	-15.000000
1.890000	100.890000	82.110000	312.000000	0.000000	144.000000	61.000000	50.000000	0.000000
1.900000	101.400000	82.230000	139.000000	0.000000	144.000000	61.000000	51.000000	12.000000
1.910000	101.890000	82.420000	20.000000	0.000000	143.000000	62.000000	49.000000	19.000000
1.920000	102.150000	82.720000	61.000000	0.000000	143.000000	62.000000	26.000000	30.000000
1.930000	102.260000	83.080000	184.000000	0.000000	143.000000	62.000000	11.000000	36.000000
1.940000	102.120000	83.490000	307.000000	0.000000	143.000000	62.000000	-14.000000	41.000000
1.950000	101.860000	83.780000	431.000000	0.000000	144.000000	62.000000	-26.000000	29.000000
1.960000	101.520000	83.900000	493.000000	0.000000	144.000000	62.000000	-34.000000	12.000000
1.970000	101.040000	83.900000	545.000000	0.000000	144.000000	62.000000	-48.000000	0.000000
1.980000	100.500000	83.800000	585.000000	0.000000	144.000000	62.000000	-54.000000	-10.000000
1.990000	99.930000	83.620000	614.000000	0.000000	144.000000	62.000000	-57.000000	-18.000000
2.000000	99.500000	83.400000	611.000000	0.000000	146.000000	62.000000	-43.000000	-22.000000
2.010000	99.420000	83.240000	616.000000	0.000000	146.000000	62.000000	-8.000000	-16.000000
2.020000	99.580000	83.010000	624.000000	0.000000	144.000000	61.000000	16.000000	-23.000000
2.030000	99.860000	82.700000	630.000000	0.000000	144.000000	61.000000	28.000000	-31.000000
2.040000	100.360000	82.490000	639.000000	0.000000	144.000000	61.000000	50.000000	-21.000000
2.050000	101.000000	82.310000	647.000000	0.000000	142.000000	61.000000	64.000000	-18.000000
2.060000	101.600000	82.160000	641.000000	0.000000	142.000000	61.000000	60.000000	-15.000000
2.070000	102.040000	82.060000	581.000000	0.000000	142.000000	61.000000	44.000000	-10.000000
2.080000	102.380000	82.060000	346.000000	0.000000	142.000000	61.000000	34.000000	0.000000
2.090000	102.380000	82.060000	0.000000	1.000000	143.000000	62.000000	0.000000	0.000000
2.100000	102.990000	82.170000	0.000000	0.000000	143.000000	62.000000	61.000000	11.000000
2.110000	103.200000	82.490000	0.000000	0.000000	143.000000	62.000000	21.000000	32.000000
2.120000	103.340000	82.940000	0.000000	0.000000	143.000000	62.000000	14.000000	45.000000
2.130000	103.720000	83.490000	0.000000	0.000000	143.000000	62.000000	38.000000	55.000000
2.140000	104.260000	84.040000	0.000000	0.000000	141.000000	61.000000	54.000000	55.000000
2.150000	104.900000	84.540000	0.000000	0.000000	141.000000	61.000000	64.000000	50.000000
2.160000	105.510000	84.990000	0.000000	0.000000	139.000000	61.000000	61.000000	45.000000
2.170000	105.510000	84.990000	325.000000	1.000000	138.000000	60.000000	0.000000	0.000000
2.180000	105.780000	85.530000	455.000000	0.000000	139.000000	60.000000	27.000000	54.000000
2.190000	105.340000	85.690000	570.000000	0.000000	139.000000	60.000000	-44.000000	16.000000
2.200000	104.870000	85.790000	646.000000	0.000000	138.000000	59.000000	-47.000000	10.000000
2.210000	104.200000	85.650000	678.000000	0.000000	136.000000	60.000000	-67.000000	-14.000000
