t	x	y	pressure	penup	azimuth	inclination	v_x	v_y
0.000000	58.580000	81.890000	90.000000	1.000000	156.000000	53.000000	0.000000	0.000000
0.010000	58.880000	82.560000	173.000000	0.000000	156.000000	53.000000	30.000000	67.000000
0.020000	58.880000	82.560000	297.000000	0.000000	157.000000	54.000000	0.000000	0.000000
0.030000	58.770000	82.630000	368.000000	0.000000	157.000000	54.000000	-11.000000	7.000000
0.040000	58.710000	82.700000	427.000000	0.000000	157.000000	54.000000	-6.000000	7.000000
0.050000	58.710000	82.700000	443.000000	0.000000	158.000000	53.000000	0.000000	0.000000
0.060000	58.300000	82.890000	445.000000	0.000000	158.000000	53.000000	-41.000000	19.000000
0.070000	57.850000	82.990000	485.000000	0.000000	158.000000	53.000000	-45.000000	10.000000
0.080000	57.330000	83.070000	492.000000	0.000000	158.000000	53.000000	-52.000000	8.000000
0.090000	56.750000	83.070000	516.000000	0.000000	158.000000	52.000000	-58.000000	0.000000
0.100000	56.130000	82.910000	541.000000	0.000000	157.000000	52.000000	-62.000000	-16.000000
0.110000	55.330000	82.580000	567.000000	0.000000	157.000000	52.000000	-80.000000	-33.000000
0.120000	54.410000	82.030000	589.000000	0.000000	156.000000	51.000000	-92.000000	-55.000000
0.130000	53.340000	81.210000	627.000000	0.000000	156.000000	51.000000	-107.000000	-82.000000
0.140000	52.240000	80.220000	670.000000	0.000000	155.000000	52.000000	-110.000000	-99.000000
0.150000	51.110000	79.050000	684.000000	0.000000	154.000000	52.000000	-113.000000	-117.000000
0.160000	50.550000	78.100000	691.000000	0.000000	154.000000	52.000000	-56.000000	-95.000000
0.170000	50.440000	77.460000	691.000000	0.000000	153.000000	53.000000	-11.000000	-64.000000
0.180000	50.630000	76.920000	691.000000	0.000000	153.000000	53.000000	19.000000	-54.000000
0.190000	51.020000	76.500000	702.000000	0.000000	153.000000	53.000000	39.000000	-42.000000
0.200000	51.980000	76.130000	705.000000	0.000000	152.000000	54.000000	96.000000	-37.000000
0.210000	53.330000	76.060000	727.000000	0.000000	152.000000	54.000000	135.000000	-7.000000
0.220000	55.510000	76.180000	728.000000	0.000000	152.000000	54.000000	218.000000	12.000000
0.230000	58.260000	76.600000	748.000000	0.000000	153.000000	55.000000	275.000000	42.000000
0.240000	61.390000	77.000000	748.000000	0.000000	153.000000	55.000000	313.000000	40.000000
0.250000	64.440000	77.420000	757.000000	0.000000	153.000000	55.000000	305.000000	42.000000
0.260000	66.930000	77.880000	758.000000	0.000000	154.000000	55.000000	249.000000	46.000000
0.270000	69.040000	78.070000	770.000000	0.000000	154.000000	55.000000	211.000000	19.000000
0.280000	70.500000	78.220000	808.000000	0.000000	156.000000	55.000000	146.000000	15.000000
0.290000	71.490000	78.220000	861.000000	0.000000	158.000000	55.000000	99.000000	0.000000
0.300000	72.160000	78.140000	912.000000	0.000000	159.000000	55.000000	67.000000	-8.000000
0.310000	72.540000	78.090000	992.000000	0.000000	160.000000	55.000000	38.000000	-5.000000
0.320000	72.670000	78.090000	1023.000000	0.000000	160.000000	55.000000	13.000000	0.000000
0.330000	72.620000	78.020000	1023.000000	0.000000	162.000000	56.000000	-5.000000	-7.000000
0.340000	72.620000	78.020000	1023.000000	0.000000	163.000000	56.000000	0.000000	0.000000
0.350000	72.560000	78.020000	1023.000000	0.000000	165.000000	56.000000	-6.000000	0.000000
0.360000	72.560000	78.020000	1023.000000	0.000000	165.000000	56.000000	0.000000	0.000000
0.370000	72.560000	77.960000	1023.000000	0.000000	166.000000	56.000000	0.000000	-6.000000
0.380000	72.560000	77.960000	1023.000000	0.000000	168.000000	56.000000	0.000000	0.000000
0.390000	72.560000	77.960000	1023.000000	0.000000	169.000000	57.000000	0.000000	0.000000
0.400000	72.560000	77.960000	1023.000000	0.000000	169.000000	57.000000	0.000000	0.000000
0.410000	72.560000	77.960000	1023.000000	0.000000	171.000000	57.000000	0.000000	0.000000
0.420000	72.560000	77.960000	1023.000000	0.000000	172.000000	57.000000	0.000000	0.000000
0.430000	72.560000	77.960000	1023.000000	0.000000	172.000000	57.000000	0.000000	0.000000
0.440000	72.560000	77.960000	1023.000000	0.000000	172.000000	57.000000	0.000000	0.000000
0.450000	72.560000	77.960000	1023.000000	0.000000	172.000000	57.000000	0.000000	0.000000
0.460000	72.560000	77.960000	1023.000000	0.000000	172.000000	57.000000	0.000000	0.000000
0.470000	72.560000	77.960000	1023.000000	0.000000	172.000000	57.000000	0.000000	0.000000
0.480000	72.560000	77.960000	1023.000000	0.000000	172.000000	57.000000	0.000000	0.000000
0.490000	72.560000	77.960000	888.000000	0.000000	172.000000	57.000000	0.000000	0.000000
0.500000	72.560000	77.960000	0.000000	1.000000	172.000000	57.000000	0.000000	0.000000
0.510000	72.560000	77.960000	0.000000	0.000000	172.000000	57.000000	0.000000	0.000000
0.520000	71.990000	78.160000	0.000000	0.000000	172.000000	57.000000	-57.000000	20.000000
0.530000	71.170000	78.520000	0.000000	0.000000	172.000000	57.000000	-82.000000	36.000000
0.540000	70.130000	78.790000	0.000000	0.000000	171.000000	56.000000	-104.000000	27.000000
0.550000	69.660000	79.030000	0.000000	0.000000	170.000000	55.000000	-47.000000	24.000000
0.560000	69.420000	79.210000	0.000000	0.000000	169.000000	53.000000	-24.000000	18.000000
0.570000	69.330000	79.210000	0.000000	0.000000	168.000000	50.000000	-9.000000	0.000000
0.580000	69.000000	79.210000	0.000000	0.000000	166.000000	48.000000	-33.000000	0.000000
0.590000	68.500000	79.080000	0.000000	0.000000	166.000000	45.000000	-50.000000	-13.000000
0.600000	67.890000	78.950000	0.000000	0.000000	165.000000	43.000000	-61.000000	-13.000000
0.610000	67.100000	78.800000	0.000000	0.000000	165.000000	41.000000	-79.000000	-15.000000
0.620000	66.090000	78.630000	0.000000	0.000000	165.000000	40.000000	-101.000000	-17.000000
0.630000	64.940000	78.410000	0.000000	0.000000	165.000000	39.000000	-115.000000	-22.000000
0.640000	63.660000	78.270000	0.000000	0.000000	165.000000	39.000000	-128.000000	-14.000000
0.650000	62.400000	78.190000	0.000000	0.000000	163.000000	40.000000	-126.000000	-8.000000
0.660000	61.380000	78.130000	0.000000	0.000000	163.000000	41.000000	-102.000000	-6.000000
0.670000	60.520000	78.060000	0.000000	0.000000	161.000000	41.000000	-86.000000	-7.000000
0.680000	59.750000	77.960000	0.000000	0.000000	160.000000	42.000000	-77.000000	-10.000000
0.690000	58.730000	77.850000	0.000000	0.000000	158.000000	43.000000	-102.000000	-11.000000
0.700000	57.550000	77.660000	0.000000	0.000000	156.000000	43.000000	-118.000000	-19.000000
0.710000	56.060000	77.450000	0.000000	0.000000	154.000000	44.000000	-149.000000	-21.000000
0.720000	54.600000	77.230000	0.000000	0.000000	154.000000	45.000000	-146.000000	-22.000000
0.730000	53.490000	77.160000	0.000000	0.000000	153.000000	46.000000	-111.000000	-7.000000
0.740000	52.600000	77.160000	0.000000	0.000000	151.000000	46.000000	-89.000000	0.000000
0.750000	52.240000	77.160000	0.000000	0.000000	150.000000	47.000000	-36.000000	0.000000
0.760000	52.120000	77.220000	0.000000	0.000000	151.000000	47.000000	-12.000000	6.000000
0.770000	52.120000	77.150000	0.000000	0.000000	150.000000	48.000000	0.000000	-7.000000
0.780000	52.040000	77.030000	0.000000	0.000000	150.000000	48.000000	-8.000000	-12.000000
0.790000	51.960000	76.890000	0.000000	0.000000	149.000000	49.000000	-8.000000	-14.000000
0.800000	51.900000	76.780000	0.000000	0.000000	148.000000	48.000000	-6.000000	-11.000000
0.810000	51.900000	76.690000	0.000000	0.000000	147.000000	49.000000	0.000000	-9.000000
0.820000	52.000000	76.690000	0.000000	0.000000	147.000000	49.000000	10.000000	0.000000
0.830000	52.140000	76.690000	0.000000	0.000000	148.000000	50.000000	14.000000	0.000000
0.840000	52.370000	76.690000	0.000000	0.000000	148.000000	50.000000	23.000000	0.000000
0.850000	52.650000	76.690000	0.000000	0.000000	148.000000	50.000000	28.000000	0.000000
0.860000	52.800000	76.640000	0.000000	0.000000	148.000000	50.000000	15.000000	-5.000000
0.870000	52.880000	76.640000	0.000000	0.000000	150.000000	50.000000	8.000000	0.000000
0.880000	52.880000	76.640000	0.000000	0.000000	150.000000	50.000000	0.000000	0.000000
0.890000	52.880000	76.640000	0.000000	0.000000	149.000000	51.000000	0.000000	0.000000
0.900000	52.880000	76.640000	0.000000	0.000000	149.000000	51.000000	0.000000	0.000000
0.910000	52.830000	76.640000	0.000000	0.000000	150.000000	51.000000	-5.000000	0.000000
0.920000	52.830000	76.640000	0.000000	0.000000	150.000000	51.000000	0.000000	0.000000
0.930000	52.780000	76.640000	0.000000	0.000000	150.000000	51.000000	-5.000000	0.000000
0.940000	52.780000	76.590000	0.000000	0.000000	150.000000	51.000000	0.000000	-5.000000
0.950000	52.780000	76.590000	0.000000	0.000000	150.000000	51.000000	0.000000	0.000000
0.960000	52.780000	76.590000	0.000000	0.000000	149.000000	52.000000	0.000000	0.000000
0.970000	52.780000	76.590000	0.000000	0.000000	149.000000	52.000000	0.000000	0.000000
0.980000	52.830000	76.590000	0.000000	0.000000	149.000000	52.000000	5.000000	0.000000
0.990000	52.830000	76.590000	0.000000	0.000000	149.000000	52.000000	0.000000	0.000000
1.000000	52.830000	76.590000	0.000000	0.000000	149.000000	52.000000	0.000000	0.000000
1.010000	52.830000	76.520000	0.000000	0.000000	149.000000	52.000000	0.000000	-7.000000
1.020000	52.770000	76.520000	0.000000	0.000000	149.000000	52.000000	-6.000000	0.000000
1.030000	52.770000	76.460000	0.000000	0.000000	149.000000	52.000000	0.000000	-6.000000
1.040000	52.770000	76.460000	0.000000	0.000000	149.000000	52.000000	0.000000	0.000000
1.050000	52.770000	76.460000	0.000000	0.000000	149.000000	52.000000	0.000000	0.000000
1.060000	52.770000	76.460000	0.000000	0.000000	149.000000	52.000000	0.000000	0.000000
1.070000	52.770000	76.460000	0.000000	0.000000	149.000000	52.000000	0.000000	0.000000
1.080000	52.770000	76.460000	0.000000	0.000000	149.000000	52.000000	0.000000	0.000000
1.090000	52.770000	76.460000	0.000000	0.000000	149.000000	52.000000	0.000000	0.000000
1.100000	52.770000	76.460000	0.000000	0.000000	149.000000	52.000000	0.000000	0.000000
1.110000	52.770000	76.460000	0.000000	0.000000	149.000000	52.000000	0.000000	0.000000
1.120000	52.770000	76.460000	0.000000	0.000000	149.000000	52.000000	0.000000	0.000000
1.130000	52.770000	76.460000	0.000000	0.000000	149.000000	52.000000	0.000000	0.000000
1.140000	52.520000	76.310000	0.000000	0.000000	149.000000	52.000000	-25.000000	-15.000000
1.150000	52.440000	76.240000	0.000000	0.000000	149.000000	52.000000	-8.000000	-7.000000
1.160000	52.440000	76.240000	0.000000	0.000000	149.000000	52.000000	0.000000	0.000000
1.170000	52.440000	76.190000	0.000000	0.000000	149.000000	52.000000	0.000000	-5.000000
1.180000	52.540000	76.190000	0.000000	0.000000	149.000000	52.000000	10.000000	0.000000
1.190000	52.660000	76.250000	0.000000	0.000000	149.000000	52.000000	12.000000	6.000000
1.200000	52.810000	76.250000	0.000000	0.000000	149.000000	52.000000	15.000000	0.000000
1.210000	52.950000	76.330000	0.000000	0.000000	149.000000	52.000000	14.000000	8.000000
1.220000	53.060000	76.330000	0.000000	0.000000	149.000000	52.000000	11.000000	0.000000
1.230000	53.160000	76.330000	0.000000	0.000000	149.000000	52.000000	10.000000	0.000000
1.240000	53.160000	76.330000	0.000000	0.000000	149.000000	52.000000	0.000000	0.000000
1.250000	53.250000	76.260000	0.000000	0.000000	149.000000	52.000000	9.000000	-7.000000
1.260000	53.360000	76.260000	0.000000	0.000000	149.000000	52.000000	11.000000	0.000000
1.270000	53.510000	76.260000	0.000000	0.000000	149.000000	52.000000	15.000000	0.000000
1.280000	53.680000	76.360000	0.000000	0.000000	150.000000	52.000000	17.000000	10.000000
1.290000	53.910000	76.470000	0.000000	0.000000	150.000000	52.000000	23.000000	11.000000
1.300000	54.170000	76.620000	0.000000	0.000000	150.000000	52.000000	26.000000	15.000000
1.310000	54.440000	76.790000	0.000000	0.000000	150.000000	52.000000	27.000000	17.000000
1.320000	54.700000	76.950000	0.000000	0.000000	149.000000	53.000000	26.000000	16.000000
1.330000	54.900000	77.100000	0.000000	0.000000	149.000000	53.000000	20.000000	15.000000
1.340000	55.060000	77.230000	0.000000	0.000000	149.000000	53.000000	16.000000	13.000000
1.350000	55.180000	77.340000	0.000000	0.000000	151.000000	53.000000	12.000000	11.000000
1.360000	55.300000	77.480000	0.000000	0.000000	150.000000	54.000000	12.000000	14.000000
1.370000	55.300000	77.480000	65.000000	1.000000	150.000000	54.000000	0.000000	0.000000
1.380000	55.520000	77.820000	120.000000	0.000000	150.000000	54.000000	22.000000	34.000000
1.390000	55.610000	78.020000	208.000000	0.000000	150.000000	54.000000	9.000000	20.000000
1.400000	55.750000	78.240000	274.000000	0.000000	151.000000	54.000000	14.000000	22.000000
1.410000	55.890000	78.450000	359.000000	0.000000	151.000000	54.000000	14.000000	21.000000
1.420000	55.940000	78.610000	423.000000	0.000000	151.000000	54.000000	5.000000	16.000000
1.430000	55.940000	78.710000	461.000000	0.000000	151.000000	54.000000	0.000000	10.000000
1.440000	55.780000	78.760000	512.000000	0.000000	151.000000	54.000000	-16.000000	5.000000
1.450000	55.670000	78.760000	519.000000	0.000000	151.000000	54.000000	-11.000000	0.000000
1.460000	55.290000	78.660000	530.000000	0.000000	152.000000	54.000000	-38.000000	-10.000000
1.470000	54.730000	78.400000	544.000000	0.000000	152.000000	54.000000	-56.000000	-26.000000
1.480000	54.190000	78.040000	536.000000	0.000000	151.000000	53.000000	-54.000000	-36.000000
1.490000	53.700000	77.650000	546.000000	0.000000	151.000000	53.000000	-49.000000	-39.000000
1.500000	53.310000	77.210000	537.000000	0.000000	150.000000	54.000000	-39.000000	-44.000000
1.510000	53.160000	76.770000	536.000000	0.000000	150.000000	54.000000	-15.000000	-44.000000
1.520000	53.160000	76.450000	546.000000	0.000000	150.000000	54.000000	0.000000	-32.000000
1.530000	53.410000	76.210000	530.000000	0.000000	148.000000	54.000000	25.000000	-24.000000
1.540000	53.720000	76.210000	520.000000	0.000000	147.000000	55.000000	31.000000	0.000000
1.550000	54.200000	76.330000	488.000000	0.000000	147.000000	55.000000	48.000000	12.000000
1.560000	54.770000	76.570000	475.000000	0.000000	147.000000	55.000000	57.000000	24.000000
1.570000	55.230000	76.930000	475.000000	0.000000	147.000000	55.000000	46.000000	36.000000
1.580000	55.500000	77.290000	493.000000	0.000000	147.000000	55.000000	27.000000	36.000000
1.590000	55.650000	77.670000	518.000000	0.000000	147.000000	55.000000	15.000000	38.000000
1.600000	55.650000	78.070000	560.000000	0.000000	149.000000	55.000000	0.000000	40.000000
1.610000	55.650000	78.330000	630.000000	0.000000	149.000000	55.000000	0.000000	26.000000
1.620000	55.570000	78.410000	676.000000	0.000000	149.000000	55.000000	-8.000000	8.000000
1.630000	55.570000	78.410000	699.000000	0.000000	149.000000	55.000000	0.000000	0.000000
1.640000	55.570000	78.410000	699.000000	0.000000	149.000000	55.000000	0.000000	0.000000
1.650000	55.570000	78.410000	705.000000	0.000000	150.000000	54.000000	0.000000	0.000000
1.660000	55.200000	77.990000	711.000000	0.000000	150.000000	54.000000	-37.000000	-42.000000
1.670000	54.980000	77.640000	713.000000	0.000000	150.000000	54.000000	-22.000000	-35.000000
1.680000	54.810000	77.320000	716.000000	0.000000	150.000000	54.000000	-17.000000	-32.000000
1.690000	54.810000	77.050000	716.000000	0.000000	150.000000	54.000000	0.000000	-27.000000
1.700000	54.900000	76.820000	714.000000	0.000000	149.000000	55.000000	9.000000	-23.000000
1.710000	55.080000	76.620000	716.000000	0.000000	149.000000	55.000000	18.000000	-20.000000
1.720000	55.310000	76.480000	710.000000	0.000000	149.000000	55.000000	23.000000	-14.000000
1.730000	55.630000	76.370000	705.000000	0.000000	149.000000	55.000000	32.000000	-11.000000
1.740000	56.020000	76.430000	703.000000	0.000000	149.000000	55.000000	39.000000	6.000000
1.750000	56.340000	76.490000	702.000000	0.000000	149.000000	55.000000	32.000000	6.000000
1.760000	56.600000	76.550000	708.000000	0.000000	149.000000	55.000000	26.000000	6.000000
1.770000	56.690000	76.550000	717.000000	0.000000	150.000000	55.000000	9.000000	0.000000
1.780000	56.790000	76.550000	724.000000	0.000000	150.000000	55.000000	10.000000	0.000000
1.790000	56.790000	76.610000	755.000000	0.000000	150.000000	55.000000	0.000000	6.000000
1.800000	56.790000	76.610000	785.000000	0.000000	150.000000	55.000000	0.000000	0.000000
1.810000	56.790000	76.610000	826.000000	0.000000	150.000000	55.000000	0.000000	0.000000
1.820000	56.790000	76.610000	882.000000	0.000000	150.000000	55.000000	0.000000	0.000000
1.830000	56.840000	76.610000	941.000000	0.000000	150.000000	55.000000	5.000000	0.000000
1.840000	56.840000	76.610000	1020.000000	0.000000	150.000000	55.000000	0.000000	0.000000
1.850000	56.840000	76.610000	1023.000000	0.000000	150.000000	55.000000	0.000000	0.000000
1.860000	56.840000	76.610000	1023.000000	0.000000	150.000000	55.000000	0.000000	0.000000
1.870000	56.840000	76.610000	1023.000000	0.000000	150.000000	55.000000	0.000000	0.000000
1.880000	56.840000	76.610000	1023.000000	0.000000	150.000000	55.000000	0.000000	0.000000
1.890000	56.840000	76.610000	1023.000000	0.000000	149.000000	56.000000	0.000000	0.000000
1.900000	56.840000	76.610000	1023.000000	0.000000	149.000000	56.000000	0.000000	0.000000
1.910000	56.890000	76.610000	1023.000000	0.000000	149.000000	56.000000	5.000000	0.000000
1.920000	56.890000	76.610000	1023.000000	0.000000	149.000000	56.000000	0.000000	0.000000
1.930000	56.890000	76.660000	1023.000000	0.000000	148.000000	56.000000	0.000000	5.000000
1.940000	56.890000	76.660000	1023.000000	0.000000	147.000000	56.000000	0.000000	0.000000
1.950000	56.890000	76.660000	1023.000000	0.000000	147.000000	56.000000	0.000000	0.000000
1.960000	56.890000	76.660000	1023.000000	0.000000	147.000000	56.000000	0.000000	0.000000
1.970000	56.890000	76.660000	1023.000000	0.000000	147.000000	56.000000	0.000000	0.000000
1.980000	56.890000	76.660000	1023.000000	0.000000	146.000000	57.000000	0.000000	0.000000
1.990000	56.890000	76.660000	1023.000000	0.000000	146.000000	57.000000	0.000000	0.000000
2.000000	56.890000	76.660000	1023.000000	0.000000	146.000000	57.000000	0.000000	0.000000
2.010000	56.890000	76.660000	1023.000000	0.000000	146.000000	57.000000	0.000000	0.000000
2.020000	56.890000	76.660000	1023.000000	0.000000	146.000000	57.000000	0.000000	0.000000
2.030000	56.890000	76.660000	1023.000000	0.000000	146.000000	57.000000	0.000000	0.000000
2.040000	56.890000	76.710000	1023.000000	0.000000	144.000000	57.000000	0.000000	5.000000
2.050000	56.890000	76.710000	1023.000000	0.000000	144.000000	57.000000	0.000000	0.000000
2.060000	56.890000	76.710000	1023.000000	0.000000	144.000000	57.000000	0.000000	0.000000
2.070000	56.890000	76.710000	1023.000000	0.000000	144.000000	57.000000	0.000000	0.000000
2.080000	56.890000	76.710000	1023.000000	0.000000	145.000000	56.000000	0.000000	0.000000
2.090000	56.890000	76.710000	1023.000000	0.000000	145.000000	56.000000	0.000000	0.000000
2.100000	56.890000	76.710000	1018.000000	0.000000	145.000000	56.000000	0.000000	0.000000
2.110000	56.890000	76.710000	982.000000	0.000000	145.000000	56.000000	0.000000	0.000000
2.120000	56.890000	76.710000	947.000000	0.000000	145.000000	56.000000	0.000000	0.000000
2.130000	56.890000	76.710000	912.000000	0.000000	145.000000	56.000000	0.000000	0.000000
2.140000	56.890000	76.710000	894.000000	0.000000	145.000000	56.000000	0.000000	0.000000
2.150000	56.890000	76.710000	892.000000	0.000000	145.000000	56.000000	0.000000	0.000000
2.160000	56.890000	76.710000	908.000000	0.000000	146.000000	55.000000	0.000000	0.000000
2.170000	56.890000	76.710000	909.000000	0.000000	146.000000	55.000000	0.000000	0.000000
2.180000	56.890000	76.710000	909.000000	0.000000	146.000000	55.000000	0.000000	0.000000
2.190000	56.890000	76.710000	909.000000	0.000000	146.000000	55.000000	0.000000	0.000000
2.200000	56.890000	76.710000	905.000000	0.000000	146.000000	55.000000	0.000000	0.000000
2.210000	56.890000	76.710000	891.000000	0.000000	146.000000	55.000000	0.000000	0.000000
2.220000	56.890000	76.710000	878.000000	0.000000	145.000000	56.000000	0.000000	0.000000
2.230000	56.940000	77.000000	864.000000	0.000000	145.000000	56.000000	5.000000	29.000000
