t	x	y	pressure	penup	azimuth	inclination	v_x	v_y
0.000000	17.020000	81.820000	61.000000	1.000000	135.000000	60.000000	0.000000	0.000000
0.010000	17.020000	81.820000	219.000000	0.000000	136.000000	61.000000	0.000000	0.000000
0.020000	17.220000	81.530000	334.000000	0.000000	136.000000	61.000000	20.000000	-29.000000
0.030000	17.420000	81.530000	458.000000	0.000000	138.000000	61.000000	20.000000	0.000000
0.040000	17.910000	81.580000	554.000000	0.000000	140.000000	62.000000	49.000000	5.000000
0.050000	18.700000	81.760000	616.000000	0.000000	140.000000	62.000000	79.000000	18.000000
0.060000	19.700000	82.050000	668.000000	0.000000	141.000000	61.000000	100.000000	29.000000
0.070000	21.200000	82.490000	684.000000	0.000000	141.000000	61.000000	150.000000	44.000000
0.080000	22.710000	82.960000	693.000000	0.000000	142.000000	61.000000	151.000000	47.000000
0.090000	24.230000	83.460000	705.000000	0.000000	144.000000	61.000000	152.000000	50.000000
0.100000	25.460000	84.040000	713.000000	0.000000	145.000000	60.000000	123.000000	58.000000
0.110000	26.500000	84.630000	724.000000	0.000000	145.000000	60.000000	104.000000	59.000000
0.120000	27.210000	85.230000	728.000000	0.000000	145.000000	60.000000	71.000000	60.000000
0.130000	27.490000	85.540000	762.000000	0.000000	146.000000	60.000000	28.000000	31.000000
0.140000	27.490000	85.660000	770.000000	0.000000	146.000000	60.000000	0.000000	12.000000
0.150000	27.200000	85.730000	757.000000	0.000000	148.000000	60.000000	-29.000000	7.000000
0.160000	26.000000	85.470000	756.000000	0.000000	149.000000	59.000000	-120.000000	-26.000000
0.170000	24.180000	85.000000	755.000000	0.000000	149.000000	59.000000	-182.000000	-47.000000
0.180000	21.760000	84.040000	725.000000	0.000000	150.000000	60.000000	-242.000000	-96.000000
0.190000	18.580000	82.720000	694.000000	0.000000	150.000000	60.000000	-318.000000	-132.000000
0.200000	14.880000	81.170000	696.000000	0.000000	148.000000	60.000000	-370.000000	-155.000000
0.210000	11.680000	79.380000	728.000000	0.000000	147.000000	61.000000	-320.000000	-179.000000
0.220000	9.710000	77.920000	728.000000	0.000000	145.000000	60.000000	-197.000000	-146.000000
0.230000	8.560000	77.370000	730.000000	0.000000	142.000000	61.000000	-115.000000	-55.000000
0.240000	9.240000	77.310000	768.000000	0.000000	141.000000	61.000000	68.000000	-6.000000
0.250000	10.850000	77.460000	819.000000	0.000000	138.000000	61.000000	161.000000	15.000000
0.260000	13.090000	78.180000	873.000000	0.000000	138.000000	61.000000	224.000000	72.000000
0.270000	16.440000	79.280000	896.000000	0.000000	138.000000	61.000000	335.000000	110.000000
0.280000	20.390000	80.280000	908.000000	0.000000	136.000000	61.000000	395.000000	100.000000
0.290000	24.750000	81.130000	908.000000	0.000000	138.000000	61.000000	436.000000	85.000000
0.300000	28.950000	81.880000	882.000000	0.000000	139.000000	61.000000	420.000000	75.000000
0.310000	32.550000	82.600000	830.000000	0.000000	142.000000	61.000000	360.000000	72.000000
0.320000	35.760000	83.280000	797.000000	0.000000	145.000000	60.000000	321.000000	68.000000
0.330000	37.980000	83.890000	770.000000	0.000000	148.000000	60.000000	222.000000	61.000000
0.340000	39.060000	84.240000	727.000000	0.000000	152.000000	60.000000	108.000000	35.000000
0.350000	39.370000	84.420000	647.000000	0.000000	155.000000	60.000000	31.000000	18.000000
0.360000	39.180000	84.420000	299.000000	0.000000	157.000000	59.000000	-19.000000	0.000000
0.370000	39.180000	84.420000	0.000000	1.000000	159.000000	59.000000	0.000000	0.000000
0.380000	36.380000	83.760000	0.000000	0.000000	159.000000	59.000000	-280.000000	-66.000000
0.390000	34.190000	83.350000	0.000000	0.000000	160.000000	58.000000	-219.000000	-41.000000
0.400000	31.700000	83.010000	0.000000	0.000000	159.000000	59.000000	-249.000000	-34.000000
0.410000	29.010000	82.710000	0.000000	0.000000	157.000000	59.000000	-269.000000	-30.000000
0.420000	26.210000	82.280000	0.000000	0.000000	156.000000	59.000000	-280.000000	-43.000000
0.430000	23.430000	82.090000	0.000000	0.000000	155.000000	60.000000	-278.000000	-19.000000
0.440000	20.980000	81.760000	0.000000	0.000000	152.000000	60.000000	-245.000000	-33.000000
0.450000	18.750000	81.260000	0.000000	0.000000	148.000000	60.000000	-223.000000	-50.000000
0.460000	17.400000	80.880000	0.000000	0.000000	144.000000	61.000000	-135.000000	-38.000000
0.470000	16.730000	80.740000	0.000000	0.000000	141.000000	61.000000	-67.000000	-14.000000
0.480000	16.510000	80.740000	0.000000	0.000000	137.000000	62.000000	-22.000000	0.000000
0.490000	16.190000	80.740000	0.000000	0.000000	133.000000	62.000000	-32.000000	0.000000
0.500000	16.190000	80.740000	0.000000	0.000000	133.000000	62.000000	0.000000	0.000000
0.510000	16.510000	81.000000	0.000000	0.000000	130.000000	62.000000	32.000000	26.000000
0.520000	17.100000	81.380000	0.000000	0.000000	130.000000	62.000000	59.000000	38.000000
0.530000	17.630000	81.750000	0.000000	0.000000	130.000000	62.000000	53.000000	37.000000
0.540000	17.630000	81.750000	30.000000	1.000000	132.000000	63.000000	0.000000	0.000000
0.550000	18.350000	82.180000	202.000000	0.000000	133.000000	62.000000	72.000000	43.000000
0.560000	18.350000	82.330000	327.000000	0.000000	137.000000	62.000000	0.000000	15.000000
0.570000	18.150000	82.330000	441.000000	0.000000	137.000000	62.000000	-20.000000	0.000000
0.580000	17.820000	82.260000	513.000000	0.000000	137.000000	62.000000	-33.000000	-7.000000
0.590000	17.140000	82.000000	620.000000	0.000000	140.000000	62.000000	-68.000000	-26.000000
0.600000	16.230000	81.550000	668.000000	0.000000	140.000000	62.000000	-91.000000	-45.000000
0.610000	15.510000	80.980000	672.000000	0.000000	140.000000	62.000000	-72.000000	-57.000000
0.620000	15.090000	80.510000	682.000000	0.000000	140.000000	62.000000	-42.000000	-47.000000
0.630000	14.870000	80.140000	685.000000	0.000000	140.000000	62.000000	-22.000000	-37.000000
0.640000	14.930000	79.830000	684.000000	0.000000	138.000000	63.000000	6.000000	-31.000000
0.650000	15.220000	79.600000	687.000000	0.000000	137.000000	62.000000	29.000000	-23.000000
0.660000	15.650000	79.600000	687.000000	0.000000	137.000000	62.000000	43.000000	0.000000
0.670000	16.230000	79.600000	681.000000	0.000000	137.000000	62.000000	58.000000	0.000000
0.680000	16.810000	79.980000	673.000000	0.000000	137.000000	62.000000	58.000000	38.000000
0.690000	17.370000	80.360000	673.000000	0.000000	135.000000	62.000000	56.000000	38.000000
0.700000	17.750000	80.780000	667.000000	0.000000	135.000000	62.000000	38.000000	42.000000
0.710000	18.040000	81.370000	668.000000	0.000000	135.000000	62.000000	29.000000	59.000000
0.720000	18.090000	81.760000	670.000000	0.000000	135.000000	62.000000	5.000000	39.000000
0.730000	18.090000	82.010000	663.000000	0.000000	135.000000	62.000000	0.000000	25.000000
0.740000	18.090000	82.010000	673.000000	0.000000	137.000000	62.000000	0.000000	0.000000
0.750000	18.090000	82.010000	675.000000	0.000000	138.000000	61.000000	0.000000	0.000000
0.760000	17.880000	81.740000	682.000000	0.000000	138.000000	61.000000	-21.000000	-27.000000
0.770000	17.610000	81.280000	676.000000	0.000000	138.000000	61.000000	-27.000000	-46.000000
0.780000	17.510000	80.910000	673.000000	0.000000	139.000000	61.000000	-10.000000	-37.000000
0.790000	17.570000	80.530000	628.000000	0.000000	139.000000	61.000000	6.000000	-38.000000
0.800000	17.740000	80.350000	520.000000	0.000000	138.000000	61.000000	17.000000	-18.000000
0.810000	17.980000	80.350000	205.000000	0.000000	138.000000	61.000000	24.000000	0.000000
0.820000	17.980000	80.350000	0.000000	1.000000	138.000000	61.000000	0.000000	0.000000
0.830000	18.370000	80.680000	0.000000	0.000000	138.000000	61.000000	39.000000	33.000000
0.840000	18.370000	81.030000	0.000000	0.000000	138.000000	61.000000	0.000000	35.000000
0.850000	18.310000	81.490000	0.000000	0.000000	136.000000	61.000000	-6.000000	46.000000
0.860000	18.310000	81.870000	0.000000	0.000000	136.000000	61.000000	0.000000	38.000000
0.870000	18.310000	81.870000	122.000000	1.000000	136.000000	61.000000	0.000000	0.000000
0.880000	18.310000	82.320000	214.000000	0.000000	136.000000	61.000000	0.000000	45.000000
0.890000	18.260000	82.380000	332.000000	0.000000	136.000000	61.000000	-5.000000	6.000000
0.900000	18.380000	82.270000	446.000000	0.000000	136.000000	61.000000	12.000000	-11.000000
0.910000	18.560000	82.060000	467.000000	0.000000	136.000000	61.000000	18.000000	-21.000000
0.920000	18.790000	81.680000	492.000000	0.000000	138.000000	60.000000	23.000000	-38.000000
0.930000	18.870000	81.230000	514.000000	0.000000	138.000000	60.000000	8.000000	-45.000000
0.940000	18.870000	80.730000	515.000000	0.000000	138.000000	60.000000	0.000000	-50.000000
0.950000	18.920000	80.360000	518.000000	0.000000	138.000000	60.000000	5.000000	-37.000000
0.960000	18.920000	80.160000	524.000000	0.000000	138.000000	60.000000	0.000000	-20.000000
0.970000	18.920000	80.080000	532.000000	0.000000	138.000000	60.000000	0.000000	-8.000000
0.980000	18.920000	80.080000	527.000000	0.000000	136.000000	61.000000	0.000000	0.000000
0.990000	18.810000	80.330000	518.000000	0.000000	136.000000	61.000000	-11.000000	25.000000
1.000000	18.750000	80.730000	519.000000	0.000000	136.000000	61.000000	-6.000000	40.000000
1.010000	18.750000	81.220000	519.000000	0.000000	135.000000	60.000000	0.000000	49.000000
1.020000	18.880000	81.620000	516.000000	0.000000	135.000000	60.000000	13.000000	40.000000
1.030000	19.120000	81.870000	521.000000	0.000000	135.000000	60.000000	24.000000	25.000000
1.040000	19.450000	82.100000	522.000000	0.000000	136.000000	61.000000	33.000000	23.000000
1.050000	19.660000	82.100000	526.000000	0.000000	136.000000	61.000000	21.000000	0.000000
1.060000	19.880000	81.970000	537.000000	0.000000	138.000000	60.000000	22.000000	-13.000000
1.070000	20.060000	81.660000	542.000000	0.000000	138.000000	60.000000	18.000000	-31.000000
1.080000	20.220000	81.340000	546.000000	0.000000	136.000000	60.000000	16.000000	-32.000000
1.090000	20.440000	81.030000	559.000000	0.000000	138.000000	59.000000	22.000000	-31.000000
1.100000	20.780000	80.860000	568.000000	0.000000	138.000000	59.000000	34.000000	-17.000000
1.110000	21.190000	80.770000	564.000000	0.000000	138.000000	59.000000	41.000000	-9.000000
1.120000	21.650000	80.840000	572.000000	0.000000	138.000000	59.000000	46.000000	7.000000
1.130000	22.160000	81.070000	583.000000	0.000000	138.000000	59.000000	51.000000	23.000000
1.140000	22.390000	81.420000	613.000000	0.000000	136.000000	58.000000	23.000000	35.000000
1.150000	22.390000	81.700000	631.000000	0.000000	136.000000	58.000000	0.000000	28.000000
1.160000	22.300000	82.060000	649.000000	0.000000	136.000000	58.000000	-9.000000	36.000000
1.170000	22.020000	82.480000	656.000000	0.000000	136.000000	58.000000	-28.000000	42.000000
1.180000	21.650000	82.690000	640.000000	0.000000	136.000000	58.000000	-37.000000	21.000000
1.190000	20.870000	82.560000	610.000000	0.000000	136.000000	58.000000	-78.000000	-13.000000
1.200000	20.030000	82.210000	535.000000	0.000000	136.000000	58.000000	-84.000000	-35.000000
1.210000	19.140000	81.950000	333.000000	0.000000	138.000000	59.000000	-89.000000	-26.000000
1.220000	19.140000	81.950000	0.000000	1.000000	138.000000	59.000000	0.000000	0.000000
1.230000	18.650000	81.460000	0.000000	0.000000	138.000000	59.000000	-49.000000	-49.000000
1.240000	18.790000	81.590000	0.000000	0.000000	136.000000	60.000000	14.000000	13.000000
1.250000	19.290000	81.940000	0.000000	0.000000	136.000000	60.000000	50.000000	35.000000
1.260000	19.910000	82.400000	0.000000	0.000000	136.000000	60.000000	62.000000	46.000000
1.270000	20.600000	82.850000	0.000000	0.000000	136.000000	60.000000	69.000000	45.000000
1.280000	21.080000	83.260000	0.000000	0.000000	135.000000	59.000000	48.000000	41.000000
1.290000	21.550000	83.670000	0.000000	0.000000	135.000000	59.000000	47.000000	41.000000
1.300000	21.550000	83.670000	205.000000	1.000000	136.000000	58.000000	0.000000	0.000000
1.310000	21.780000	84.940000	307.000000	0.000000	138.000000	59.000000	23.000000	127.000000
1.320000	21.580000	85.570000	438.000000	0.000000	138.000000	59.000000	-20.000000	63.000000
1.330000	21.580000	85.880000	512.000000	0.000000	138.000000	59.000000	0.000000	31.000000
1.340000	21.580000	85.970000	530.000000	0.000000	139.000000	60.000000	0.000000	9.000000
1.350000	21.660000	85.970000	564.000000	0.000000	141.000000	59.000000	8.000000	0.000000
1.360000	21.790000	85.560000	594.000000	0.000000	142.000000	59.000000	13.000000	-41.000000
1.370000	21.980000	84.960000	641.000000	0.000000	142.000000	59.000000	19.000000	-60.000000
1.380000	22.120000	84.000000	653.000000	0.000000	142.000000	59.000000	14.000000	-96.000000
1.390000	22.190000	83.170000	664.000000	0.000000	142.000000	59.000000	7.000000	-83.000000
1.400000	22.240000	82.440000	664.000000	0.000000	142.000000	59.000000	5.000000	-73.000000
1.410000	22.350000	81.910000	616.000000	0.000000	141.000000	59.000000	11.000000	-53.000000
1.420000	22.460000	81.550000	489.000000	0.000000	141.000000	59.000000	11.000000	-36.000000
1.430000	22.460000	81.300000	324.000000	0.000000	139.000000	58.000000	0.000000	-25.000000
1.440000	22.460000	81.300000	71.000000	0.000000	140.000000	58.000000	0.000000	0.000000
1.450000	22.460000	81.300000	0.000000	1.000000	139.000000	58.000000	0.000000	0.000000
1.460000	22.570000	82.140000	0.000000	0.000000	138.000000	58.000000	11.000000	84.000000
1.470000	22.660000	82.760000	0.000000	0.000000	138.000000	58.000000	9.000000	62.000000
1.480000	22.660000	82.760000	60.000000	1.000000	138.000000	58.000000	0.000000	0.000000
1.490000	22.810000	83.690000	226.000000	0.000000	138.000000	58.000000	15.000000	93.000000
1.500000	22.880000	83.890000	356.000000	0.000000	138.000000	58.000000	7.000000	20.000000
1.510000	22.880000	83.950000	455.000000	0.000000	139.000000	58.000000	0.000000	6.000000
1.520000	22.880000	83.880000	581.000000	0.000000	139.000000	58.000000	0.000000	-7.000000
1.530000	22.930000	83.630000	670.000000	0.000000	139.000000	58.000000	5.000000	-25.000000
1.540000	22.930000	83.260000	733.000000	0.000000	139.000000	58.000000	0.000000	-37.000000
1.550000	23.020000	82.720000	773.000000	0.000000	139.000000	58.000000	9.000000	-54.000000
1.560000	23.110000	82.270000	785.000000	0.000000	140.000000	58.000000	9.000000	-45.000000
1.570000	23.280000	81.890000	770.000000	0.000000	140.000000	58.000000	17.000000	-38.000000
1.580000	23.460000	81.580000	703.000000	0.000000	140.000000	58.000000	18.000000	-31.000000
1.590000	23.650000	81.460000	478.000000	0.000000	140.000000	58.000000	19.000000	-12.000000
1.600000	23.650000	81.460000	0.000000	1.000000	140.000000	58.000000	0.000000	0.000000
1.610000	23.880000	81.750000	0.000000	0.000000	138.000000	58.000000	23.000000	29.000000
1.620000	23.880000	82.220000	0.000000	0.000000	138.000000	58.000000	0.000000	47.000000
1.630000	23.610000	82.820000	0.000000	0.000000	138.000000	58.000000	-27.000000	60.000000
1.640000	23.380000	83.250000	0.000000	0.000000	138.000000	58.000000	-23.000000	43.000000
1.650000	23.330000	83.630000	0.000000	0.000000	138.000000	58.000000	-5.000000	38.000000
1.660000	23.390000	83.980000	0.000000	0.000000	138.000000	58.000000	6.000000	35.000000
1.670000	23.390000	83.980000	141.000000	1.000000	138.000000	58.000000	0.000000	0.000000
1.680000	23.700000	84.370000	301.000000	0.000000	138.000000	58.000000	31.000000	39.000000
1.690000	23.700000	84.640000	307.000000	0.000000	138.000000	58.000000	0.000000	27.000000
1.700000	23.700000	84.990000	304.000000	0.000000	139.000000	58.000000	0.000000	35.000000
1.710000	23.800000	85.040000	277.000000	0.000000	139.000000	58.000000	10.000000	5.000000
1.720000	23.890000	85.040000	80.000000	0.000000	139.000000	58.000000	9.000000	0.000000
1.730000	23.890000	85.040000	0.000000	1.000000	139.000000	58.000000	0.000000	0.000000
1.740000	24.070000	84.730000	0.000000	0.000000	139.000000	58.000000	18.000000	-31.000000
1.750000	24.120000	84.350000	0.000000	0.000000	139.000000	58.000000	5.000000	-38.000000
1.760000	24.120000	84.190000	0.000000	0.000000	139.000000	58.000000	0.000000	-16.000000
1.770000	24.340000	84.040000	0.000000	0.000000	139.000000	58.000000	22.000000	-15.000000
1.780000	24.530000	83.900000	0.000000	0.000000	139.000000	58.000000	19.000000	-14.000000
1.790000	24.530000	83.900000	232.000000	1.000000	139.000000	58.000000	0.000000	0.000000
1.800000	24.640000	83.650000	343.000000	0.000000	139.000000	58.000000	11.000000	-25.000000
1.810000	24.590000	83.650000	448.000000	0.000000	139.000000	58.000000	-5.000000	0.000000
1.820000	24.590000	83.570000	594.000000	0.000000	139.000000	58.000000	0.000000	-8.000000
1.830000	24.590000	83.250000	644.000000	0.000000	139.000000	58.000000	0.000000	-32.000000
1.840000	24.590000	82.790000	673.000000	0.000000	140.000000	58.000000	0.000000	-46.000000
1.850000	24.640000	82.330000	696.000000	0.000000	140.000000	58.000000	5.000000	-46.000000
1.860000	24.880000	81.990000	690.000000	0.000000	140.000000	58.000000	24.000000	-34.000000
1.870000	25.250000	81.730000	696.000000	0.000000	139.000000	57.000000	37.000000	-26.000000
1.880000	25.500000	81.630000	702.000000	0.000000	139.000000	57.000000	25.000000	-10.000000
1.890000	25.790000	81.630000	702.000000	0.000000	139.000000	57.000000	29.000000	0.000000
1.900000	26.110000	81.750000	702.000000	0.000000	140.000000	58.000000	32.000000	12.000000
1.910000	26.370000	82.040000	700.000000	0.000000	140.000000	58.000000	26.000000	29.000000
1.920000	26.450000	82.450000	700.000000	0.000000	140.000000	58.000000	8.000000	41.000000
1.930000	26.450000	82.930000	699.000000	0.000000	142.000000	58.000000	0.000000	48.000000
1.940000	26.340000	83.420000	700.000000	0.000000	142.000000	58.000000	-11.000000	49.000000
1.950000	26.200000	83.640000	696.000000	0.000000	142.000000	58.000000	-14.000000	22.000000
1.960000	26.050000	83.640000	691.000000	0.000000	142.000000	58.000000	-15.000000	0.000000
1.970000	26.050000	83.640000	702.000000	0.000000	142.000000	58.000000	0.000000	0.000000
1.980000	26.050000	83.640000	700.000000	0.000000	142.000000	58.000000	0.000000	0.000000
1.990000	26.050000	83.300000	702.000000	0.000000	142.000000	58.000000	0.000000	-34.000000
2.000000	26.110000	82.860000	700.000000	0.000000	142.000000	58.000000	6.000000	-44.000000
2.010000	26.380000	82.540000	696.000000	0.000000	142.000000	58.000000	27.000000	-32.000000
2.020000	26.770000	82.320000	696.000000	0.000000	142.000000	58.000000	39.000000	-22.000000
2.030000	27.300000	82.170000	678.000000	0.000000	142.000000	58.000000	53.000000	-15.000000
2.040000	27.830000	82.250000	655.000000	0.000000	142.000000	58.000000	53.000000	8.000000
2.050000	28.350000	82.380000	627.000000	0.000000	142.000000	58.000000	52.000000	13.000000
2.060000	28.710000	82.550000	610.000000	0.000000	143.000000	59.000000	36.000000	17.000000
2.070000	28.980000	82.810000	614.000000	0.000000	143.000000	59.000000	27.000000	26.000000
2.080000	29.050000	83.190000	617.000000	0.000000	143.000000	59.000000	7.000000	38.000000
2.090000	28.960000	83.660000	624.000000	0.000000	143.000000	59.000000	-9.000000	47.000000
2.100000	28.750000	83.990000	642.000000	0.000000	145.000000	59.000000	-21.000000	33.000000
2.110000	28.460000	84.300000	646.000000	0.000000	146.000000	58.000000	-29.000000	31.000000
2.120000	27.990000	84.390000	664.000000	0.000000	146.000000	58.000000	-47.000000	9.000000
2.130000	27.410000	84.340000	672.000000	0.000000	146.000000	58.000000	-58.000000	-5.000000
2.140000	26.740000	84.100000	682.000000	0.000000	146.000000	58.000000	-67.000000	-24.000000
2.150000	26.130000	83.760000	690.000000	0.000000	144.000000	58.000000	-61.000000	-34.000000
2.160000	25.950000	83.350000	702.000000	0.000000	144.000000	58.000000	-18.000000	-41.000000
2.170000	26.030000	83.090000	690.000000	0.000000	143.000000	59.000000	8.000000	-26.000000
2.180000	26.200000	82.820000	691.000000	0.000000	142.000000	58.000000	17.000000	-27.000000
2.190000	26.690000	82.560000	696.000000	0.000000	142.000000	58.000000	49.000000	-26.000000
2.200000	27.390000	82.560000	699.000000	0.000000	142.000000	58.000000	70.000000	0.000000
2.210000	28.250000	82.620000	703.000000	0.000000	142.000000	58.000000	86.000000	6.000000
