t	x	y	pressure	penup	azimuth	inclination	v_x	v_y
0.000000	51.040000	63.350000	191.000000	1.000000	133.000000	53.000000	0.000000	0.000000
0.010000	52.940000	63.440000	216.000000	0.000000	133.000000	54.000000	190.000000	9.000000
0.020000	53.660000	63.790000	315.000000	0.000000	133.000000	54.000000	72.000000	35.000000
0.030000	55.140000	64.260000	377.000000	0.000000	134.000000	55.000000	148.000000	47.000000
0.040000	56.650000	64.940000	433.000000	0.000000	134.000000	55.000000	151.000000	68.000000
0.050000	58.160000	65.560000	472.000000	0.000000	135.000000	55.000000	151.000000	62.000000
0.060000	59.140000	66.080000	499.000000	0.000000	135.000000	57.000000	98.000000	52.000000
0.070000	59.780000	66.440000	564.000000	0.000000	136.000000	57.000000	64.000000	36.000000
0.080000	59.980000	66.700000	639.000000	0.000000	138.000000	58.000000	20.000000	26.000000
0.090000	59.920000	66.880000	664.000000	0.000000	139.000000	58.000000	-6.000000	18.000000
0.100000	59.690000	66.880000	673.000000	0.000000	141.000000	59.000000	-23.000000	0.000000
0.110000	58.640000	66.690000	671.000000	0.000000	141.000000	59.000000	-105.000000	-19.000000
0.120000	56.950000	65.890000	667.000000	0.000000	142.000000	59.000000	-169.000000	-80.000000
0.130000	54.830000	64.850000	650.000000	0.000000	141.000000	59.000000	-212.000000	-104.000000
0.140000	52.610000	63.640000	636.000000	0.000000	141.000000	59.000000	-222.000000	-121.000000
0.150000	50.310000	62.310000	645.000000	0.000000	139.000000	58.000000	-230.000000	-133.000000
0.160000	47.950000	60.960000	641.000000	0.000000	138.000000	58.000000	-236.000000	-135.000000
0.170000	46.360000	60.040000	644.000000	0.000000	136.000000	57.000000	-159.000000	-92.000000
0.180000	46.170000	59.430000	641.000000	0.000000	135.000000	57.000000	-19.000000	-61.000000
0.190000	46.910000	59.230000	638.000000	0.000000	134.000000	56.000000	74.000000	-20.000000
0.200000	48.380000	59.560000	670.000000	0.000000	132.000000	55.000000	147.000000	33.000000
0.210000	50.900000	60.240000	687.000000	0.000000	132.000000	55.000000	252.000000	68.000000
0.220000	54.110000	61.300000	690.000000	0.000000	132.000000	55.000000	321.000000	106.000000
0.230000	58.140000	62.370000	696.000000	0.000000	132.000000	55.000000	403.000000	107.000000
0.240000	62.000000	63.450000	697.000000	0.000000	134.000000	56.000000	386.000000	108.000000
0.250000	65.740000	64.350000	672.000000	0.000000	135.000000	57.000000	374.000000	90.000000
0.260000	68.970000	65.080000	617.000000	0.000000	139.000000	57.000000	323.000000	73.000000
0.270000	71.120000	65.710000	546.000000	0.000000	142.000000	58.000000	215.000000	63.000000
0.280000	72.550000	66.070000	447.000000	0.000000	145.000000	59.000000	143.000000	36.000000
0.290000	73.200000	66.260000	344.000000	0.000000	149.000000	59.000000	65.000000	19.000000
0.300000	73.200000	66.340000	212.000000	0.000000	151.000000	60.000000	0.000000	8.000000
0.310000	73.200000	66.340000	0.000000	1.000000	154.000000	60.000000	0.000000	0.000000
0.320000	71.530000	66.350000	0.000000	0.000000	156.000000	61.000000	-167.000000	1.000000
0.330000	69.680000	66.170000	0.000000	0.000000	157.000000	61.000000	-185.000000	-18.000000
0.340000	67.350000	65.970000	0.000000	0.000000	159.000000	61.000000	-233.000000	-20.000000
0.350000	64.490000	65.570000	0.000000	0.000000	157.000000	61.000000	-286.000000	-40.000000
0.360000	61.260000	65.030000	0.000000	0.000000	158.000000	60.000000	-323.000000	-54.000000
0.370000	57.790000	64.270000	0.000000	0.000000	155.000000	60.000000	-347.000000	-76.000000
0.380000	54.480000	63.300000	0.000000	0.000000	153.000000	59.000000	-331.000000	-97.000000
0.390000	52.270000	62.200000	0.000000	0.000000	151.000000	58.000000	-221.000000	-110.000000
0.400000	50.780000	61.730000	0.000000	0.000000	146.000000	57.000000	-149.000000	-47.000000
0.410000	50.780000	61.730000	0.000000	0.000000	143.000000	56.000000	0.000000	0.000000
0.420000	50.930000	62.060000	0.000000	0.000000	141.000000	56.000000	15.000000	33.000000
0.430000	51.250000	62.280000	0.000000	0.000000	139.000000	56.000000	32.000000	22.000000
0.440000	51.870000	62.520000	0.000000	0.000000	138.000000	55.000000	62.000000	24.000000
0.450000	52.550000	62.770000	0.000000	0.000000	138.000000	55.000000	68.000000	25.000000
0.460000	52.550000	62.770000	36.000000	1.000000	135.000000	55.000000	0.000000	0.000000
0.470000	53.760000	63.360000	100.000000	0.000000	135.000000	55.000000	121.000000	59.000000
0.480000	54.160000	63.690000	260.000000	0.000000	135.000000	55.000000	40.000000	33.000000
0.490000	54.380000	64.020000	400.000000	0.000000	136.000000	56.000000	22.000000	33.000000
0.500000	54.470000	64.100000	529.000000	0.000000	136.000000	56.000000	9.000000	8.000000
0.510000	54.420000	64.150000	574.000000	0.000000	136.000000	56.000000	-5.000000	5.000000
0.520000	54.070000	64.150000	595.000000	0.000000	136.000000	56.000000	-35.000000	0.000000
0.530000	53.510000	63.730000	602.000000	0.000000	136.000000	56.000000	-56.000000	-42.000000
0.540000	52.510000	63.100000	610.000000	0.000000	136.000000	56.000000	-100.000000	-63.000000
0.550000	51.520000	62.320000	645.000000	0.000000	135.000000	55.000000	-99.000000	-78.000000
0.560000	50.940000	61.760000	636.000000	0.000000	135.000000	55.000000	-58.000000	-56.000000
0.570000	50.620000	61.350000	636.000000	0.000000	135.000000	55.000000	-32.000000	-41.000000
0.580000	50.770000	61.200000	641.000000	0.000000	135.000000	55.000000	15.000000	-15.000000
0.590000	51.280000	61.200000	637.000000	0.000000	135.000000	55.000000	51.000000	0.000000
0.600000	52.030000	61.250000	637.000000	0.000000	135.000000	55.000000	75.000000	5.000000
0.610000	53.060000	61.730000	645.000000	0.000000	135.000000	55.000000	103.000000	48.000000
0.620000	53.880000	62.270000	622.000000	0.000000	134.000000	55.000000	82.000000	54.000000
0.630000	54.570000	62.850000	619.000000	0.000000	134.000000	55.000000	69.000000	58.000000
0.640000	54.920000	63.380000	620.000000	0.000000	134.000000	55.000000	35.000000	53.000000
0.650000	55.070000	63.870000	624.000000	0.000000	134.000000	55.000000	15.000000	49.000000
0.660000	55.070000	64.110000	630.000000	0.000000	135.000000	55.000000	0.000000	24.000000
0.670000	55.020000	64.210000	625.000000	0.000000	135.000000	55.000000	-5.000000	10.000000
0.680000	54.740000	64.030000	624.000000	0.000000	135.000000	55.000000	-28.000000	-18.000000
0.690000	54.310000	63.650000	620.000000	0.000000	135.000000	55.000000	-43.000000	-38.000000
0.700000	54.010000	63.140000	562.000000	0.000000	135.000000	55.000000	-30.000000	-51.000000
0.710000	53.950000	62.810000	448.000000	0.000000	135.000000	55.000000	-6.000000	-33.000000
0.720000	54.040000	62.610000	254.000000	0.000000	135.000000	55.000000	9.000000	-20.000000
0.730000	54.040000	62.610000	0.000000	1.000000	135.000000	55.000000	0.000000	0.000000
0.740000	54.560000	62.630000	0.000000	0.000000	135.000000	55.000000	52.000000	2.000000
0.750000	54.840000	62.900000	0.000000	0.000000	136.000000	55.000000	28.000000	27.000000
0.760000	54.930000	63.280000	0.000000	0.000000	136.000000	55.000000	9.000000	38.000000
0.770000	54.930000	63.650000	0.000000	0.000000	135.000000	54.000000	0.000000	37.000000
0.780000	54.930000	64.110000	0.000000	0.000000	136.000000	55.000000	0.000000	46.000000
0.790000	54.930000	64.110000	89.000000	1.000000	135.000000	55.000000	0.000000	0.000000
0.800000	55.060000	64.940000	151.000000	0.000000	135.000000	55.000000	13.000000	83.000000
0.810000	55.180000	65.070000	241.000000	0.000000	135.000000	55.000000	12.000000	13.000000
0.820000	55.350000	65.070000	345.000000	0.000000	135.000000	55.000000	17.000000	0.000000
0.830000	55.480000	64.790000	422.000000	0.000000	135.000000	55.000000	13.000000	-28.000000
0.840000	55.560000	64.290000	439.000000	0.000000	135.000000	55.000000	8.000000	-50.000000
0.850000	55.560000	63.650000	452.000000	0.000000	135.000000	55.000000	0.000000	-64.000000
0.860000	55.560000	63.230000	456.000000	0.000000	135.000000	55.000000	0.000000	-42.000000
0.870000	55.560000	62.930000	455.000000	0.000000	135.000000	55.000000	0.000000	-30.000000
0.880000	55.490000	62.700000	461.000000	0.000000	135.000000	55.000000	-7.000000	-23.000000
0.890000	55.490000	62.700000	458.000000	0.000000	135.000000	55.000000	0.000000	0.000000
0.900000	55.490000	62.980000	448.000000	0.000000	135.000000	55.000000	0.000000	28.000000
0.910000	55.490000	63.410000	455.000000	0.000000	136.000000	55.000000	0.000000	43.000000
0.920000	55.670000	64.070000	461.000000	0.000000	136.000000	55.000000	18.000000	66.000000
0.930000	55.850000	64.680000	469.000000	0.000000	136.000000	55.000000	18.000000	61.000000
0.940000	56.090000	64.990000	465.000000	0.000000	135.000000	55.000000	24.000000	31.000000
0.950000	56.320000	65.120000	480.000000	0.000000	135.000000	55.000000	23.000000	13.000000
0.960000	56.550000	65.010000	488.000000	0.000000	136.000000	56.000000	23.000000	-11.000000
0.970000	56.790000	64.780000	504.000000	0.000000	136.000000	56.000000	24.000000	-23.000000
0.980000	57.000000	64.460000	519.000000	0.000000	136.000000	56.000000	21.000000	-32.000000
0.990000	57.410000	64.110000	527.000000	0.000000	138.000000	57.000000	41.000000	-35.000000
1.000000	57.940000	63.820000	541.000000	0.000000	138.000000	57.000000	53.000000	-29.000000
1.010000	58.490000	63.690000	537.000000	0.000000	138.000000	57.000000	55.000000	-13.000000
1.020000	59.050000	63.640000	540.000000	0.000000	139.000000	57.000000	56.000000	-5.000000
1.030000	59.630000	63.820000	546.000000	0.000000	139.000000	57.000000	58.000000	18.000000
1.040000	59.920000	64.120000	570.000000	0.000000	142.000000	57.000000	29.000000	30.000000
1.050000	60.020000	64.500000	613.000000	0.000000	143.000000	57.000000	10.000000	38.000000
1.060000	59.900000	64.930000	614.000000	0.000000	143.000000	57.000000	-12.000000	43.000000
1.070000	59.470000	65.310000	608.000000	0.000000	144.000000	58.000000	-43.000000	38.000000
1.080000	58.840000	65.390000	567.000000	0.000000	144.000000	58.000000	-63.000000	8.000000
1.090000	58.050000	65.280000	475.000000	0.000000	143.000000	59.000000	-79.000000	-11.000000
1.100000	57.330000	65.120000	273.000000	0.000000	143.000000	59.000000	-72.000000	-16.000000
1.110000	57.330000	65.120000	0.000000	1.000000	142.000000	58.000000	0.000000	0.000000
1.120000	56.340000	65.060000	0.000000	0.000000	140.000000	58.000000	-99.000000	-6.000000
1.130000	56.500000	65.330000	0.000000	0.000000	140.000000	58.000000	16.000000	27.000000
1.140000	56.960000	65.910000	0.000000	0.000000	140.000000	58.000000	46.000000	58.000000
1.150000	57.610000	66.500000	0.000000	0.000000	139.000000	57.000000	65.000000	59.000000
1.160000	58.270000	67.110000	0.000000	0.000000	139.000000	57.000000	66.000000	61.000000
1.170000	58.860000	67.560000	0.000000	0.000000	139.000000	57.000000	59.000000	45.000000
1.180000	58.860000	67.560000	185.000000	1.000000	140.000000	58.000000	0.000000	0.000000
1.190000	59.830000	68.150000	304.000000	0.000000	140.000000	58.000000	97.000000	59.000000
1.200000	59.900000	68.210000	379.000000	0.000000	142.000000	58.000000	7.000000	6.000000
1.210000	59.720000	68.210000	465.000000	0.000000	143.000000	57.000000	-18.000000	0.000000
1.220000	59.820000	67.830000	543.000000	0.000000	144.000000	58.000000	10.000000	-38.000000
1.230000	59.920000	67.300000	578.000000	0.000000	144.000000	58.000000	10.000000	-53.000000
1.240000	60.020000	66.430000	602.000000	0.000000	146.000000	58.000000	10.000000	-87.000000
1.250000	60.110000	65.620000	602.000000	0.000000	146.000000	58.000000	9.000000	-81.000000
1.260000	60.270000	64.850000	561.000000	0.000000	146.000000	58.000000	16.000000	-77.000000
1.270000	60.440000	64.240000	394.000000	0.000000	146.000000	58.000000	17.000000	-61.000000
1.280000	60.710000	63.930000	91.000000	0.000000	146.000000	58.000000	27.000000	-31.000000
1.290000	60.710000	63.930000	0.000000	1.000000	146.000000	58.000000	0.000000	0.000000
1.300000	61.300000	64.180000	0.000000	0.000000	144.000000	58.000000	59.000000	25.000000
1.310000	61.400000	64.780000	0.000000	0.000000	144.000000	58.000000	10.000000	60.000000
1.320000	61.400000	65.540000	0.000000	0.000000	144.000000	58.000000	0.000000	76.000000
1.330000	61.400000	65.540000	203.000000	1.000000	143.000000	57.000000	0.000000	0.000000
1.340000	61.780000	66.230000	289.000000	0.000000	143.000000	57.000000	38.000000	69.000000
1.350000	61.840000	66.290000	367.000000	0.000000	143.000000	57.000000	6.000000	6.000000
1.360000	61.780000	66.180000	467.000000	0.000000	142.000000	58.000000	-6.000000	-11.000000
1.370000	61.860000	66.010000	522.000000	0.000000	142.000000	58.000000	8.000000	-17.000000
1.380000	61.950000	65.630000	536.000000	0.000000	142.000000	58.000000	9.000000	-38.000000
1.390000	62.110000	65.120000	565.000000	0.000000	142.000000	58.000000	16.000000	-51.000000
1.400000	62.390000	64.630000	567.000000	0.000000	142.000000	58.000000	28.000000	-49.000000
1.410000	62.650000	64.340000	512.000000	0.000000	142.000000	58.000000	26.000000	-29.000000
1.420000	62.890000	64.190000	366.000000	0.000000	142.000000	58.000000	24.000000	-15.000000
1.430000	62.890000	64.190000	0.000000	1.000000	140.000000	58.000000	0.000000	0.000000
1.440000	63.120000	64.710000	0.000000	0.000000	142.000000	57.000000	23.000000	52.000000
1.450000	62.930000	65.280000	0.000000	0.000000	142.000000	57.000000	-19.000000	57.000000
1.460000	62.500000	65.930000	0.000000	0.000000	142.000000	57.000000	-43.000000	65.000000
1.470000	62.100000	66.550000	0.000000	0.000000	142.000000	57.000000	-40.000000	62.000000
1.480000	61.930000	66.970000	0.000000	0.000000	142.000000	57.000000	-17.000000	42.000000
1.490000	61.930000	67.260000	0.000000	0.000000	140.000000	56.000000	0.000000	29.000000
1.500000	61.930000	67.260000	254.000000	1.000000	140.000000	56.000000	0.000000	0.000000
1.510000	61.930000	67.260000	265.000000	0.000000	140.000000	56.000000	0.000000	0.000000
1.520000	61.730000	67.620000	275.000000	0.000000	140.000000	56.000000	-20.000000	36.000000
1.530000	61.780000	67.670000	275.000000	0.000000	142.000000	57.000000	5.000000	5.000000
1.540000	62.000000	67.670000	210.000000	0.000000	142.000000	57.000000	22.000000	0.000000
1.550000	62.000000	67.670000	0.000000	1.000000	142.000000	57.000000	0.000000	0.000000
1.560000	62.760000	67.610000	0.000000	0.000000	142.000000	57.000000	76.000000	-6.000000
1.570000	63.050000	67.500000	0.000000	0.000000	142.000000	57.000000	29.000000	-11.000000
1.580000	63.250000	67.370000	0.000000	0.000000	142.000000	57.000000	20.000000	-13.000000
1.590000	63.410000	67.220000	0.000000	0.000000	142.000000	57.000000	16.000000	-15.000000
1.600000	63.620000	67.000000	0.000000	0.000000	142.000000	57.000000	21.000000	-22.000000
1.610000	63.620000	67.000000	173.000000	1.000000	142.000000	57.000000	0.000000	0.000000
1.620000	63.800000	66.430000	259.000000	0.000000	139.000000	57.000000	18.000000	-57.000000
1.630000	63.680000	66.230000	366.000000	0.000000	139.000000	57.000000	-12.000000	-20.000000
1.640000	63.600000	66.070000	443.000000	0.000000	139.000000	57.000000	-8.000000	-16.000000
1.650000	63.600000	65.930000	469.000000	0.000000	139.000000	57.000000	0.000000	-14.000000
1.660000	63.690000	65.770000	480.000000	0.000000	139.000000	57.000000	9.000000	-16.000000
1.670000	63.830000	65.610000	491.000000	0.000000	138.000000	57.000000	14.000000	-16.000000
1.680000	64.120000	65.470000	494.000000	0.000000	138.000000	57.000000	29.000000	-14.000000
1.690000	64.490000	65.470000	499.000000	0.000000	138.000000	57.000000	37.000000	0.000000
1.700000	64.860000	65.470000	501.000000	0.000000	138.000000	57.000000	37.000000	0.000000
1.710000	65.190000	65.720000	489.000000	0.000000	139.000000	57.000000	33.000000	25.000000
1.720000	65.380000	66.060000	489.000000	0.000000	139.000000	57.000000	19.000000	34.000000
1.730000	65.490000	66.480000	495.000000	0.000000	139.000000	57.000000	11.000000	42.000000
1.740000	65.430000	67.020000	512.000000	0.000000	139.000000	57.000000	-6.000000	54.000000
1.750000	65.370000	67.470000	512.000000	0.000000	139.000000	57.000000	-6.000000	45.000000
1.760000	65.310000	67.630000	509.000000	0.000000	139.000000	57.000000	-6.000000	16.000000
1.770000	65.250000	67.630000	510.000000	0.000000	139.000000	57.000000	-6.000000	0.000000
1.780000	65.250000	67.490000	515.000000	0.000000	140.000000	56.000000	0.000000	-14.000000
1.790000	65.200000	67.030000	519.000000	0.000000	140.000000	56.000000	-5.000000	-46.000000
1.800000	65.130000	66.360000	519.000000	0.000000	140.000000	56.000000	-7.000000	-67.000000
1.810000	65.280000	65.880000	488.000000	0.000000	140.000000	56.000000	15.000000	-48.000000
1.820000	65.470000	65.540000	339.000000	0.000000	140.000000	56.000000	19.000000	-34.000000
1.830000	65.890000	65.300000	1.000000	1.000000	140.000000	56.000000	0.000000	0.000000
1.840000	65.890000	65.300000	0.000000	0.000000	142.000000	57.000000	0.000000	0.000000
1.850000	67.060000	65.480000	0.000000	0.000000	142.000000	57.000000	117.000000	18.000000
1.860000	67.520000	65.870000	0.000000	0.000000	142.000000	57.000000	46.000000	39.000000
1.870000	67.890000	66.410000	0.000000	0.000000	143.000000	57.000000	37.000000	54.000000
1.880000	68.300000	67.010000	0.000000	0.000000	144.000000	58.000000	41.000000	60.000000
1.890000	68.580000	67.650000	0.000000	0.000000	144.000000	58.000000	28.000000	64.000000
1.900000	68.580000	67.650000	196.000000	1.000000	147.000000	58.000000	0.000000	0.000000
1.910000	68.450000	68.090000	244.000000	0.000000	147.000000	58.000000	-13.000000	44.000000
1.920000	67.950000	68.150000	351.000000	0.000000	149.000000	58.000000	-50.000000	6.000000
1.930000	67.320000	67.940000	425.000000	0.000000	149.000000	58.000000	-63.000000	-21.000000
1.940000	66.630000	67.680000	472.000000	0.000000	149.000000	58.000000	-69.000000	-26.000000
1.950000	66.140000	67.310000	488.000000	0.000000	147.000000	58.000000	-49.000000	-37.000000
1.960000	65.770000	66.880000	492.000000	0.000000	146.000000	58.000000	-37.000000	-43.000000
1.970000	65.770000	66.610000	504.000000	0.000000	144.000000	58.000000	0.000000	-27.000000
1.980000	65.960000	66.380000	504.000000	0.000000	144.000000	58.000000	19.000000	-23.000000
1.990000	66.330000	66.180000	502.000000	0.000000	143.000000	57.000000	37.000000	-20.000000
2.000000	66.990000	66.180000	492.000000	0.000000	143.000000	57.000000	66.000000	0.000000
2.010000	67.720000	66.360000	496.000000	0.000000	142.000000	58.000000	73.000000	18.000000
2.020000	68.500000	66.580000	495.000000	0.000000	142.000000	58.000000	78.000000	22.000000
2.030000	68.750000	66.720000	496.000000	0.000000	142.000000	58.000000	25.000000	14.000000
2.040000	68.880000	66.850000	521.000000	0.000000	143.000000	59.000000	13.000000	13.000000
2.050000	68.880000	66.930000	578.000000	0.000000	145.000000	59.000000	0.000000	8.000000
2.060000	68.880000	66.930000	603.000000	0.000000	145.000000	59.000000	0.000000	0.000000
2.070000	68.690000	66.880000	609.000000	0.000000	146.000000	60.000000	-19.000000	-5.000000
2.080000	68.370000	66.770000	611.000000	0.000000	146.000000	60.000000	-32.000000	-11.000000
2.090000	67.910000	66.390000	616.000000	0.000000	146.000000	60.000000	-46.000000	-38.000000
2.100000	67.720000	65.990000	616.000000	0.000000	146.000000	60.000000	-19.000000	-40.000000
2.110000	67.720000	65.550000	616.000000	0.000000	146.000000	60.000000	0.000000	-44.000000
2.120000	68.010000	65.230000	594.000000	0.000000	146.000000	60.000000	29.000000	-32.000000
2.130000	68.470000	64.990000	495.000000	0.000000	147.000000	59.000000	46.000000	-24.000000
2.140000	69.020000	65.060000	223.000000	0.000000	147.000000	59.000000	55.000000	7.000000
2.150000	69.020000	65.060000	0.000000	1.000000	147.000000	59.000000	0.000000	0.000000
2.160000	70.210000	65.590000	0.000000	0.000000	149.000000	59.000000	119.000000	53.000000
2.170000	70.530000	65.980000	0.000000	0.000000	149.000000	59.000000	32.000000	39.000000
2.180000	70.700000	66.500000	0.000000	0.000000	151.000000	60.000000	17.000000	52.000000
2.190000	70.980000	67.120000	0.000000	0.000000	152.000000	59.000000	28.000000	62.000000
2.200000	71.530000	67.690000	0.000000	0.000000	152.000000	59.000000	55.000000	57.000000
2.210000	72.220000	68.260000	0.000000	0.000000	152.000000	59.000000	69.000000	57.000000
