t	x	y	pressure	penup	azimuth	inclination	v_x	v_y
0.000000	51.680000	12.340000	158.000000	1.000000	136.000000	56.000000	0.000000	0.000000
0.010000	51.520000	12.010000	207.000000	0.000000	134.000000	57.000000	-16.000000	-33.000000
0.020000	51.900000	12.010000	315.000000	0.000000	132.000000	58.000000	38.000000	0.000000
0.030000	52.590000	12.110000	433.000000	0.000000	131.000000	60.000000	69.000000	10.000000
0.040000	53.900000	12.450000	496.000000	0.000000	129.000000	60.000000	131.000000	34.000000
0.050000	55.760000	12.940000	537.000000	0.000000	129.000000	61.000000	186.000000	49.000000
0.060000	57.980000	13.670000	546.000000	0.000000	129.000000	61.000000	222.000000	73.000000
0.070000	60.060000	14.360000	546.000000	0.000000	130.000000	62.000000	208.000000	69.000000
0.080000	61.560000	15.030000	551.000000	0.000000	132.000000	63.000000	150.000000	67.000000
0.090000	62.660000	15.510000	554.000000	0.000000	133.000000	62.000000	110.000000	48.000000
0.100000	63.000000	15.930000	564.000000	0.000000	138.000000	61.000000	34.000000	42.000000
0.110000	62.930000	16.250000	546.000000	0.000000	139.000000	61.000000	-7.000000	32.000000
0.120000	62.580000	16.540000	519.000000	0.000000	144.000000	60.000000	-35.000000	29.000000
0.130000	61.830000	16.540000	504.000000	0.000000	145.000000	59.000000	-75.000000	0.000000
0.140000	60.460000	16.350000	495.000000	0.000000	149.000000	58.000000	-137.000000	-19.000000
0.150000	58.680000	15.610000	495.000000	0.000000	149.000000	58.000000	-178.000000	-74.000000
0.160000	56.230000	14.490000	501.000000	0.000000	149.000000	58.000000	-245.000000	-112.000000
0.170000	53.500000	13.110000	516.000000	0.000000	147.000000	58.000000	-273.000000	-138.000000
0.180000	50.590000	11.160000	562.000000	0.000000	146.000000	58.000000	-291.000000	-195.000000
0.190000	48.030000	9.650000	611.000000	0.000000	142.000000	59.000000	-256.000000	-151.000000
0.200000	46.600000	8.440000	620.000000	0.000000	141.000000	60.000000	-143.000000	-121.000000
0.210000	45.910000	7.730000	622.000000	0.000000	138.000000	60.000000	-69.000000	-71.000000
0.220000	46.300000	7.420000	647.000000	0.000000	138.000000	60.000000	39.000000	-31.000000
0.230000	47.800000	7.420000	670.000000	0.000000	136.000000	61.000000	150.000000	0.000000
0.240000	50.040000	8.090000	714.000000	0.000000	135.000000	60.000000	224.000000	67.000000
0.250000	53.480000	9.200000	725.000000	0.000000	135.000000	60.000000	344.000000	111.000000
0.260000	57.140000	10.580000	736.000000	0.000000	138.000000	60.000000	366.000000	138.000000
0.270000	60.950000	11.970000	725.000000	0.000000	138.000000	60.000000	381.000000	139.000000
0.280000	64.580000	13.090000	682.000000	0.000000	141.000000	60.000000	363.000000	112.000000
0.290000	67.840000	14.040000	622.000000	0.000000	142.000000	61.000000	326.000000	95.000000
0.300000	70.850000	14.710000	567.000000	0.000000	147.000000	61.000000	301.000000	67.000000
0.310000	72.780000	14.960000	502.000000	0.000000	148.000000	61.000000	193.000000	25.000000
0.320000	73.830000	14.960000	274.000000	0.000000	153.000000	61.000000	105.000000	0.000000
0.330000	73.830000	14.960000	0.000000	1.000000	156.000000	61.000000	0.000000	0.000000
0.340000	74.110000	14.760000	0.000000	0.000000	161.000000	60.000000	28.000000	-20.000000
0.350000	73.230000	14.590000	0.000000	0.000000	163.000000	59.000000	-88.000000	-17.000000
0.360000	71.900000	14.410000	0.000000	0.000000	164.000000	58.000000	-133.000000	-18.000000
0.370000	70.240000	14.220000	0.000000	0.000000	165.000000	58.000000	-166.000000	-19.000000
0.380000	68.180000	13.960000	0.000000	0.000000	164.000000	57.000000	-206.000000	-26.000000
0.390000	65.850000	13.700000	0.000000	0.000000	164.000000	57.000000	-233.000000	-26.000000
0.400000	63.230000	13.250000	0.000000	0.000000	163.000000	56.000000	-262.000000	-45.000000
0.410000	60.500000	12.670000	0.000000	0.000000	160.000000	55.000000	-273.000000	-58.000000
0.420000	57.690000	11.620000	0.000000	0.000000	159.000000	55.000000	-281.000000	-105.000000
0.430000	55.810000	10.880000	0.000000	0.000000	156.000000	55.000000	-188.000000	-74.000000
0.440000	54.640000	10.360000	0.000000	0.000000	155.000000	54.000000	-117.000000	-52.000000
0.450000	53.940000	10.060000	0.000000	0.000000	152.000000	54.000000	-70.000000	-30.000000
0.460000	53.560000	9.980000	0.000000	0.000000	150.000000	54.000000	-38.000000	-8.000000
0.470000	53.620000	10.060000	0.000000	0.000000	147.000000	55.000000	6.000000	8.000000
0.480000	53.970000	10.200000	0.000000	0.000000	145.000000	55.000000	35.000000	14.000000
0.490000	53.810000	10.380000	0.000000	0.000000	144.000000	56.000000	-16.000000	18.000000
0.500000	53.970000	10.580000	0.000000	0.000000	143.000000	56.000000	16.000000	20.000000
0.510000	54.350000	10.750000	0.000000	0.000000	142.000000	57.000000	38.000000	17.000000
0.520000	54.760000	10.960000	0.000000	0.000000	140.000000	58.000000	41.000000	21.000000
0.530000	54.760000	10.960000	60.000000	1.000000	139.000000	58.000000	0.000000	0.000000
0.540000	55.530000	11.430000	160.000000	0.000000	138.000000	59.000000	77.000000	47.000000
0.550000	55.580000	11.650000	310.000000	0.000000	136.000000	60.000000	5.000000	22.000000
0.560000	55.440000	11.780000	440.000000	0.000000	135.000000	60.000000	-14.000000	13.000000
0.570000	55.110000	11.680000	544.000000	0.000000	135.000000	60.000000	-33.000000	-10.000000
0.580000	54.520000	11.480000	595.000000	0.000000	134.000000	61.000000	-59.000000	-20.000000
0.590000	53.750000	10.920000	631.000000	0.000000	132.000000	61.000000	-77.000000	-56.000000
0.600000	52.810000	10.350000	653.000000	0.000000	132.000000	61.000000	-94.000000	-57.000000
0.610000	51.900000	9.750000	668.000000	0.000000	132.000000	61.000000	-91.000000	-60.000000
0.620000	51.550000	9.310000	668.000000	0.000000	132.000000	61.000000	-35.000000	-44.000000
0.630000	51.550000	8.960000	673.000000	0.000000	132.000000	61.000000	0.000000	-35.000000
0.640000	52.170000	8.740000	668.000000	0.000000	131.000000	61.000000	62.000000	-22.000000
0.650000	53.010000	8.870000	659.000000	0.000000	131.000000	61.000000	84.000000	13.000000
0.660000	54.000000	9.230000	653.000000	0.000000	131.000000	61.000000	99.000000	36.000000
0.670000	54.890000	9.770000	650.000000	0.000000	131.000000	61.000000	89.000000	54.000000
0.680000	55.450000	10.260000	652.000000	0.000000	131.000000	61.000000	56.000000	49.000000
0.690000	55.790000	10.680000	656.000000	0.000000	131.000000	61.000000	34.000000	42.000000
0.700000	55.880000	11.070000	664.000000	0.000000	131.000000	61.000000	9.000000	39.000000
0.710000	55.880000	11.370000	668.000000	0.000000	132.000000	61.000000	0.000000	30.000000
0.720000	55.770000	11.420000	670.000000	0.000000	132.000000	61.000000	-11.000000	5.000000
0.730000	55.680000	11.350000	670.000000	0.000000	130.000000	62.000000	-9.000000	-7.000000
0.740000	55.600000	11.280000	671.000000	0.000000	130.000000	62.000000	-8.000000	-7.000000
0.750000	55.510000	10.990000	671.000000	0.000000	130.000000	62.000000	-9.000000	-29.000000
0.760000	55.380000	10.560000	667.000000	0.000000	130.000000	62.000000	-13.000000	-43.000000
0.770000	55.230000	10.330000	647.000000	0.000000	130.000000	62.000000	-15.000000	-23.000000
0.780000	55.230000	10.080000	544.000000	0.000000	130.000000	62.000000	0.000000	-25.000000
0.790000	55.360000	9.950000	249.000000	0.000000	130.000000	62.000000	13.000000	-13.000000
0.800000	55.360000	9.950000	0.000000	1.000000	130.000000	62.000000	0.000000	0.000000
0.810000	55.610000	9.950000	0.000000	0.000000	130.000000	62.000000	25.000000	0.000000
0.820000	55.730000	10.180000	0.000000	0.000000	130.000000	62.000000	12.000000	23.000000
0.830000	55.840000	10.570000	0.000000	0.000000	130.000000	62.000000	11.000000	39.000000
0.840000	55.930000	11.100000	0.000000	0.000000	130.000000	62.000000	9.000000	53.000000
0.850000	56.000000	11.710000	0.000000	0.000000	132.000000	61.000000	7.000000	61.000000
0.860000	56.000000	11.710000	30.000000	1.000000	132.000000	61.000000	0.000000	0.000000
0.870000	56.010000	12.550000	206.000000	0.000000	132.000000	61.000000	1.000000	84.000000
0.880000	55.850000	12.550000	314.000000	0.000000	132.000000	61.000000	-16.000000	0.000000
0.890000	55.850000	12.370000	431.000000	0.000000	132.000000	61.000000	0.000000	-18.000000
0.900000	55.850000	12.100000	512.000000	0.000000	130.000000	62.000000	0.000000	-27.000000
0.910000	55.850000	11.570000	548.000000	0.000000	129.000000	61.000000	0.000000	-53.000000
0.920000	55.850000	10.860000	560.000000	0.000000	129.000000	61.000000	0.000000	-71.000000
0.930000	55.770000	10.370000	560.000000	0.000000	129.000000	61.000000	-8.000000	-49.000000
0.940000	55.770000	10.100000	564.000000	0.000000	129.000000	61.000000	0.000000	-27.000000
0.950000	55.770000	9.990000	556.000000	0.000000	129.000000	61.000000	0.000000	-11.000000
0.960000	55.850000	9.990000	562.000000	0.000000	129.000000	61.000000	8.000000	0.000000
0.970000	55.900000	10.220000	564.000000	0.000000	129.000000	61.000000	5.000000	23.000000
0.980000	56.090000	10.590000	564.000000	0.000000	129.000000	61.000000	19.000000	37.000000
0.990000	56.350000	11.220000	560.000000	0.000000	130.000000	62.000000	26.000000	63.000000
1.000000	56.510000	11.830000	569.000000	0.000000	130.000000	62.000000	16.000000	61.000000
1.010000	56.670000	12.430000	586.000000	0.000000	130.000000	62.000000	16.000000	60.000000
1.020000	56.670000	12.500000	591.000000	0.000000	130.000000	62.000000	0.000000	7.000000
1.030000	56.620000	12.420000	585.000000	0.000000	130.000000	62.000000	-5.000000	-8.000000
1.040000	56.680000	12.230000	592.000000	0.000000	130.000000	62.000000	6.000000	-19.000000
1.050000	56.790000	11.910000	592.000000	0.000000	130.000000	62.000000	11.000000	-32.000000
1.060000	56.950000	11.500000	597.000000	0.000000	130.000000	62.000000	16.000000	-41.000000
1.070000	57.270000	11.030000	608.000000	0.000000	130.000000	62.000000	32.000000	-47.000000
1.080000	57.690000	10.740000	609.000000	0.000000	130.000000	62.000000	42.000000	-29.000000
1.090000	58.180000	10.740000	614.000000	0.000000	132.000000	63.000000	49.000000	0.000000
1.100000	58.770000	10.990000	611.000000	0.000000	132.000000	63.000000	59.000000	25.000000
1.110000	59.430000	11.260000	619.000000	0.000000	132.000000	63.000000	66.000000	27.000000
1.120000	59.700000	11.710000	630.000000	0.000000	132.000000	63.000000	27.000000	45.000000
1.130000	59.750000	12.270000	670.000000	0.000000	132.000000	63.000000	5.000000	56.000000
1.140000	59.640000	12.750000	673.000000	0.000000	132.000000	63.000000	-11.000000	48.000000
1.150000	59.300000	13.190000	691.000000	0.000000	132.000000	63.000000	-34.000000	44.000000
1.160000	58.830000	13.280000	667.000000	0.000000	132.000000	63.000000	-47.000000	9.000000
1.170000	58.270000	13.150000	613.000000	0.000000	132.000000	63.000000	-56.000000	-13.000000
1.180000	57.300000	12.580000	499.000000	0.000000	133.000000	62.000000	-97.000000	-57.000000
1.190000	56.720000	12.130000	332.000000	0.000000	132.000000	63.000000	-58.000000	-45.000000
1.200000	56.400000	11.760000	51.000000	0.000000	132.000000	63.000000	-32.000000	-37.000000
1.210000	56.400000	11.760000	0.000000	1.000000	132.000000	63.000000	0.000000	0.000000
1.220000	57.170000	11.850000	0.000000	0.000000	132.000000	63.000000	77.000000	9.000000
1.230000	57.880000	12.300000	0.000000	0.000000	132.000000	63.000000	71.000000	45.000000
1.240000	58.490000	12.830000	0.000000	0.000000	132.000000	63.000000	61.000000	53.000000
1.250000	58.930000	13.420000	0.000000	0.000000	133.000000	62.000000	44.000000	59.000000
1.260000	59.260000	14.060000	0.000000	0.000000	135.000000	62.000000	33.000000	64.000000
1.270000	59.410000	14.700000	0.000000	0.000000	136.000000	61.000000	15.000000	64.000000
1.280000	59.580000	15.410000	0.000000	0.000000	139.000000	60.000000	17.000000	71.000000
1.290000	59.810000	16.170000	0.000000	0.000000	141.000000	59.000000	23.000000	76.000000
1.300000	60.060000	16.630000	0.000000	0.000000	143.000000	57.000000	25.000000	46.000000
1.310000	60.060000	16.630000	244.000000	1.000000	145.000000	56.000000	0.000000	0.000000
1.320000	60.060000	16.630000	393.000000	0.000000	148.000000	56.000000	0.000000	0.000000
1.330000	59.800000	16.640000	499.000000	0.000000	149.000000	55.000000	-26.000000	1.000000
1.340000	59.730000	16.280000	586.000000	0.000000	150.000000	54.000000	-7.000000	-36.000000
1.350000	59.670000	15.740000	641.000000	0.000000	151.000000	54.000000	-6.000000	-54.000000
1.360000	59.600000	14.900000	684.000000	0.000000	151.000000	54.000000	-7.000000	-84.000000
1.370000	59.660000	14.120000	690.000000	0.000000	150.000000	55.000000	6.000000	-78.000000
1.380000	59.710000	13.390000	678.000000	0.000000	149.000000	56.000000	5.000000	-73.000000
1.390000	59.760000	12.820000	586.000000	0.000000	147.000000	58.000000	5.000000	-57.000000
1.400000	59.860000	12.460000	396.000000	0.000000	146.000000	58.000000	10.000000	-36.000000
1.410000	59.980000	12.240000	158.000000	0.000000	144.000000	60.000000	12.000000	-22.000000
1.420000	59.980000	12.240000	0.000000	1.000000	142.000000	61.000000	0.000000	0.000000
1.430000	60.110000	12.810000	0.000000	0.000000	139.000000	61.000000	13.000000	57.000000
1.440000	60.110000	13.460000	0.000000	0.000000	138.000000	61.000000	0.000000	65.000000
1.450000	60.110000	14.260000	0.000000	0.000000	138.000000	61.000000	0.000000	80.000000
1.460000	60.110000	14.260000	66.000000	1.000000	136.000000	61.000000	0.000000	0.000000
1.470000	60.050000	15.230000	184.000000	0.000000	136.000000	61.000000	-6.000000	97.000000
1.480000	60.110000	15.430000	335.000000	0.000000	138.000000	60.000000	6.000000	20.000000
1.490000	60.190000	15.430000	465.000000	0.000000	139.000000	60.000000	8.000000	0.000000
1.500000	60.310000	15.430000	589.000000	0.000000	139.000000	60.000000	12.000000	0.000000
1.510000	60.400000	14.970000	661.000000	0.000000	139.000000	60.000000	9.000000	-46.000000
1.520000	60.480000	14.340000	722.000000	0.000000	141.000000	59.000000	8.000000	-63.000000
1.530000	60.480000	13.570000	736.000000	0.000000	139.000000	60.000000	0.000000	-77.000000
1.540000	60.610000	13.020000	737.000000	0.000000	139.000000	60.000000	13.000000	-55.000000
1.550000	60.690000	12.680000	678.000000	0.000000	138.000000	60.000000	8.000000	-34.000000
1.560000	60.870000	12.480000	456.000000	0.000000	138.000000	60.000000	18.000000	-20.000000
1.570000	60.870000	12.480000	0.000000	1.000000	136.000000	61.000000	0.000000	0.000000
1.580000	61.230000	12.660000	0.000000	0.000000	135.000000	62.000000	36.000000	18.000000
1.590000	61.230000	13.140000	0.000000	0.000000	135.000000	62.000000	0.000000	48.000000
1.600000	61.020000	13.830000	0.000000	0.000000	135.000000	62.000000	-21.000000	69.000000
1.610000	60.820000	14.560000	0.000000	0.000000	136.000000	61.000000	-20.000000	73.000000
1.620000	60.700000	15.310000	0.000000	0.000000	139.000000	60.000000	-12.000000	75.000000
1.630000	60.700000	15.810000	0.000000	0.000000	141.000000	59.000000	0.000000	50.000000
1.640000	60.700000	16.110000	0.000000	0.000000	142.000000	57.000000	0.000000	30.000000
1.650000	60.700000	16.110000	193.000000	1.000000	143.000000	56.000000	0.000000	0.000000
1.660000	60.790000	16.370000	304.000000	0.000000	145.000000	55.000000	9.000000	26.000000
1.670000	60.790000	16.430000	312.000000	0.000000	146.000000	54.000000	0.000000	6.000000
1.680000	60.730000	16.430000	291.000000	0.000000	147.000000	53.000000	-6.000000	0.000000
1.690000	60.790000	16.430000	171.000000	0.000000	148.000000	54.000000	6.000000	0.000000
1.700000	60.790000	16.430000	0.000000	1.000000	148.000000	54.000000	0.000000	0.000000
1.710000	60.950000	15.860000	0.000000	0.000000	148.000000	54.000000	16.000000	-57.000000
1.720000	60.950000	15.640000	0.000000	0.000000	147.000000	55.000000	0.000000	-22.000000
1.730000	60.950000	15.640000	0.000000	0.000000	147.000000	55.000000	0.000000	0.000000
1.740000	61.150000	15.740000	0.000000	0.000000	147.000000	55.000000	20.000000	10.000000
1.750000	61.330000	15.740000	0.000000	0.000000	147.000000	55.000000	18.000000	0.000000
1.760000	61.550000	15.740000	0.000000	0.000000	148.000000	54.000000	22.000000	0.000000
1.770000	61.550000	15.740000	107.000000	1.000000	147.000000	53.000000	0.000000	0.000000
1.780000	61.800000	15.420000	223.000000	0.000000	147.000000	53.000000	25.000000	-32.000000
1.790000	61.640000	15.420000	371.000000	0.000000	146.000000	54.000000	-16.000000	0.000000
1.800000	61.510000	15.160000	483.000000	0.000000	146.000000	54.000000	-13.000000	-26.000000
1.810000	61.390000	14.830000	567.000000	0.000000	146.000000	54.000000	-12.000000	-33.000000
1.820000	61.330000	14.420000	600.000000	0.000000	145.000000	55.000000	-6.000000	-41.000000
1.830000	61.330000	14.000000	631.000000	0.000000	145.000000	56.000000	0.000000	-42.000000
1.840000	61.440000	13.580000	641.000000	0.000000	143.000000	57.000000	11.000000	-42.000000
1.850000	61.690000	13.360000	636.000000	0.000000	142.000000	58.000000	25.000000	-22.000000
1.860000	62.000000	13.250000	641.000000	0.000000	141.000000	59.000000	31.000000	-11.000000
1.870000	62.320000	13.250000	647.000000	0.000000	139.000000	60.000000	32.000000	0.000000
1.880000	62.640000	13.400000	649.000000	0.000000	139.000000	60.000000	32.000000	15.000000
1.890000	62.930000	13.670000	646.000000	0.000000	139.000000	60.000000	29.000000	27.000000
1.900000	63.140000	14.140000	643.000000	0.000000	139.000000	60.000000	21.000000	47.000000
1.910000	63.300000	14.650000	641.000000	0.000000	139.000000	60.000000	16.000000	51.000000
1.920000	63.300000	15.180000	643.000000	0.000000	139.000000	60.000000	0.000000	53.000000
1.930000	63.220000	15.500000	650.000000	0.000000	141.000000	59.000000	-8.000000	32.000000
1.940000	63.170000	15.580000	650.000000	0.000000	142.000000	58.000000	-5.000000	8.000000
1.950000	63.100000	15.490000	644.000000	0.000000	143.000000	57.000000	-7.000000	-9.000000
1.960000	63.100000	15.400000	644.000000	0.000000	144.000000	57.000000	0.000000	-9.000000
1.970000	62.980000	15.060000	644.000000	0.000000	145.000000	56.000000	-12.000000	-34.000000
1.980000	62.820000	14.550000	649.000000	0.000000	145.000000	56.000000	-16.000000	-51.000000
1.990000	62.940000	14.210000	646.000000	0.000000	145.000000	56.000000	12.000000	-34.000000
2.000000	63.110000	13.970000	641.000000	0.000000	145.000000	56.000000	17.000000	-24.000000
2.010000	63.360000	13.800000	636.000000	0.000000	144.000000	57.000000	25.000000	-17.000000
2.020000	63.660000	13.800000	583.000000	0.000000	144.000000	57.000000	30.000000	0.000000
2.030000	64.070000	13.940000	477.000000	0.000000	143.000000	57.000000	41.000000	14.000000
2.040000	64.550000	14.170000	391.000000	0.000000	144.000000	58.000000	48.000000	23.000000
2.050000	64.870000	14.420000	344.000000	0.000000	144.000000	58.000000	32.000000	25.000000
2.060000	65.060000	14.800000	337.000000	0.000000	144.000000	58.000000	19.000000	38.000000
2.070000	65.160000	15.260000	368.000000	0.000000	144.000000	58.000000	10.000000	46.000000
2.080000	65.250000	15.780000	413.000000	0.000000	144.000000	58.000000	9.000000	52.000000
2.090000	65.180000	16.240000	491.000000	0.000000	146.000000	57.000000	-7.000000	46.000000
2.100000	65.010000	16.590000	538.000000	0.000000	147.000000	56.000000	-17.000000	35.000000
2.110000	64.700000	16.670000	577.000000	0.000000	148.000000	56.000000	-31.000000	8.000000
2.120000	64.080000	16.570000	620.000000	0.000000	149.000000	55.000000	-62.000000	-10.000000
2.130000	63.240000	16.190000	670.000000	0.000000	149.000000	55.000000	-84.000000	-38.000000
2.140000	62.600000	15.800000	682.000000	0.000000	150.000000	54.000000	-64.000000	-39.000000
2.150000	62.210000	15.390000	687.000000	0.000000	148.000000	54.000000	-39.000000	-41.000000
2.160000	61.980000	15.030000	700.000000	0.000000	147.000000	55.000000	-23.000000	-36.000000
2.170000	62.110000	14.710000	700.000000	0.000000	147.000000	55.000000	13.000000	-32.000000
2.180000	62.630000	14.530000	691.000000	0.000000	146.000000	55.000000	52.000000	-18.000000
2.190000	63.410000	14.530000	699.000000	0.000000	145.000000	56.000000	78.000000	0.000000
2.200000	64.320000	14.630000	700.000000	0.000000	144.000000	56.000000	91.000000	10.000000
2.210000	65.050000	14.980000	703.000000	0.000000	144.000000	57.000000	73.000000	35.000000
