t	x	y	pressure	penup	azimuth	inclination	v_x	v_y
0.000000	58.270000	67.250000	125.000000	1.000000	151.000000	51.000000	0.000000	0.000000
0.010000	58.870000	67.600000	244.000000	0.000000	152.000000	53.000000	60.000000	35.000000
0.020000	58.870000	67.730000	339.000000	0.000000	152.000000	53.000000	0.000000	13.000000
0.030000	58.870000	67.810000	428.000000	0.000000	153.000000	53.000000	0.000000	8.000000
0.040000	58.770000	67.810000	491.000000	0.000000	153.000000	53.000000	-10.000000	0.000000
0.050000	58.580000	67.810000	527.000000	0.000000	153.000000	53.000000	-19.000000	0.000000
0.060000	58.030000	67.730000	568.000000	0.000000	152.000000	54.000000	-55.000000	-8.000000
0.070000	57.040000	67.330000	613.000000	0.000000	152.000000	54.000000	-99.000000	-40.000000
0.080000	55.760000	66.740000	638.000000	0.000000	152.000000	54.000000	-128.000000	-59.000000
0.090000	54.160000	65.770000	655.000000	0.000000	151.000000	53.000000	-160.000000	-97.000000
0.100000	52.310000	64.480000	675.000000	0.000000	151.000000	53.000000	-185.000000	-129.000000
0.110000	50.290000	62.970000	696.000000	0.000000	151.000000	53.000000	-202.000000	-151.000000
0.120000	49.030000	61.780000	703.000000	0.000000	149.000000	53.000000	-126.000000	-119.000000
0.130000	48.740000	60.980000	708.000000	0.000000	149.000000	53.000000	-29.000000	-80.000000
0.140000	49.100000	60.440000	717.000000	0.000000	149.000000	53.000000	36.000000	-54.000000
0.150000	50.340000	59.830000	727.000000	0.000000	149.000000	53.000000	124.000000	-61.000000
0.160000	52.480000	59.770000	757.000000	0.000000	148.000000	54.000000	214.000000	-6.000000
0.170000	55.210000	60.090000	785.000000	0.000000	148.000000	54.000000	273.000000	32.000000
0.180000	58.610000	60.820000	797.000000	0.000000	148.000000	54.000000	340.000000	73.000000
0.190000	62.070000	61.760000	806.000000	0.000000	148.000000	54.000000	346.000000	94.000000
0.200000	65.780000	62.850000	817.000000	0.000000	150.000000	54.000000	371.000000	109.000000
0.210000	69.640000	63.780000	824.000000	0.000000	150.000000	54.000000	386.000000	93.000000
0.220000	72.410000	64.350000	825.000000	0.000000	151.000000	54.000000	277.000000	57.000000
0.230000	74.160000	64.680000	855.000000	0.000000	153.000000	54.000000	175.000000	33.000000
0.240000	75.230000	64.820000	912.000000	0.000000	155.000000	54.000000	107.000000	14.000000
0.250000	75.230000	64.820000	999.000000	0.000000	156.000000	55.000000	0.000000	0.000000
0.260000	75.130000	64.820000	1023.000000	0.000000	158.000000	55.000000	-10.000000	0.000000
0.270000	74.940000	64.820000	1023.000000	0.000000	159.000000	55.000000	-19.000000	0.000000
0.280000	74.690000	64.720000	1023.000000	0.000000	160.000000	55.000000	-25.000000	-10.000000
0.290000	74.620000	64.660000	912.000000	0.000000	162.000000	56.000000	-7.000000	-6.000000
0.300000	74.670000	64.660000	373.000000	0.000000	162.000000	56.000000	5.000000	0.000000
0.310000	74.670000	64.660000	0.000000	1.000000	163.000000	56.000000	0.000000	0.000000
0.320000	74.260000	64.660000	0.000000	0.000000	163.000000	56.000000	-41.000000	0.000000
0.330000	73.580000	64.770000	0.000000	0.000000	163.000000	56.000000	-68.000000	11.000000
0.340000	72.810000	64.880000	0.000000	0.000000	164.000000	55.000000	-77.000000	11.000000
0.350000	72.470000	65.040000	0.000000	0.000000	164.000000	55.000000	-34.000000	16.000000
0.360000	72.420000	65.240000	0.000000	0.000000	164.000000	54.000000	-5.000000	20.000000
0.370000	71.880000	65.290000	0.000000	0.000000	164.000000	53.000000	-54.000000	5.000000
0.380000	71.360000	65.290000	0.000000	0.000000	162.000000	52.000000	-52.000000	0.000000
0.390000	70.660000	65.070000	0.000000	0.000000	161.000000	50.000000	-70.000000	-22.000000
0.400000	69.830000	64.700000	0.000000	0.000000	160.000000	48.000000	-83.000000	-37.000000
0.410000	68.870000	64.180000	0.000000	0.000000	158.000000	47.000000	-96.000000	-52.000000
0.420000	67.700000	63.680000	0.000000	0.000000	156.000000	46.000000	-117.000000	-50.000000
0.430000	66.380000	63.190000	0.000000	0.000000	156.000000	46.000000	-132.000000	-49.000000
0.440000	65.280000	62.800000	0.000000	0.000000	155.000000	46.000000	-110.000000	-39.000000
0.450000	64.340000	62.520000	0.000000	0.000000	154.000000	47.000000	-94.000000	-28.000000
0.460000	63.500000	62.310000	0.000000	0.000000	153.000000	48.000000	-84.000000	-21.000000
0.470000	62.800000	62.240000	0.000000	0.000000	151.000000	48.000000	-70.000000	-7.000000
0.480000	62.310000	62.240000	0.000000	0.000000	152.000000	49.000000	-49.000000	0.000000
0.490000	61.970000	62.170000	0.000000	0.000000	151.000000	50.000000	-34.000000	-7.000000
0.500000	61.700000	62.170000	0.000000	0.000000	149.000000	51.000000	-27.000000	0.000000
0.510000	61.440000	62.170000	0.000000	0.000000	149.000000	51.000000	-26.000000	0.000000
0.520000	61.180000	62.090000	0.000000	0.000000	147.000000	51.000000	-26.000000	-8.000000
0.530000	60.510000	62.090000	0.000000	0.000000	145.000000	51.000000	-67.000000	0.000000
0.540000	60.270000	62.090000	0.000000	0.000000	144.000000	50.000000	-24.000000	0.000000
0.550000	60.270000	62.090000	0.000000	0.000000	142.000000	50.000000	0.000000	0.000000
0.560000	60.210000	62.040000	0.000000	0.000000	142.000000	50.000000	-6.000000	-5.000000
0.570000	60.040000	61.940000	0.000000	0.000000	142.000000	50.000000	-17.000000	-10.000000
0.580000	59.810000	61.800000	0.000000	0.000000	141.000000	50.000000	-23.000000	-14.000000
0.590000	59.570000	61.620000	0.000000	0.000000	140.000000	51.000000	-24.000000	-18.000000
0.600000	59.340000	61.440000	0.000000	0.000000	140.000000	51.000000	-23.000000	-18.000000
0.610000	59.130000	61.260000	0.000000	0.000000	138.000000	50.000000	-21.000000	-18.000000
0.620000	58.950000	61.070000	0.000000	0.000000	137.000000	51.000000	-18.000000	-19.000000
0.630000	58.950000	61.070000	0.000000	0.000000	137.000000	51.000000	0.000000	0.000000
0.640000	58.950000	61.070000	0.000000	0.000000	138.000000	51.000000	0.000000	0.000000
0.650000	58.780000	60.750000	0.000000	0.000000	137.000000	52.000000	-17.000000	-32.000000
0.660000	58.780000	60.750000	0.000000	0.000000	137.000000	52.000000	0.000000	0.000000
0.670000	58.670000	60.750000	0.000000	0.000000	139.000000	52.000000	-11.000000	0.000000
0.680000	58.570000	60.830000	0.000000	0.000000	139.000000	52.000000	-10.000000	8.000000
0.690000	58.570000	61.000000	0.000000	0.000000	139.000000	52.000000	0.000000	17.000000
0.700000	58.490000	61.230000	0.000000	0.000000	140.000000	53.000000	-8.000000	23.000000
0.710000	58.490000	61.450000	0.000000	0.000000	140.000000	53.000000	0.000000	22.000000
0.720000	58.420000	61.630000	0.000000	0.000000	140.000000	53.000000	-7.000000	18.000000
0.730000	58.300000	61.730000	0.000000	0.000000	140.000000	53.000000	-12.000000	10.000000
0.740000	58.120000	61.730000	0.000000	0.000000	140.000000	53.000000	-18.000000	0.000000
0.750000	58.000000	61.730000	0.000000	0.000000	141.000000	52.000000	-12.000000	0.000000
0.760000	57.920000	61.730000	0.000000	0.000000	141.000000	52.000000	-8.000000	0.000000
0.770000	57.920000	61.730000	0.000000	0.000000	141.000000	52.000000	0.000000	0.000000
0.780000	58.060000	61.730000	0.000000	0.000000	142.000000	53.000000	14.000000	0.000000
0.790000	58.260000	61.840000	0.000000	0.000000	142.000000	53.000000	20.000000	11.000000
0.800000	58.490000	61.890000	0.000000	0.000000	143.000000	52.000000	23.000000	5.000000
0.810000	58.700000	61.940000	0.000000	0.000000	143.000000	52.000000	21.000000	5.000000
0.820000	58.910000	61.940000	0.000000	0.000000	143.000000	52.000000	21.000000	0.000000
0.830000	59.030000	62.020000	0.000000	0.000000	145.000000	53.000000	12.000000	8.000000
0.840000	59.090000	62.020000	0.000000	0.000000	145.000000	53.000000	6.000000	0.000000
0.850000	59.090000	62.020000	0.000000	0.000000	145.000000	53.000000	0.000000	0.000000
0.860000	59.020000	62.020000	0.000000	0.000000	145.000000	53.000000	-7.000000	0.000000
0.870000	58.940000	62.020000	0.000000	0.000000	145.000000	53.000000	-8.000000	0.000000
0.880000	58.840000	62.020000	0.000000	0.000000	146.000000	52.000000	-10.000000	0.000000
0.890000	58.740000	62.020000	0.000000	0.000000	146.000000	52.000000	-10.000000	0.000000
0.900000	58.580000	62.020000	0.000000	0.000000	147.000000	52.000000	-16.000000	0.000000
0.910000	58.390000	62.020000	0.000000	0.000000	147.000000	52.000000	-19.000000	0.000000
0.920000	58.260000	61.970000	0.000000	0.000000	147.000000	52.000000	-13.000000	-5.000000
0.930000	58.130000	61.970000	0.000000	0.000000	147.000000	52.000000	-13.000000	0.000000
0.940000	58.020000	61.970000	0.000000	0.000000	147.000000	52.000000	-11.000000	0.000000
0.950000	58.020000	61.970000	0.000000	0.000000	147.000000	52.000000	0.000000	0.000000
0.960000	58.020000	61.970000	0.000000	0.000000	147.000000	52.000000	0.000000	0.000000
0.970000	57.640000	62.100000	0.000000	0.000000	147.000000	52.000000	-38.000000	13.000000
0.980000	57.380000	62.100000	0.000000	0.000000	148.000000	53.000000	-26.000000	0.000000
0.990000	57.020000	62.150000	0.000000	0.000000	148.000000	53.000000	-36.000000	5.000000
1.000000	56.780000	62.150000	0.000000	0.000000	148.000000	53.000000	-24.000000	0.000000
1.010000	56.540000	62.150000	0.000000	0.000000	148.000000	53.000000	-24.000000	0.000000
1.020000	56.300000	62.220000	0.000000	0.000000	148.000000	53.000000	-24.000000	7.000000
1.030000	56.010000	62.220000	0.000000	0.000000	148.000000	53.000000	-29.000000	0.000000
1.040000	55.690000	62.220000	0.000000	0.000000	148.000000	53.000000	-32.000000	0.000000
1.050000	55.430000	62.160000	0.000000	0.000000	148.000000	53.000000	-26.000000	-6.000000
1.060000	55.190000	62.160000	0.000000	0.000000	148.000000	53.000000	-24.000000	0.000000
1.070000	55.040000	62.160000	0.000000	0.000000	148.000000	53.000000	-15.000000	0.000000
1.080000	55.040000	62.160000	0.000000	0.000000	148.000000	53.000000	0.000000	0.000000
1.090000	55.100000	62.250000	0.000000	0.000000	147.000000	52.000000	6.000000	9.000000
1.100000	55.170000	62.250000	0.000000	0.000000	147.000000	52.000000	7.000000	0.000000
1.110000	55.240000	62.310000	0.000000	0.000000	147.000000	52.000000	7.000000	6.000000
1.120000	55.330000	62.310000	0.000000	0.000000	147.000000	52.000000	9.000000	0.000000
1.130000	55.380000	62.310000	0.000000	0.000000	146.000000	52.000000	5.000000	0.000000
1.140000	55.380000	62.310000	0.000000	0.000000	146.000000	52.000000	0.000000	0.000000
1.150000	55.380000	62.310000	0.000000	0.000000	146.000000	52.000000	0.000000	0.000000
1.160000	55.380000	62.310000	0.000000	0.000000	146.000000	52.000000	0.000000	0.000000
1.170000	55.330000	62.220000	0.000000	0.000000	146.000000	52.000000	-5.000000	-9.000000
1.180000	55.330000	62.130000	0.000000	0.000000	146.000000	52.000000	0.000000	-9.000000
1.190000	55.330000	62.040000	0.000000	0.000000	146.000000	52.000000	0.000000	-9.000000
1.200000	55.260000	61.960000	0.000000	0.000000	146.000000	52.000000	-7.000000	-8.000000
1.210000	55.210000	61.900000	0.000000	0.000000	146.000000	52.000000	-5.000000	-6.000000
1.220000	55.210000	61.900000	0.000000	0.000000	146.000000	52.000000	0.000000	0.000000
1.230000	55.140000	61.900000	0.000000	0.000000	146.000000	52.000000	-7.000000	0.000000
1.240000	55.140000	61.900000	0.000000	0.000000	146.000000	52.000000	0.000000	0.000000
1.250000	55.140000	61.900000	0.000000	0.000000	146.000000	52.000000	0.000000	0.000000
1.260000	55.140000	61.900000	0.000000	0.000000	146.000000	52.000000	0.000000	0.000000
1.270000	55.140000	61.900000	0.000000	0.000000	146.000000	52.000000	0.000000	0.000000
1.280000	55.140000	61.900000	0.000000	0.000000	146.000000	52.000000	0.000000	0.000000
1.290000	55.240000	61.900000	0.000000	0.000000	146.000000	52.000000	10.000000	0.000000
1.300000	55.240000	61.900000	0.000000	0.000000	146.000000	52.000000	0.000000	0.000000
1.310000	55.240000	61.900000	0.000000	0.000000	146.000000	52.000000	0.000000	0.000000
1.320000	55.550000	62.150000	0.000000	0.000000	146.000000	52.000000	31.000000	25.000000
1.330000	55.680000	62.210000	0.000000	0.000000	146.000000	52.000000	13.000000	6.000000
1.340000	55.770000	62.210000	0.000000	0.000000	146.000000	52.000000	9.000000	0.000000
1.350000	55.820000	62.270000	0.000000	0.000000	146.000000	52.000000	5.000000	6.000000
1.360000	55.880000	62.270000	0.000000	0.000000	146.000000	52.000000	6.000000	0.000000
1.370000	55.950000	62.270000	0.000000	0.000000	146.000000	52.000000	7.000000	0.000000
1.380000	56.050000	62.170000	0.000000	0.000000	146.000000	52.000000	10.000000	-10.000000
1.390000	56.200000	61.940000	0.000000	0.000000	146.000000	52.000000	15.000000	-23.000000
1.400000	56.390000	62.520000	0.000000	0.000000	147.000000	52.000000	19.000000	58.000000
1.410000	56.390000	62.520000	58.000000	1.000000	147.000000	52.000000	0.000000	0.000000
1.420000	56.390000	62.520000	141.000000	0.000000	147.000000	52.000000	0.000000	0.000000
1.430000	56.630000	62.910000	193.000000	0.000000	147.000000	52.000000	24.000000	39.000000
1.440000	56.630000	63.110000	267.000000	0.000000	147.000000	52.000000	0.000000	20.000000
1.450000	56.540000	63.340000	320.000000	0.000000	147.000000	52.000000	-9.000000	23.000000
1.460000	56.330000	63.520000	389.000000	0.000000	147.000000	52.000000	-21.000000	18.000000
1.470000	56.070000	63.650000	431.000000	0.000000	147.000000	52.000000	-26.000000	13.000000
1.480000	55.690000	63.650000	456.000000	0.000000	147.000000	52.000000	-38.000000	0.000000
1.490000	55.230000	63.470000	465.000000	0.000000	147.000000	52.000000	-46.000000	-18.000000
1.500000	54.680000	63.120000	486.000000	0.000000	147.000000	52.000000	-55.000000	-35.000000
1.510000	54.170000	62.750000	491.000000	0.000000	147.000000	52.000000	-51.000000	-37.000000
1.520000	53.900000	62.310000	491.000000	0.000000	146.000000	52.000000	-27.000000	-44.000000
1.530000	53.760000	61.860000	493.000000	0.000000	146.000000	52.000000	-14.000000	-45.000000
1.540000	53.760000	61.420000	491.000000	0.000000	146.000000	52.000000	0.000000	-44.000000
1.550000	53.990000	61.140000	468.000000	0.000000	143.000000	52.000000	23.000000	-28.000000
1.560000	54.290000	60.940000	463.000000	0.000000	143.000000	52.000000	30.000000	-20.000000
1.570000	54.730000	60.940000	458.000000	0.000000	143.000000	52.000000	44.000000	0.000000
1.580000	55.220000	61.240000	447.000000	0.000000	143.000000	52.000000	49.000000	30.000000
1.590000	55.770000	61.670000	442.000000	0.000000	143.000000	52.000000	55.000000	43.000000
1.600000	56.180000	62.140000	440.000000	0.000000	143.000000	52.000000	41.000000	47.000000
1.610000	56.490000	62.610000	445.000000	0.000000	143.000000	52.000000	31.000000	47.000000
1.620000	56.600000	63.070000	465.000000	0.000000	145.000000	53.000000	11.000000	46.000000
1.630000	56.600000	63.470000	490.000000	0.000000	145.000000	53.000000	0.000000	40.000000
1.640000	56.460000	63.690000	515.000000	0.000000	145.000000	53.000000	-14.000000	22.000000
1.650000	56.370000	63.820000	527.000000	0.000000	145.000000	53.000000	-9.000000	13.000000
1.660000	56.180000	63.820000	546.000000	0.000000	145.000000	53.000000	-19.000000	0.000000
1.670000	55.930000	63.650000	557.000000	0.000000	145.000000	53.000000	-25.000000	-17.000000
1.680000	55.570000	63.390000	564.000000	0.000000	146.000000	52.000000	-36.000000	-26.000000
1.690000	55.340000	62.990000	562.000000	0.000000	146.000000	52.000000	-23.000000	-40.000000
1.700000	55.190000	62.530000	567.000000	0.000000	146.000000	52.000000	-15.000000	-46.000000
1.710000	55.190000	62.040000	565.000000	0.000000	146.000000	52.000000	0.000000	-49.000000
1.720000	55.450000	61.650000	570.000000	0.000000	146.000000	52.000000	26.000000	-39.000000
1.730000	55.800000	61.430000	565.000000	0.000000	145.000000	53.000000	35.000000	-22.000000
1.740000	56.400000	61.330000	567.000000	0.000000	145.000000	53.000000	60.000000	-10.000000
1.750000	57.010000	61.390000	563.000000	0.000000	145.000000	53.000000	61.000000	6.000000
1.760000	57.630000	61.490000	574.000000	0.000000	145.000000	53.000000	62.000000	10.000000
1.770000	57.970000	61.630000	620.000000	0.000000	146.000000	53.000000	34.000000	14.000000
1.780000	58.160000	61.700000	702.000000	0.000000	146.000000	53.000000	19.000000	7.000000
1.790000	58.230000	61.700000	779.000000	0.000000	146.000000	53.000000	7.000000	0.000000
1.800000	58.230000	61.700000	839.000000	0.000000	147.000000	53.000000	0.000000	0.000000
1.810000	58.230000	61.700000	897.000000	0.000000	147.000000	53.000000	0.000000	0.000000
1.820000	58.230000	61.700000	950.000000	0.000000	147.000000	53.000000	0.000000	0.000000
1.830000	58.230000	61.700000	994.000000	0.000000	147.000000	53.000000	0.000000	0.000000
1.840000	58.230000	61.700000	1023.000000	0.000000	147.000000	53.000000	0.000000	0.000000
1.850000	58.230000	61.700000	1023.000000	0.000000	147.000000	53.000000	0.000000	0.000000
1.860000	58.230000	61.700000	1023.000000	0.000000	147.000000	53.000000	0.000000	0.000000
1.870000	58.230000	61.700000	1023.000000	0.000000	147.000000	53.000000	0.000000	0.000000
1.880000	58.230000	61.700000	1023.000000	0.000000	147.000000	53.000000	0.000000	0.000000
1.890000	58.230000	61.700000	1023.000000	0.000000	147.000000	53.000000	0.000000	0.000000
1.900000	58.230000	61.700000	1023.000000	0.000000	147.000000	53.000000	0.000000	0.000000
1.910000	58.230000	61.700000	1023.000000	0.000000	147.000000	53.000000	0.000000	0.000000
1.920000	58.290000	61.760000	1023.000000	0.000000	146.000000	54.000000	6.000000	6.000000
1.930000	58.290000	61.760000	1023.000000	0.000000	146.000000	54.000000	0.000000	0.000000
1.940000	58.290000	61.760000	1023.000000	0.000000	146.000000	54.000000	0.000000	0.000000
1.950000	58.290000	61.760000	1023.000000	0.000000	145.000000	55.000000	0.000000	0.000000
1.960000	58.290000	61.760000	1023.000000	0.000000	145.000000	55.000000	0.000000	0.000000
1.970000	58.290000	61.760000	1023.000000	0.000000	145.000000	55.000000	0.000000	0.000000
1.980000	58.290000	61.760000	1023.000000	0.000000	144.000000	54.000000	0.000000	0.000000
1.990000	58.290000	61.760000	1023.000000	0.000000	144.000000	54.000000	0.000000	0.000000
2.000000	58.290000	61.760000	1023.000000	0.000000	143.000000	55.000000	0.000000	0.000000
2.010000	58.290000	61.760000	1023.000000	0.000000	143.000000	55.000000	0.000000	0.000000
2.020000	58.290000	61.760000	1023.000000	0.000000	143.000000	55.000000	0.000000	0.000000
2.030000	58.290000	61.760000	1023.000000	0.000000	141.000000	55.000000	0.000000	0.000000
2.040000	58.290000	61.760000	1023.000000	0.000000	141.000000	55.000000	0.000000	0.000000
2.050000	58.290000	61.760000	1023.000000	0.000000	141.000000	55.000000	0.000000	0.000000
2.060000	58.290000	61.760000	1023.000000	0.000000	142.000000	54.000000	0.000000	0.000000
2.070000	58.290000	61.760000	1023.000000	0.000000	142.000000	54.000000	0.000000	0.000000
2.080000	58.290000	61.760000	1023.000000	0.000000	142.000000	54.000000	0.000000	0.000000
2.090000	58.290000	61.760000	991.000000	0.000000	142.000000	54.000000	0.000000	0.000000
2.100000	58.290000	61.760000	986.000000	0.000000	142.000000	54.000000	0.000000	0.000000
2.110000	58.290000	61.760000	967.000000	0.000000	142.000000	54.000000	0.000000	0.000000
2.120000	58.290000	61.760000	955.000000	0.000000	142.000000	54.000000	0.000000	0.000000
2.130000	58.290000	61.760000	949.000000	0.000000	142.000000	54.000000	0.000000	0.000000
2.140000	58.290000	61.760000	947.000000	0.000000	142.000000	54.000000	0.000000	0.000000
2.150000	58.290000	61.760000	947.000000	0.000000	142.000000	54.000000	0.000000	0.000000
2.160000	58.290000	61.760000	947.000000	0.000000	142.000000	54.000000	0.000000	0.000000
2.170000	58.290000	61.760000	950.000000	0.000000	142.000000	54.000000	0.000000	0.000000
2.180000	58.290000	61.760000	950.000000	0.000000	142.000000	54.000000	0.000000	0.000000
2.190000	58.290000	61.760000	950.000000	0.000000	142.000000	54.000000	0.000000	0.000000
2.200000	58.290000	61.760000	950.000000	0.000000	142.000000	54.000000	0.000000	0.000000
2.210000	58.290000	61.760000	952.000000	0.000000	142.000000	54.000000	0.000000	0.000000
2.220000	58.290000	61.760000	950.000000	0.000000	142.000000	54.000000	0.000000	0.000000
2.230000	58.290000	61.760000	955.000000	0.000000	142.000000	54.000000	0.000000	0.000000
