t	x	y	pressure	penup	azimuth	inclination	v_x	v_y
0.000000	14.590000	63.320000	153.000000	1.000000	138.000000	59.000000	0.000000	0.000000
0.010000	15.050000	63.240000	270.000000	0.000000	138.000000	59.000000	46.000000	-8.000000
0.020000	15.320000	63.320000	392.000000	0.000000	138.000000	59.000000	27.000000	8.000000
0.030000	15.960000	63.570000	491.000000	0.000000	138.000000	59.000000	64.000000	25.000000
0.040000	17.070000	63.940000	551.000000	0.000000	138.000000	59.000000	111.000000	37.000000
0.050000	18.500000	64.490000	580.000000	0.000000	136.000000	58.000000	143.000000	55.000000
0.060000	20.720000	65.150000	592.000000	0.000000	135.000000	59.000000	222.000000	66.000000
0.070000	22.320000	65.880000	588.000000	0.000000	135.000000	59.000000	160.000000	73.000000
0.080000	23.500000	66.410000	591.000000	0.000000	135.000000	59.000000	118.000000	53.000000
0.090000	24.530000	66.910000	599.000000	0.000000	135.000000	59.000000	103.000000	50.000000
0.100000	25.050000	67.390000	638.000000	0.000000	135.000000	59.000000	52.000000	48.000000
0.110000	25.220000	67.520000	681.000000	0.000000	135.000000	59.000000	17.000000	13.000000
0.120000	25.060000	67.520000	699.000000	0.000000	135.000000	59.000000	-16.000000	0.000000
0.130000	24.330000	67.390000	699.000000	0.000000	135.000000	59.000000	-73.000000	-13.000000
0.140000	23.230000	66.880000	690.000000	0.000000	136.000000	60.000000	-110.000000	-51.000000
0.150000	21.410000	65.900000	694.000000	0.000000	138.000000	59.000000	-182.000000	-98.000000
0.160000	19.040000	64.600000	699.000000	0.000000	138.000000	59.000000	-237.000000	-130.000000
0.170000	16.310000	63.060000	691.000000	0.000000	138.000000	59.000000	-273.000000	-154.000000
0.180000	13.700000	61.500000	710.000000	0.000000	138.000000	59.000000	-261.000000	-156.000000
0.190000	11.810000	60.310000	739.000000	0.000000	136.000000	58.000000	-189.000000	-119.000000
0.200000	10.400000	59.390000	731.000000	0.000000	135.000000	59.000000	-141.000000	-92.000000
0.210000	10.680000	59.310000	751.000000	0.000000	135.000000	59.000000	28.000000	-8.000000
0.220000	11.950000	59.620000	785.000000	0.000000	134.000000	58.000000	127.000000	31.000000
0.230000	13.880000	60.180000	827.000000	0.000000	134.000000	58.000000	193.000000	56.000000
0.240000	17.320000	61.460000	849.000000	0.000000	134.000000	58.000000	344.000000	128.000000
0.250000	21.620000	62.760000	848.000000	0.000000	134.000000	58.000000	430.000000	130.000000
0.260000	26.480000	64.080000	827.000000	0.000000	135.000000	58.000000	486.000000	132.000000
0.270000	31.150000	65.250000	788.000000	0.000000	135.000000	58.000000	467.000000	117.000000
0.280000	34.970000	66.190000	728.000000	0.000000	136.000000	58.000000	382.000000	94.000000
0.290000	38.210000	66.970000	667.000000	0.000000	139.000000	58.000000	324.000000	78.000000
0.300000	39.690000	67.470000	628.000000	0.000000	141.000000	59.000000	148.000000	50.000000
0.310000	40.230000	67.920000	585.000000	0.000000	143.000000	59.000000	54.000000	45.000000
0.320000	40.140000	68.140000	364.000000	0.000000	145.000000	59.000000	-9.000000	22.000000
0.330000	40.140000	68.140000	0.000000	1.000000	146.000000	60.000000	0.000000	0.000000
0.340000	38.180000	68.060000	0.000000	0.000000	149.000000	59.000000	-196.000000	-8.000000
0.350000	36.110000	67.770000	0.000000	0.000000	149.000000	59.000000	-207.000000	-29.000000
0.360000	33.870000	67.420000	0.000000	0.000000	149.000000	59.000000	-224.000000	-35.000000
0.370000	31.480000	67.050000	0.000000	0.000000	149.000000	59.000000	-239.000000	-37.000000
0.380000	28.990000	66.660000	0.000000	0.000000	149.000000	58.000000	-249.000000	-39.000000
0.390000	26.390000	66.260000	0.000000	0.000000	147.000000	58.000000	-260.000000	-40.000000
0.400000	23.820000	65.740000	0.000000	0.000000	146.000000	57.000000	-257.000000	-52.000000
0.410000	21.610000	65.200000	0.000000	0.000000	145.000000	56.000000	-221.000000	-54.000000
0.420000	19.630000	64.630000	0.000000	0.000000	144.000000	56.000000	-198.000000	-57.000000
0.430000	18.500000	64.100000	0.000000	0.000000	141.000000	55.000000	-113.000000	-53.000000
0.440000	17.850000	63.810000	0.000000	0.000000	139.000000	55.000000	-65.000000	-29.000000
0.450000	17.530000	63.650000	0.000000	0.000000	137.000000	54.000000	-32.000000	-16.000000
0.460000	17.450000	63.580000	0.000000	0.000000	136.000000	54.000000	-8.000000	-7.000000
0.470000	17.450000	63.580000	0.000000	0.000000	135.000000	54.000000	0.000000	0.000000
0.480000	17.560000	63.580000	0.000000	0.000000	134.000000	55.000000	11.000000	0.000000
0.490000	17.790000	63.710000	0.000000	0.000000	132.000000	55.000000	23.000000	13.000000
0.500000	18.040000	63.830000	0.000000	0.000000	131.000000	56.000000	25.000000	12.000000
0.510000	18.040000	63.830000	131.000000	1.000000	132.000000	57.000000	0.000000	0.000000
0.520000	18.040000	63.830000	247.000000	0.000000	132.000000	58.000000	0.000000	0.000000
0.530000	18.040000	63.830000	369.000000	0.000000	134.000000	58.000000	0.000000	0.000000
0.540000	18.040000	63.830000	465.000000	0.000000	134.000000	60.000000	0.000000	0.000000
0.550000	17.610000	63.890000	518.000000	0.000000	134.000000	60.000000	-43.000000	6.000000
0.560000	17.250000	63.580000	578.000000	0.000000	134.000000	60.000000	-36.000000	-31.000000
0.570000	16.790000	63.090000	614.000000	0.000000	134.000000	60.000000	-46.000000	-49.000000
0.580000	16.380000	62.610000	624.000000	0.000000	134.000000	60.000000	-41.000000	-48.000000
0.590000	16.280000	62.160000	628.000000	0.000000	132.000000	59.000000	-10.000000	-45.000000
0.600000	16.380000	61.790000	628.000000	0.000000	131.000000	58.000000	10.000000	-37.000000
0.610000	16.600000	61.460000	631.000000	0.000000	130.000000	58.000000	22.000000	-33.000000
0.620000	17.020000	61.320000	631.000000	0.000000	128.000000	57.000000	42.000000	-14.000000
0.630000	17.570000	61.460000	619.000000	0.000000	128.000000	57.000000	55.000000	14.000000
0.640000	18.260000	61.780000	605.000000	0.000000	127.000000	56.000000	69.000000	32.000000
0.650000	18.610000	62.140000	603.000000	0.000000	128.000000	57.000000	35.000000	36.000000
0.660000	18.740000	62.660000	599.000000	0.000000	128.000000	57.000000	13.000000	52.000000
0.670000	18.800000	63.300000	605.000000	0.000000	128.000000	57.000000	6.000000	64.000000
0.680000	18.710000	63.950000	609.000000	0.000000	130.000000	58.000000	-9.000000	65.000000
0.690000	18.520000	64.290000	631.000000	0.000000	131.000000	58.000000	-19.000000	34.000000
0.700000	18.440000	64.420000	636.000000	0.000000	131.000000	58.000000	-8.000000	13.000000
0.710000	18.380000	64.370000	639.000000	0.000000	132.000000	59.000000	-6.000000	-5.000000
0.720000	18.380000	64.280000	650.000000	0.000000	132.000000	59.000000	0.000000	-9.000000
0.730000	18.240000	63.790000	659.000000	0.000000	132.000000	59.000000	-14.000000	-49.000000
0.740000	18.100000	63.050000	659.000000	0.000000	132.000000	59.000000	-14.000000	-74.000000
0.750000	18.320000	62.690000	620.000000	0.000000	132.000000	59.000000	22.000000	-36.000000
0.760000	18.600000	62.480000	488.000000	0.000000	134.000000	58.000000	28.000000	-21.000000
0.770000	18.870000	62.370000	170.000000	0.000000	134.000000	58.000000	27.000000	-11.000000
0.780000	18.870000	62.370000	0.000000	1.000000	134.000000	58.000000	0.000000	0.000000
0.790000	19.260000	62.590000	0.000000	0.000000	132.000000	58.000000	39.000000	22.000000
0.800000	19.310000	62.970000	0.000000	0.000000	132.000000	58.000000	5.000000	38.000000
0.810000	19.310000	63.580000	0.000000	0.000000	132.000000	58.000000	0.000000	61.000000
0.820000	19.310000	64.160000	0.000000	0.000000	131.000000	57.000000	0.000000	58.000000
0.830000	19.420000	64.500000	0.000000	0.000000	131.000000	57.000000	11.000000	34.000000
0.840000	19.420000	64.500000	246.000000	1.000000	131.000000	57.000000	0.000000	0.000000
0.850000	19.560000	64.920000	344.000000	0.000000	131.000000	57.000000	14.000000	42.000000
0.860000	19.560000	64.970000	420.000000	0.000000	132.000000	58.000000	0.000000	5.000000
0.870000	19.630000	64.910000	481.000000	0.000000	132.000000	58.000000	7.000000	-6.000000
0.880000	19.700000	64.750000	521.000000	0.000000	132.000000	58.000000	7.000000	-16.000000
0.890000	19.850000	64.400000	540.000000	0.000000	132.000000	58.000000	15.000000	-35.000000
0.900000	20.040000	63.920000	542.000000	0.000000	132.000000	58.000000	19.000000	-48.000000
0.910000	20.130000	63.500000	540.000000	0.000000	132.000000	58.000000	9.000000	-42.000000
0.920000	20.180000	63.180000	540.000000	0.000000	132.000000	58.000000	5.000000	-32.000000
0.930000	20.180000	62.920000	530.000000	0.000000	132.000000	58.000000	0.000000	-26.000000
0.940000	20.230000	62.870000	529.000000	0.000000	131.000000	57.000000	5.000000	-5.000000
0.950000	20.230000	62.930000	530.000000	0.000000	131.000000	57.000000	0.000000	6.000000
0.960000	20.230000	63.070000	532.000000	0.000000	131.000000	57.000000	0.000000	14.000000
0.970000	20.100000	63.570000	540.000000	0.000000	130.000000	56.000000	-13.000000	50.000000
0.980000	20.100000	64.070000	540.000000	0.000000	130.000000	56.000000	0.000000	50.000000
0.990000	20.100000	64.570000	546.000000	0.000000	130.000000	56.000000	0.000000	50.000000
1.000000	20.240000	64.870000	537.000000	0.000000	131.000000	57.000000	14.000000	30.000000
1.010000	20.500000	64.920000	542.000000	0.000000	131.000000	57.000000	26.000000	5.000000
1.020000	20.690000	64.810000	561.000000	0.000000	131.000000	57.000000	19.000000	-11.000000
1.030000	20.890000	64.550000	561.000000	0.000000	131.000000	57.000000	20.000000	-26.000000
1.040000	21.150000	64.190000	595.000000	0.000000	131.000000	57.000000	26.000000	-36.000000
1.050000	21.480000	63.770000	600.000000	0.000000	131.000000	57.000000	33.000000	-42.000000
1.060000	21.970000	63.410000	614.000000	0.000000	131.000000	57.000000	49.000000	-36.000000
1.070000	22.500000	63.240000	613.000000	0.000000	130.000000	56.000000	53.000000	-17.000000
1.080000	23.120000	63.240000	616.000000	0.000000	130.000000	56.000000	62.000000	0.000000
1.090000	23.850000	63.480000	620.000000	0.000000	130.000000	56.000000	73.000000	24.000000
1.100000	24.260000	63.820000	628.000000	0.000000	129.000000	56.000000	41.000000	34.000000
1.110000	24.460000	64.210000	647.000000	0.000000	129.000000	56.000000	20.000000	39.000000
1.120000	24.320000	64.720000	665.000000	0.000000	130.000000	56.000000	-14.000000	51.000000
1.130000	23.880000	65.200000	667.000000	0.000000	130.000000	56.000000	-44.000000	48.000000
1.140000	23.230000	65.360000	667.000000	0.000000	130.000000	56.000000	-65.000000	16.000000
1.150000	22.450000	65.310000	636.000000	0.000000	130.000000	56.000000	-78.000000	-5.000000
1.160000	21.590000	65.060000	486.000000	0.000000	131.000000	57.000000	-86.000000	-25.000000
1.170000	20.680000	64.820000	173.000000	0.000000	131.000000	57.000000	-91.000000	-24.000000
1.180000	20.680000	64.820000	0.000000	1.000000	130.000000	58.000000	0.000000	0.000000
1.190000	20.240000	64.760000	0.000000	0.000000	130.000000	58.000000	-44.000000	-6.000000
1.200000	20.480000	65.140000	0.000000	0.000000	128.000000	57.000000	24.000000	38.000000
1.210000	21.120000	65.910000	0.000000	0.000000	128.000000	57.000000	64.000000	77.000000
1.220000	21.780000	66.650000	0.000000	0.000000	128.000000	57.000000	66.000000	74.000000
1.230000	22.250000	67.170000	0.000000	0.000000	128.000000	57.000000	47.000000	52.000000
1.240000	22.590000	67.550000	0.000000	0.000000	128.000000	57.000000	34.000000	38.000000
1.250000	22.800000	67.920000	0.000000	0.000000	130.000000	56.000000	21.000000	37.000000
1.260000	22.800000	67.920000	369.000000	1.000000	130.000000	56.000000	0.000000	0.000000
1.270000	22.800000	68.360000	491.000000	0.000000	130.000000	56.000000	0.000000	44.000000
1.280000	22.800000	68.480000	551.000000	0.000000	130.000000	56.000000	0.000000	12.000000
1.290000	22.800000	68.400000	634.000000	0.000000	131.000000	56.000000	0.000000	-8.000000
1.300000	22.880000	68.190000	697.000000	0.000000	131.000000	56.000000	8.000000	-21.000000
1.310000	23.030000	67.540000	730.000000	0.000000	131.000000	56.000000	15.000000	-65.000000
1.320000	23.230000	66.770000	737.000000	0.000000	131.000000	56.000000	20.000000	-77.000000
1.330000	23.400000	65.910000	736.000000	0.000000	131.000000	56.000000	17.000000	-86.000000
1.340000	23.540000	65.320000	670.000000	0.000000	131.000000	56.000000	14.000000	-59.000000
1.350000	23.820000	64.850000	468.000000	0.000000	130.000000	56.000000	28.000000	-47.000000
1.360000	23.820000	64.850000	0.000000	1.000000	130.000000	56.000000	0.000000	0.000000
1.370000	24.300000	64.310000	0.000000	0.000000	130.000000	56.000000	48.000000	-54.000000
1.380000	24.410000	64.540000	0.000000	0.000000	130.000000	56.000000	11.000000	23.000000
1.390000	24.410000	65.020000	0.000000	0.000000	131.000000	57.000000	0.000000	48.000000
1.400000	24.410000	65.680000	0.000000	0.000000	131.000000	57.000000	0.000000	66.000000
1.410000	24.490000	66.320000	0.000000	0.000000	131.000000	57.000000	8.000000	64.000000
1.420000	24.640000	66.660000	0.000000	0.000000	134.000000	57.000000	15.000000	34.000000
1.430000	24.640000	66.660000	269.000000	1.000000	134.000000	57.000000	0.000000	0.000000
1.440000	24.640000	66.660000	396.000000	0.000000	134.000000	57.000000	0.000000	0.000000
1.450000	24.640000	66.660000	502.000000	0.000000	134.000000	57.000000	0.000000	0.000000
1.460000	24.640000	66.660000	556.000000	0.000000	132.000000	58.000000	0.000000	0.000000
1.470000	24.640000	66.660000	606.000000	0.000000	132.000000	58.000000	0.000000	0.000000
1.480000	24.510000	66.270000	620.000000	0.000000	132.000000	58.000000	-13.000000	-39.000000
1.490000	24.660000	65.590000	619.000000	0.000000	132.000000	58.000000	15.000000	-68.000000
1.500000	24.930000	65.170000	570.000000	0.000000	132.000000	58.000000	27.000000	-42.000000
1.510000	25.240000	64.840000	311.000000	0.000000	132.000000	58.000000	31.000000	-33.000000
1.520000	25.240000	64.840000	0.000000	1.000000	132.000000	58.000000	0.000000	0.000000
1.530000	25.620000	64.640000	0.000000	0.000000	132.000000	58.000000	38.000000	-20.000000
1.540000	25.530000	64.990000	0.000000	0.000000	132.000000	58.000000	-9.000000	35.000000
1.550000	25.130000	65.540000	0.000000	0.000000	132.000000	58.000000	-40.000000	55.000000
1.560000	24.760000	66.160000	0.000000	0.000000	134.000000	57.000000	-37.000000	62.000000
1.570000	24.450000	66.740000	0.000000	0.000000	134.000000	57.000000	-31.000000	58.000000
1.580000	24.320000	67.210000	0.000000	0.000000	134.000000	57.000000	-13.000000	47.000000
1.590000	24.320000	67.640000	0.000000	0.000000	135.000000	57.000000	0.000000	43.000000
1.600000	24.320000	67.640000	339.000000	1.000000	135.000000	57.000000	0.000000	0.000000
1.610000	24.300000	67.940000	339.000000	0.000000	134.000000	57.000000	-2.000000	30.000000
1.620000	24.100000	68.120000	343.000000	0.000000	134.000000	57.000000	-20.000000	18.000000
1.630000	24.180000	68.060000	309.000000	0.000000	134.000000	57.000000	8.000000	-6.000000
1.640000	24.310000	67.980000	34.000000	0.000000	131.000000	57.000000	13.000000	-8.000000
1.650000	24.310000	67.980000	0.000000	1.000000	131.000000	57.000000	0.000000	0.000000
1.660000	24.890000	67.630000	0.000000	0.000000	131.000000	57.000000	58.000000	-35.000000
1.670000	25.020000	67.630000	0.000000	0.000000	131.000000	57.000000	13.000000	0.000000
1.680000	25.160000	67.680000	0.000000	0.000000	132.000000	58.000000	14.000000	5.000000
1.690000	25.300000	67.680000	0.000000	0.000000	132.000000	58.000000	14.000000	0.000000
1.700000	25.550000	67.680000	0.000000	0.000000	134.000000	57.000000	25.000000	0.000000
1.710000	25.810000	67.560000	0.000000	0.000000	135.000000	58.000000	26.000000	-12.000000
1.720000	25.810000	67.560000	302.000000	1.000000	135.000000	58.000000	0.000000	0.000000
1.730000	25.920000	67.070000	409.000000	0.000000	135.000000	58.000000	11.000000	-49.000000
1.740000	25.620000	66.900000	514.000000	0.000000	135.000000	58.000000	-30.000000	-17.000000
1.750000	25.550000	66.810000	594.000000	0.000000	134.000000	58.000000	-7.000000	-9.000000
1.760000	25.650000	66.610000	636.000000	0.000000	134.000000	58.000000	10.000000	-20.000000
1.770000	25.650000	66.260000	643.000000	0.000000	134.000000	58.000000	0.000000	-35.000000
1.780000	25.820000	65.880000	650.000000	0.000000	132.000000	59.000000	17.000000	-38.000000
1.790000	26.090000	65.540000	652.000000	0.000000	131.000000	58.000000	27.000000	-34.000000
1.800000	26.430000	65.420000	659.000000	0.000000	131.000000	58.000000	34.000000	-12.000000
1.810000	26.760000	65.290000	661.000000	0.000000	131.000000	58.000000	33.000000	-13.000000
1.820000	27.140000	65.380000	653.000000	0.000000	131.000000	58.000000	38.000000	9.000000
1.830000	27.500000	65.620000	647.000000	0.000000	130.000000	58.000000	36.000000	24.000000
1.840000	27.820000	66.100000	642.000000	0.000000	131.000000	57.000000	32.000000	48.000000
1.850000	27.980000	66.610000	639.000000	0.000000	131.000000	57.000000	16.000000	51.000000
1.860000	27.980000	67.140000	641.000000	0.000000	131.000000	57.000000	0.000000	53.000000
1.870000	27.860000	67.390000	645.000000	0.000000	131.000000	57.000000	-12.000000	25.000000
1.880000	27.720000	67.490000	636.000000	0.000000	132.000000	58.000000	-14.000000	10.000000
1.890000	27.640000	67.490000	636.000000	0.000000	132.000000	58.000000	-8.000000	0.000000
1.900000	27.640000	67.490000	637.000000	0.000000	132.000000	58.000000	0.000000	0.000000
1.910000	27.590000	67.220000	646.000000	0.000000	132.000000	58.000000	-5.000000	-27.000000
1.920000	27.460000	66.790000	649.000000	0.000000	132.000000	58.000000	-13.000000	-43.000000
1.930000	27.520000	66.340000	652.000000	0.000000	132.000000	58.000000	6.000000	-45.000000
1.940000	27.780000	66.040000	649.000000	0.000000	132.000000	58.000000	26.000000	-30.000000
1.950000	28.170000	65.850000	641.000000	0.000000	132.000000	58.000000	39.000000	-19.000000
1.960000	28.520000	65.710000	594.000000	0.000000	132.000000	58.000000	35.000000	-14.000000
1.970000	29.020000	65.710000	470.000000	0.000000	132.000000	58.000000	50.000000	0.000000
1.980000	29.610000	65.920000	307.000000	0.000000	132.000000	58.000000	59.000000	21.000000
1.990000	30.110000	66.250000	173.000000	0.000000	132.000000	58.000000	50.000000	33.000000
2.000000	30.500000	66.650000	168.000000	0.000000	132.000000	58.000000	39.000000	40.000000
2.010000	30.820000	67.110000	247.000000	0.000000	132.000000	58.000000	32.000000	46.000000
2.020000	30.820000	67.500000	391.000000	0.000000	132.000000	58.000000	0.000000	39.000000
2.030000	30.730000	67.870000	535.000000	0.000000	132.000000	58.000000	-9.000000	37.000000
2.040000	30.490000	68.150000	620.000000	0.000000	132.000000	57.000000	-24.000000	28.000000
2.050000	30.110000	68.260000	673.000000	0.000000	132.000000	57.000000	-38.000000	11.000000
2.060000	29.590000	68.260000	687.000000	0.000000	132.000000	57.000000	-52.000000	0.000000
2.070000	28.980000	67.950000	730.000000	0.000000	134.000000	57.000000	-61.000000	-31.000000
2.080000	28.270000	67.540000	722.000000	0.000000	134.000000	57.000000	-71.000000	-41.000000
2.090000	27.920000	67.060000	721.000000	0.000000	134.000000	57.000000	-35.000000	-48.000000
2.100000	27.810000	66.720000	731.000000	0.000000	134.000000	57.000000	-11.000000	-34.000000
2.110000	27.990000	66.440000	733.000000	0.000000	134.000000	57.000000	18.000000	-28.000000
2.120000	28.420000	66.310000	720.000000	0.000000	132.000000	58.000000	43.000000	-13.000000
2.130000	29.010000	66.310000	721.000000	0.000000	132.000000	58.000000	59.000000	0.000000
2.140000	29.830000	66.310000	721.000000	0.000000	132.000000	58.000000	82.000000	0.000000
2.150000	30.400000	66.310000	722.000000	0.000000	132.000000	58.000000	57.000000	0.000000
2.160000	30.790000	66.310000	727.000000	0.000000	131.000000	57.000000	39.000000	0.000000
2.170000	31.130000	66.310000	731.000000	0.000000	131.000000	57.000000	34.000000	0.000000
2.180000	31.340000	66.310000	667.000000	0.000000	131.000000	57.000000	21.000000	0.000000
2.190000	31.450000	66.310000	448.000000	0.000000	131.000000	57.000000	11.000000	0.000000
2.200000	31.450000	66.310000	0.000000	1.000000	131.000000	57.000000	0.000000	0.000000
2.210000	31.690000	66.370000	0.000000	0.000000	130.000000	56.000000	24.000000	6.000000
