t	x	y	pressure	penup	azimuth	inclination	v_x	v_y
0.000000	59.950000	13.340000	106.000000	1.000000	154.000000	56.000000	0.000000	0.000000
0.010000	60.570000	14.230000	214.000000	0.000000	154.000000	56.000000	62.000000	89.000000
0.020000	60.270000	14.360000	276.000000	0.000000	154.000000	56.000000	-30.000000	13.000000
0.030000	59.530000	14.360000	334.000000	0.000000	154.000000	56.000000	-74.000000	0.000000
0.040000	58.500000	14.100000	374.000000	0.000000	154.000000	57.000000	-103.000000	-26.000000
0.050000	56.790000	13.470000	420.000000	0.000000	152.000000	57.000000	-171.000000	-63.000000
0.060000	54.950000	12.570000	501.000000	0.000000	152.000000	57.000000	-184.000000	-90.000000
0.070000	53.020000	11.110000	540.000000	0.000000	151.000000	58.000000	-193.000000	-146.000000
0.080000	50.910000	9.840000	611.000000	0.000000	150.000000	57.000000	-211.000000	-127.000000
0.090000	49.600000	8.700000	658.000000	0.000000	150.000000	57.000000	-131.000000	-114.000000
0.100000	48.830000	8.100000	671.000000	0.000000	150.000000	57.000000	-77.000000	-60.000000
0.110000	49.130000	7.800000	675.000000	0.000000	150.000000	57.000000	30.000000	-30.000000
0.120000	50.640000	7.690000	679.000000	0.000000	150.000000	57.000000	151.000000	-11.000000
0.130000	52.960000	7.790000	684.000000	0.000000	151.000000	56.000000	232.000000	10.000000
0.140000	56.200000	8.380000	696.000000	0.000000	152.000000	57.000000	324.000000	59.000000
0.150000	59.830000	9.300000	691.000000	0.000000	152.000000	57.000000	363.000000	92.000000
0.160000	63.730000	10.280000	700.000000	0.000000	152.000000	57.000000	390.000000	98.000000
0.170000	66.950000	11.420000	707.000000	0.000000	152.000000	57.000000	322.000000	114.000000
0.180000	69.390000	12.670000	717.000000	0.000000	154.000000	57.000000	244.000000	125.000000
0.190000	71.320000	13.330000	724.000000	0.000000	153.000000	58.000000	193.000000	66.000000
0.200000	72.190000	13.680000	725.000000	0.000000	154.000000	58.000000	87.000000	35.000000
0.210000	72.510000	13.820000	646.000000	0.000000	154.000000	58.000000	32.000000	14.000000
0.220000	72.510000	13.820000	0.000000	1.000000	156.000000	59.000000	0.000000	0.000000
0.230000	72.250000	13.650000	0.000000	0.000000	156.000000	59.000000	-26.000000	-17.000000
0.240000	71.170000	13.390000	0.000000	0.000000	158.000000	58.000000	-108.000000	-26.000000
0.250000	69.510000	12.990000	0.000000	0.000000	158.000000	58.000000	-166.000000	-40.000000
0.260000	67.330000	12.360000	0.000000	0.000000	159.000000	57.000000	-218.000000	-63.000000
0.270000	64.880000	11.590000	0.000000	0.000000	160.000000	56.000000	-245.000000	-77.000000
0.280000	62.240000	11.050000	0.000000	0.000000	159.000000	55.000000	-264.000000	-54.000000
0.290000	59.720000	10.580000	0.000000	0.000000	157.000000	54.000000	-252.000000	-47.000000
0.300000	57.600000	10.170000	0.000000	0.000000	156.000000	53.000000	-212.000000	-41.000000
0.310000	55.750000	9.870000	0.000000	0.000000	155.000000	52.000000	-185.000000	-30.000000
0.320000	54.810000	9.560000	0.000000	0.000000	155.000000	52.000000	-94.000000	-31.000000
0.330000	54.320000	9.240000	0.000000	0.000000	154.000000	52.000000	-49.000000	-32.000000
0.340000	54.120000	9.060000	0.000000	0.000000	153.000000	52.000000	-20.000000	-18.000000
0.350000	53.660000	8.960000	0.000000	0.000000	152.000000	53.000000	-46.000000	-10.000000
0.360000	53.660000	9.040000	0.000000	0.000000	151.000000	53.000000	0.000000	8.000000
0.370000	53.940000	9.170000	0.000000	0.000000	151.000000	54.000000	28.000000	13.000000
0.380000	54.240000	9.340000	0.000000	0.000000	150.000000	55.000000	30.000000	17.000000
0.390000	54.550000	9.440000	0.000000	0.000000	150.000000	55.000000	31.000000	10.000000
0.400000	54.800000	9.530000	0.000000	0.000000	149.000000	56.000000	25.000000	9.000000
0.410000	55.000000	9.620000	0.000000	0.000000	148.000000	56.000000	20.000000	9.000000
0.420000	55.150000	9.620000	0.000000	0.000000	148.000000	56.000000	15.000000	0.000000
0.430000	55.150000	9.620000	0.000000	0.000000	148.000000	56.000000	0.000000	0.000000
0.440000	54.950000	9.620000	0.000000	0.000000	148.000000	56.000000	-20.000000	0.000000
0.450000	54.860000	9.540000	0.000000	0.000000	148.000000	56.000000	-9.000000	-8.000000
0.460000	54.780000	9.540000	0.000000	0.000000	148.000000	56.000000	-8.000000	0.000000
0.470000	54.780000	9.600000	0.000000	0.000000	148.000000	56.000000	0.000000	6.000000
0.480000	54.780000	9.650000	0.000000	0.000000	148.000000	56.000000	0.000000	5.000000
0.490000	54.890000	9.720000	0.000000	0.000000	148.000000	56.000000	11.000000	7.000000
0.500000	54.970000	9.810000	0.000000	0.000000	148.000000	56.000000	8.000000	9.000000
0.510000	55.060000	9.870000	0.000000	0.000000	149.000000	56.000000	9.000000	6.000000
0.520000	55.160000	9.870000	0.000000	0.000000	148.000000	57.000000	10.000000	0.000000
0.530000	55.160000	9.870000	0.000000	0.000000	148.000000	57.000000	0.000000	0.000000
0.540000	55.160000	9.800000	0.000000	0.000000	148.000000	57.000000	0.000000	-7.000000
0.550000	55.100000	9.690000	0.000000	0.000000	148.000000	57.000000	-6.000000	-11.000000
0.560000	55.100000	9.610000	0.000000	0.000000	148.000000	57.000000	0.000000	-8.000000
0.570000	55.100000	9.610000	0.000000	0.000000	148.000000	57.000000	0.000000	0.000000
0.580000	55.200000	9.550000	0.000000	0.000000	148.000000	57.000000	10.000000	-6.000000
0.590000	55.290000	9.550000	0.000000	0.000000	148.000000	57.000000	9.000000	0.000000
0.600000	55.400000	9.550000	0.000000	0.000000	148.000000	57.000000	11.000000	0.000000
0.610000	55.460000	9.550000	0.000000	0.000000	149.000000	56.000000	6.000000	0.000000
0.620000	55.460000	9.550000	0.000000	0.000000	149.000000	56.000000	0.000000	0.000000
0.630000	55.460000	9.460000	0.000000	0.000000	149.000000	56.000000	0.000000	-9.000000
0.640000	55.390000	9.460000	0.000000	0.000000	149.000000	56.000000	-7.000000	0.000000
0.650000	55.300000	9.350000	0.000000	0.000000	149.000000	56.000000	-9.000000	-11.000000
0.660000	55.210000	9.350000	0.000000	0.000000	149.000000	56.000000	-9.000000	0.000000
0.670000	55.130000	9.280000	0.000000	0.000000	149.000000	56.000000	-8.000000	-7.000000
0.680000	55.070000	9.280000	0.000000	0.000000	149.000000	56.000000	-6.000000	0.000000
0.690000	55.070000	9.280000	0.000000	0.000000	149.000000	56.000000	0.000000	0.000000
0.700000	55.070000	9.340000	0.000000	0.000000	149.000000	56.000000	0.000000	6.000000
0.710000	55.160000	9.440000	0.000000	0.000000	149.000000	56.000000	9.000000	10.000000
0.720000	55.210000	9.440000	0.000000	0.000000	149.000000	56.000000	5.000000	0.000000
0.730000	55.210000	9.500000	0.000000	0.000000	149.000000	56.000000	0.000000	6.000000
0.740000	55.210000	9.500000	0.000000	0.000000	149.000000	56.000000	0.000000	0.000000
0.750000	55.120000	9.440000	0.000000	0.000000	149.000000	56.000000	-9.000000	-6.000000
0.760000	55.120000	9.440000	0.000000	0.000000	148.000000	56.000000	0.000000	0.000000
0.770000	55.050000	9.390000	0.000000	0.000000	148.000000	56.000000	-7.000000	-5.000000
0.780000	55.050000	9.390000	0.000000	0.000000	147.000000	56.000000	0.000000	0.000000
0.790000	55.050000	9.460000	0.000000	0.000000	147.000000	56.000000	0.000000	7.000000
0.800000	55.160000	9.530000	0.000000	0.000000	147.000000	56.000000	11.000000	7.000000
0.810000	55.250000	9.600000	0.000000	0.000000	146.000000	57.000000	9.000000	7.000000
0.820000	55.350000	9.700000	0.000000	0.000000	146.000000	57.000000	10.000000	10.000000
0.830000	55.350000	9.700000	44.000000	1.000000	146.000000	57.000000	0.000000	0.000000
0.840000	55.350000	9.700000	91.000000	0.000000	144.000000	58.000000	0.000000	0.000000
0.850000	55.400000	9.960000	161.000000	0.000000	144.000000	58.000000	5.000000	26.000000
0.860000	55.400000	10.040000	240.000000	0.000000	144.000000	58.000000	0.000000	8.000000
0.870000	55.400000	10.150000	281.000000	0.000000	144.000000	58.000000	0.000000	11.000000
0.880000	55.340000	10.280000	358.000000	0.000000	143.000000	59.000000	-6.000000	13.000000
0.890000	55.280000	10.390000	407.000000	0.000000	143.000000	59.000000	-6.000000	11.000000
0.900000	55.210000	10.510000	453.000000	0.000000	143.000000	59.000000	-7.000000	12.000000
0.910000	55.080000	10.620000	468.000000	0.000000	142.000000	59.000000	-13.000000	11.000000
0.920000	54.910000	10.710000	499.000000	0.000000	142.000000	59.000000	-17.000000	9.000000
0.930000	54.720000	10.790000	526.000000	0.000000	142.000000	59.000000	-19.000000	8.000000
0.940000	54.520000	10.790000	545.000000	0.000000	142.000000	59.000000	-20.000000	0.000000
0.950000	54.300000	10.790000	562.000000	0.000000	142.000000	59.000000	-22.000000	0.000000
0.960000	53.990000	10.700000	580.000000	0.000000	142.000000	59.000000	-31.000000	-9.000000
0.970000	53.620000	10.500000	588.000000	0.000000	142.000000	59.000000	-37.000000	-20.000000
0.980000	53.230000	10.020000	589.000000	0.000000	141.000000	59.000000	-39.000000	-48.000000
0.990000	52.930000	9.480000	591.000000	0.000000	141.000000	59.000000	-30.000000	-54.000000
1.000000	52.880000	8.890000	588.000000	0.000000	141.000000	59.000000	-5.000000	-59.000000
1.010000	52.970000	8.510000	580.000000	0.000000	141.000000	59.000000	9.000000	-38.000000
1.020000	53.240000	8.250000	566.000000	0.000000	141.000000	59.000000	27.000000	-26.000000
1.030000	53.640000	8.080000	542.000000	0.000000	142.000000	58.000000	40.000000	-17.000000
1.040000	54.130000	8.170000	538.000000	0.000000	142.000000	58.000000	49.000000	9.000000
1.050000	54.560000	8.450000	530.000000	0.000000	142.000000	58.000000	43.000000	28.000000
1.060000	54.950000	8.860000	529.000000	0.000000	143.000000	57.000000	39.000000	41.000000
1.070000	55.300000	9.400000	529.000000	0.000000	142.000000	58.000000	35.000000	54.000000
1.080000	55.600000	9.980000	530.000000	0.000000	143.000000	59.000000	30.000000	58.000000
1.090000	55.800000	10.590000	537.000000	0.000000	143.000000	59.000000	20.000000	61.000000
1.100000	55.930000	11.150000	568.000000	0.000000	142.000000	59.000000	13.000000	56.000000
1.110000	55.930000	11.320000	578.000000	0.000000	142.000000	59.000000	0.000000	17.000000
1.120000	55.710000	11.220000	592.000000	0.000000	142.000000	59.000000	-22.000000	-10.000000
1.130000	55.330000	10.790000	622.000000	0.000000	142.000000	59.000000	-38.000000	-43.000000
1.140000	54.740000	10.310000	638.000000	0.000000	142.000000	59.000000	-59.000000	-48.000000
1.150000	54.410000	9.760000	641.000000	0.000000	142.000000	59.000000	-33.000000	-55.000000
1.160000	54.260000	9.350000	645.000000	0.000000	142.000000	59.000000	-15.000000	-41.000000
1.170000	54.430000	9.020000	636.000000	0.000000	142.000000	59.000000	17.000000	-33.000000
1.180000	54.650000	8.830000	644.000000	0.000000	142.000000	59.000000	22.000000	-19.000000
1.190000	54.980000	8.640000	642.000000	0.000000	142.000000	59.000000	33.000000	-19.000000
1.200000	55.420000	8.580000	631.000000	0.000000	143.000000	59.000000	44.000000	-6.000000
1.210000	55.910000	8.580000	627.000000	0.000000	143.000000	59.000000	49.000000	0.000000
1.220000	56.220000	8.710000	630.000000	0.000000	143.000000	59.000000	31.000000	13.000000
1.230000	56.420000	8.790000	656.000000	0.000000	145.000000	59.000000	20.000000	8.000000
1.240000	56.470000	8.790000	728.000000	0.000000	145.000000	59.000000	5.000000	0.000000
1.250000	56.470000	8.790000	821.000000	0.000000	145.000000	59.000000	0.000000	0.000000
1.260000	56.470000	8.790000	894.000000	0.000000	145.000000	59.000000	0.000000	0.000000
1.270000	56.470000	8.790000	994.000000	0.000000	146.000000	60.000000	0.000000	0.000000
1.280000	56.470000	8.790000	1023.000000	0.000000	146.000000	60.000000	0.000000	0.000000
1.290000	56.420000	8.790000	1023.000000	0.000000	145.000000	60.000000	-5.000000	0.000000
1.300000	56.420000	8.790000	1023.000000	0.000000	145.000000	60.000000	0.000000	0.000000
1.310000	56.420000	8.790000	1023.000000	0.000000	145.000000	60.000000	0.000000	0.000000
1.320000	56.420000	8.790000	1023.000000	0.000000	144.000000	61.000000	0.000000	0.000000
1.330000	56.480000	8.790000	1023.000000	0.000000	144.000000	61.000000	6.000000	0.000000
1.340000	56.480000	8.790000	1023.000000	0.000000	143.000000	62.000000	0.000000	0.000000
1.350000	56.480000	8.840000	1023.000000	0.000000	143.000000	62.000000	0.000000	5.000000
1.360000	56.480000	8.840000	1023.000000	0.000000	141.000000	61.000000	0.000000	0.000000
1.370000	56.480000	8.840000	1023.000000	0.000000	140.000000	62.000000	0.000000	0.000000
1.380000	56.480000	8.840000	1023.000000	0.000000	140.000000	62.000000	0.000000	0.000000
1.390000	56.480000	8.840000	1023.000000	0.000000	140.000000	62.000000	0.000000	0.000000
1.400000	56.480000	8.840000	1023.000000	0.000000	140.000000	62.000000	0.000000	0.000000
1.410000	56.480000	8.840000	1023.000000	0.000000	140.000000	62.000000	0.000000	0.000000
1.420000	56.480000	8.840000	1023.000000	0.000000	138.000000	61.000000	0.000000	0.000000
1.430000	56.480000	8.840000	1023.000000	0.000000	138.000000	61.000000	0.000000	0.000000
1.440000	56.480000	8.840000	1023.000000	0.000000	138.000000	61.000000	0.000000	0.000000
1.450000	56.480000	8.840000	1020.000000	0.000000	138.000000	61.000000	0.000000	0.000000
1.460000	56.540000	9.190000	994.000000	0.000000	138.000000	61.000000	6.000000	35.000000
1.470000	56.640000	9.720000	984.000000	0.000000	139.000000	61.000000	10.000000	53.000000
1.480000	56.750000	10.120000	981.000000	0.000000	139.000000	61.000000	11.000000	40.000000
1.490000	56.750000	10.250000	979.000000	0.000000	139.000000	61.000000	0.000000	13.000000
1.500000	56.750000	10.190000	994.000000	0.000000	139.000000	61.000000	0.000000	-6.000000
1.510000	56.750000	10.190000	985.000000	0.000000	138.000000	61.000000	0.000000	0.000000
1.520000	56.700000	10.040000	976.000000	0.000000	138.000000	61.000000	-5.000000	-15.000000
1.530000	56.700000	9.820000	956.000000	0.000000	138.000000	61.000000	0.000000	-22.000000
1.540000	56.650000	9.550000	934.000000	0.000000	138.000000	61.000000	-5.000000	-27.000000
1.550000	56.580000	9.290000	939.000000	0.000000	138.000000	61.000000	-7.000000	-26.000000
1.560000	56.580000	9.170000	932.000000	0.000000	138.000000	61.000000	0.000000	-12.000000
1.570000	56.580000	9.170000	932.000000	0.000000	139.000000	61.000000	0.000000	0.000000
1.580000	56.580000	9.230000	933.000000	0.000000	139.000000	61.000000	0.000000	6.000000
1.590000	56.680000	9.510000	932.000000	0.000000	139.000000	61.000000	10.000000	28.000000
1.600000	56.790000	9.920000	930.000000	0.000000	139.000000	61.000000	11.000000	41.000000
1.610000	56.930000	10.380000	915.000000	0.000000	138.000000	61.000000	14.000000	46.000000
1.620000	57.100000	10.820000	896.000000	0.000000	138.000000	61.000000	17.000000	44.000000
1.630000	57.270000	11.250000	887.000000	0.000000	138.000000	61.000000	17.000000	43.000000
1.640000	57.470000	11.430000	857.000000	0.000000	138.000000	61.000000	20.000000	18.000000
1.650000	57.660000	11.570000	848.000000	0.000000	138.000000	61.000000	19.000000	14.000000
1.660000	57.860000	11.570000	837.000000	0.000000	138.000000	61.000000	20.000000	0.000000
1.670000	58.020000	11.400000	837.000000	0.000000	138.000000	61.000000	16.000000	-17.000000
1.680000	58.120000	11.090000	842.000000	0.000000	138.000000	61.000000	10.000000	-31.000000
1.690000	58.170000	10.720000	846.000000	0.000000	136.000000	61.000000	5.000000	-37.000000
1.700000	58.170000	10.280000	860.000000	0.000000	136.000000	61.000000	0.000000	-44.000000
1.710000	58.170000	9.840000	861.000000	0.000000	136.000000	61.000000	0.000000	-44.000000
1.720000	58.300000	9.470000	863.000000	0.000000	136.000000	61.000000	13.000000	-37.000000
1.730000	58.510000	9.150000	864.000000	0.000000	136.000000	61.000000	21.000000	-32.000000
1.740000	58.830000	9.030000	869.000000	0.000000	136.000000	61.000000	32.000000	-12.000000
1.750000	59.130000	9.030000	869.000000	0.000000	138.000000	60.000000	30.000000	0.000000
1.760000	59.420000	9.210000	853.000000	0.000000	138.000000	60.000000	29.000000	18.000000
1.770000	59.710000	9.510000	854.000000	0.000000	138.000000	60.000000	29.000000	30.000000
1.780000	59.870000	9.850000	854.000000	0.000000	136.000000	61.000000	16.000000	34.000000
1.790000	59.940000	10.210000	860.000000	0.000000	138.000000	61.000000	7.000000	36.000000
1.800000	59.880000	10.550000	890.000000	0.000000	138.000000	61.000000	-6.000000	34.000000
1.810000	59.830000	10.830000	900.000000	0.000000	138.000000	61.000000	-5.000000	28.000000
1.820000	59.650000	11.060000	902.000000	0.000000	138.000000	61.000000	-18.000000	23.000000
1.830000	59.390000	11.150000	905.000000	0.000000	138.000000	61.000000	-26.000000	9.000000
1.840000	59.020000	11.200000	905.000000	0.000000	138.000000	61.000000	-37.000000	5.000000
1.850000	58.650000	11.120000	903.000000	0.000000	138.000000	61.000000	-37.000000	-8.000000
1.860000	58.300000	10.970000	905.000000	0.000000	138.000000	61.000000	-35.000000	-15.000000
1.870000	57.980000	10.770000	897.000000	0.000000	138.000000	61.000000	-32.000000	-20.000000
1.880000	57.980000	10.770000	872.000000	0.000000	138.000000	61.000000	0.000000	0.000000
1.890000	58.270000	10.870000	853.000000	0.000000	138.000000	61.000000	29.000000	10.000000
1.900000	58.540000	10.940000	834.000000	0.000000	136.000000	61.000000	27.000000	7.000000
1.910000	59.090000	11.200000	796.000000	0.000000	136.000000	61.000000	55.000000	26.000000
1.920000	59.820000	11.590000	777.000000	0.000000	136.000000	61.000000	73.000000	39.000000
1.930000	60.430000	12.170000	771.000000	0.000000	136.000000	61.000000	61.000000	58.000000
1.940000	60.900000	12.730000	767.000000	0.000000	135.000000	60.000000	47.000000	56.000000
1.950000	61.270000	13.260000	767.000000	0.000000	136.000000	61.000000	37.000000	53.000000
1.960000	61.360000	13.790000	794.000000	0.000000	136.000000	61.000000	9.000000	53.000000
1.970000	61.360000	14.060000	817.000000	0.000000	136.000000	61.000000	0.000000	27.000000
1.980000	61.270000	14.150000	848.000000	0.000000	136.000000	61.000000	-9.000000	9.000000
1.990000	61.270000	14.150000	857.000000	0.000000	136.000000	61.000000	0.000000	0.000000
2.000000	61.210000	14.150000	863.000000	0.000000	138.000000	60.000000	-6.000000	0.000000
2.010000	61.070000	14.000000	861.000000	0.000000	138.000000	60.000000	-14.000000	-15.000000
2.020000	60.840000	13.440000	863.000000	0.000000	141.000000	60.000000	-23.000000	-56.000000
2.030000	60.560000	12.600000	863.000000	0.000000	141.000000	60.000000	-28.000000	-84.000000
2.040000	60.320000	11.480000	863.000000	0.000000	141.000000	60.000000	-24.000000	-112.000000
2.050000	60.320000	10.690000	864.000000	0.000000	139.000000	61.000000	0.000000	-79.000000
2.060000	60.380000	10.120000	861.000000	0.000000	139.000000	61.000000	6.000000	-57.000000
2.070000	60.680000	9.740000	863.000000	0.000000	139.000000	61.000000	30.000000	-38.000000
2.080000	60.970000	9.560000	863.000000	0.000000	138.000000	61.000000	29.000000	-18.000000
2.090000	61.260000	9.510000	864.000000	0.000000	138.000000	61.000000	29.000000	-5.000000
2.100000	61.540000	9.580000	870.000000	0.000000	138.000000	61.000000	28.000000	7.000000
2.110000	61.820000	9.810000	881.000000	0.000000	138.000000	61.000000	28.000000	23.000000
2.120000	62.130000	10.140000	891.000000	0.000000	138.000000	61.000000	31.000000	33.000000
2.130000	62.460000	10.560000	902.000000	0.000000	138.000000	61.000000	33.000000	42.000000
2.140000	62.820000	10.980000	900.000000	0.000000	138.000000	61.000000	36.000000	42.000000
2.150000	62.970000	11.400000	893.000000	0.000000	138.000000	61.000000	15.000000	42.000000
2.160000	62.970000	11.400000	900.000000	0.000000	138.000000	61.000000	0.000000	0.000000
2.170000	62.970000	11.400000	903.000000	0.000000	138.000000	61.000000	0.000000	0.000000
2.180000	62.910000	11.400000	906.000000	0.000000	138.000000	61.000000	-6.000000	0.000000
2.190000	62.860000	11.110000	908.000000	0.000000	138.000000	61.000000	-5.000000	-29.000000
2.200000	62.810000	10.730000	912.000000	0.000000	138.000000	61.000000	-5.000000	-38.000000
2.210000	62.760000	10.660000	914.000000	0.000000	138.000000	61.000000	-5.000000	-7.000000
2.220000	62.820000	10.410000	908.000000	0.000000	138.000000	61.000000	6.000000	-25.000000
2.230000	62.820000	10.030000	882.000000	0.000000	138.000000	61.000000	0.000000	-38.000000
