t	x	y	pressure	penup	azimuth	inclination	v_x	v_y
0.000000	18.620000	82.420000	65.000000	1.000000	172.000000	53.000000	0.000000	0.000000
0.010000	18.620000	82.420000	109.000000	0.000000	173.000000	53.000000	0.000000	0.000000
0.020000	18.620000	82.420000	149.000000	0.000000	173.000000	53.000000	0.000000	0.000000
0.030000	18.620000	82.420000	206.000000	0.000000	173.000000	53.000000	0.000000	0.000000
0.040000	18.420000	82.670000	239.000000	0.000000	173.000000	53.000000	-20.000000	25.000000
0.050000	18.350000	82.670000	246.000000	0.000000	173.000000	53.000000	-7.000000	0.000000
0.060000	18.160000	82.760000	260.000000	0.000000	173.000000	53.000000	-19.000000	9.000000
0.070000	17.890000	82.760000	277.000000	0.000000	173.000000	53.000000	-27.000000	0.000000
0.080000	17.560000	82.700000	297.000000	0.000000	172.000000	53.000000	-33.000000	-6.000000
0.090000	17.100000	82.580000	307.000000	0.000000	172.000000	53.000000	-46.000000	-12.000000
0.100000	16.550000	82.380000	307.000000	0.000000	171.000000	53.000000	-55.000000	-20.000000
0.110000	15.960000	82.100000	310.000000	0.000000	169.000000	53.000000	-59.000000	-28.000000
0.120000	15.370000	81.730000	315.000000	0.000000	169.000000	53.000000	-59.000000	-37.000000
0.130000	15.000000	81.380000	312.000000	0.000000	168.000000	53.000000	-37.000000	-35.000000
0.140000	14.770000	81.040000	305.000000	0.000000	166.000000	53.000000	-23.000000	-34.000000
0.150000	14.890000	80.780000	314.000000	0.000000	166.000000	53.000000	12.000000	-26.000000
0.160000	15.300000	80.710000	302.000000	0.000000	166.000000	53.000000	41.000000	-7.000000
0.170000	15.910000	80.780000	273.000000	0.000000	165.000000	53.000000	61.000000	7.000000
0.180000	16.800000	80.970000	265.000000	0.000000	165.000000	53.000000	89.000000	19.000000
0.190000	17.510000	81.200000	244.000000	0.000000	166.000000	53.000000	71.000000	23.000000
0.200000	18.090000	81.450000	246.000000	0.000000	166.000000	53.000000	58.000000	25.000000
0.210000	18.440000	81.670000	239.000000	0.000000	168.000000	53.000000	35.000000	22.000000
0.220000	18.640000	81.890000	239.000000	0.000000	169.000000	53.000000	20.000000	22.000000
0.230000	18.740000	82.100000	240.000000	0.000000	170.000000	54.000000	10.000000	21.000000
0.240000	18.740000	82.270000	249.000000	0.000000	170.000000	54.000000	0.000000	17.000000
0.250000	18.740000	82.380000	247.000000	0.000000	172.000000	53.000000	0.000000	11.000000
0.260000	18.620000	82.450000	267.000000	0.000000	172.000000	53.000000	-12.000000	7.000000
0.270000	18.620000	82.450000	270.000000	0.000000	173.000000	53.000000	0.000000	0.000000
0.280000	18.620000	82.450000	275.000000	0.000000	173.000000	53.000000	0.000000	0.000000
0.290000	18.620000	82.450000	275.000000	0.000000	173.000000	53.000000	0.000000	0.000000
0.300000	18.620000	82.310000	274.000000	0.000000	173.000000	53.000000	0.000000	-14.000000
0.310000	18.620000	82.080000	277.000000	0.000000	173.000000	53.000000	0.000000	-23.000000
0.320000	18.620000	81.810000	279.000000	0.000000	173.000000	53.000000	0.000000	-27.000000
0.330000	18.720000	81.550000	284.000000	0.000000	173.000000	53.000000	10.000000	-26.000000
0.340000	18.830000	81.370000	287.000000	0.000000	173.000000	53.000000	11.000000	-18.000000
0.350000	19.130000	81.230000	279.000000	0.000000	173.000000	53.000000	30.000000	-14.000000
0.360000	19.550000	81.230000	274.000000	0.000000	173.000000	53.000000	42.000000	0.000000
0.370000	20.010000	81.340000	280.000000	0.000000	173.000000	53.000000	46.000000	11.000000
0.380000	20.450000	81.490000	253.000000	0.000000	172.000000	53.000000	44.000000	15.000000
0.390000	20.770000	81.640000	203.000000	0.000000	172.000000	53.000000	32.000000	15.000000
0.400000	21.000000	81.770000	149.000000	0.000000	171.000000	53.000000	23.000000	13.000000
0.410000	21.110000	81.880000	117.000000	0.000000	171.000000	53.000000	11.000000	11.000000
0.420000	21.110000	81.880000	101.000000	0.000000	171.000000	53.000000	0.000000	0.000000
0.430000	20.950000	81.880000	91.000000	0.000000	169.000000	53.000000	-16.000000	0.000000
0.440000	20.880000	81.880000	55.000000	0.000000	169.000000	53.000000	-7.000000	0.000000
0.450000	20.880000	81.880000	1.000000	1.000000	169.000000	53.000000	0.000000	0.000000
0.460000	20.880000	81.880000	0.000000	0.000000	169.000000	53.000000	0.000000	0.000000
0.470000	20.830000	81.880000	0.000000	0.000000	169.000000	53.000000	-5.000000	0.000000
0.480000	20.880000	81.880000	0.000000	0.000000	169.000000	53.000000	5.000000	0.000000
0.490000	20.940000	81.940000	0.000000	0.000000	169.000000	53.000000	6.000000	6.000000
0.500000	20.940000	81.940000	0.000000	0.000000	169.000000	53.000000	0.000000	0.000000
0.510000	20.940000	81.940000	0.000000	0.000000	169.000000	53.000000	0.000000	0.000000
0.520000	20.940000	81.940000	0.000000	0.000000	169.000000	53.000000	0.000000	0.000000
0.530000	20.940000	81.940000	0.000000	0.000000	169.000000	53.000000	0.000000	0.000000
0.540000	20.940000	81.940000	0.000000	0.000000	169.000000	53.000000	0.000000	0.000000
0.550000	20.940000	81.940000	0.000000	0.000000	169.000000	53.000000	0.000000	0.000000
0.560000	20.940000	81.940000	0.000000	0.000000	169.000000	53.000000	0.000000	0.000000
0.570000	20.940000	81.940000	0.000000	0.000000	169.000000	53.000000	0.000000	0.000000
0.580000	20.940000	81.940000	0.000000	0.000000	169.000000	53.000000	0.000000	0.000000
0.590000	20.940000	81.940000	0.000000	0.000000	169.000000	53.000000	0.000000	0.000000
0.600000	20.940000	81.940000	0.000000	0.000000	169.000000	53.000000	0.000000	0.000000
0.610000	20.940000	81.940000	0.000000	0.000000	169.000000	53.000000	0.000000	0.000000
0.620000	20.940000	81.940000	0.000000	0.000000	169.000000	53.000000	0.000000	0.000000
0.630000	20.940000	82.190000	0.000000	0.000000	169.000000	53.000000	0.000000	25.000000
0.640000	20.940000	82.240000	0.000000	0.000000	169.000000	53.000000	0.000000	5.000000
0.650000	20.940000	82.310000	0.000000	0.000000	169.000000	53.000000	0.000000	7.000000
0.660000	20.940000	82.370000	0.000000	0.000000	169.000000	53.000000	0.000000	6.000000
0.670000	20.940000	82.420000	0.000000	0.000000	169.000000	53.000000	0.000000	5.000000
0.680000	20.940000	82.420000	17.000000	1.000000	171.000000	53.000000	0.000000	0.000000
0.690000	20.940000	82.420000	41.000000	0.000000	171.000000	53.000000	0.000000	0.000000
0.700000	20.940000	82.420000	47.000000	0.000000	171.000000	53.000000	0.000000	0.000000
0.710000	20.940000	82.420000	53.000000	0.000000	171.000000	53.000000	0.000000	0.000000
0.720000	20.940000	82.420000	63.000000	0.000000	171.000000	53.000000	0.000000	0.000000
0.730000	20.940000	82.420000	73.000000	0.000000	171.000000	53.000000	0.000000	0.000000
0.740000	20.940000	82.420000	78.000000	0.000000	171.000000	53.000000	0.000000	0.000000
0.750000	20.890000	82.690000	76.000000	0.000000	171.000000	53.000000	-5.000000	27.000000
0.760000	20.890000	82.690000	80.000000	0.000000	171.000000	53.000000	0.000000	0.000000
0.770000	20.890000	82.690000	78.000000	0.000000	171.000000	53.000000	0.000000	0.000000
0.780000	20.890000	82.690000	80.000000	0.000000	171.000000	53.000000	0.000000	0.000000
0.790000	20.890000	82.690000	85.000000	0.000000	171.000000	53.000000	0.000000	0.000000
0.800000	20.890000	82.690000	86.000000	0.000000	171.000000	53.000000	0.000000	0.000000
0.810000	20.890000	82.690000	88.000000	0.000000	171.000000	53.000000	0.000000	0.000000
0.820000	20.890000	82.690000	86.000000	0.000000	171.000000	53.000000	0.000000	0.000000
0.830000	20.890000	82.690000	88.000000	0.000000	171.000000	53.000000	0.000000	0.000000
0.840000	20.890000	82.690000	86.000000	0.000000	171.000000	53.000000	0.000000	0.000000
0.850000	20.890000	82.690000	85.000000	0.000000	171.000000	53.000000	0.000000	0.000000
0.860000	20.890000	82.690000	91.000000	0.000000	171.000000	53.000000	0.000000	0.000000
0.870000	20.890000	82.690000	109.000000	0.000000	171.000000	53.000000	0.000000	0.000000
0.880000	20.890000	82.690000	98.000000	0.000000	171.000000	53.000000	0.000000	0.000000
0.890000	20.890000	82.690000	100.000000	0.000000	171.000000	53.000000	0.000000	0.000000
0.900000	20.890000	82.690000	107.000000	0.000000	171.000000	52.000000	0.000000	0.000000
0.910000	20.890000	82.690000	107.000000	0.000000	171.000000	52.000000	0.000000	0.000000
0.920000	20.890000	82.690000	110.000000	0.000000	171.000000	52.000000	0.000000	0.000000
0.930000	20.890000	82.690000	115.000000	0.000000	171.000000	52.000000	0.000000	0.000000
0.940000	20.890000	82.690000	129.000000	0.000000	171.000000	52.000000	0.000000	0.000000
0.950000	20.890000	82.690000	137.000000	0.000000	171.000000	52.000000	0.000000	0.000000
0.960000	20.890000	82.690000	149.000000	0.000000	171.000000	52.000000	0.000000	0.000000
0.970000	20.890000	82.980000	168.000000	0.000000	171.000000	52.000000	0.000000	29.000000
0.980000	20.890000	83.050000	171.000000	0.000000	171.000000	52.000000	0.000000	7.000000
0.990000	20.820000	83.130000	202.000000	0.000000	171.000000	52.000000	-7.000000	8.000000
1.000000	20.820000	83.180000	217.000000	0.000000	171.000000	52.000000	0.000000	5.000000
1.010000	20.820000	83.180000	220.000000	0.000000	171.000000	52.000000	0.000000	0.000000
1.020000	20.820000	83.110000	206.000000	0.000000	171.000000	52.000000	0.000000	-7.000000
1.030000	20.760000	82.910000	214.000000	0.000000	171.000000	52.000000	-6.000000	-20.000000
1.040000	20.690000	82.620000	237.000000	0.000000	171.000000	52.000000	-7.000000	-29.000000
1.050000	20.640000	82.320000	244.000000	0.000000	172.000000	52.000000	-5.000000	-30.000000
1.060000	20.590000	82.050000	254.000000	0.000000	172.000000	52.000000	-5.000000	-27.000000
1.070000	20.590000	81.860000	252.000000	0.000000	172.000000	52.000000	0.000000	-19.000000
1.080000	20.590000	81.700000	257.000000	0.000000	172.000000	52.000000	0.000000	-16.000000
1.090000	20.590000	81.650000	279.000000	0.000000	172.000000	52.000000	0.000000	-5.000000
1.100000	20.590000	81.650000	312.000000	0.000000	172.000000	52.000000	0.000000	0.000000
1.110000	20.590000	81.700000	345.000000	0.000000	172.000000	52.000000	0.000000	5.000000
1.120000	20.590000	81.750000	345.000000	0.000000	172.000000	52.000000	0.000000	5.000000
1.130000	20.640000	81.930000	334.000000	0.000000	172.000000	52.000000	5.000000	18.000000
1.140000	20.700000	82.210000	338.000000	0.000000	172.000000	52.000000	6.000000	28.000000
1.150000	20.700000	82.430000	336.000000	0.000000	172.000000	52.000000	0.000000	22.000000
1.160000	20.820000	82.670000	338.000000	0.000000	172.000000	52.000000	12.000000	24.000000
1.170000	21.010000	82.900000	338.000000	0.000000	172.000000	52.000000	19.000000	23.000000
1.180000	21.280000	83.070000	339.000000	0.000000	172.000000	52.000000	27.000000	17.000000
1.190000	21.690000	83.210000	333.000000	0.000000	172.000000	52.000000	41.000000	14.000000
1.200000	22.100000	83.320000	335.000000	0.000000	172.000000	52.000000	41.000000	11.000000
1.210000	22.640000	83.400000	315.000000	0.000000	172.000000	52.000000	54.000000	8.000000
1.220000	23.260000	83.470000	310.000000	0.000000	171.000000	52.000000	62.000000	7.000000
1.230000	23.830000	83.530000	304.000000	0.000000	171.000000	52.000000	57.000000	6.000000
1.240000	24.350000	83.530000	301.000000	0.000000	170.000000	52.000000	52.000000	0.000000
1.250000	24.830000	83.440000	292.000000	0.000000	170.000000	52.000000	48.000000	-9.000000
1.260000	25.130000	83.360000	292.000000	0.000000	170.000000	52.000000	30.000000	-8.000000
1.270000	25.310000	83.300000	289.000000	0.000000	169.000000	51.000000	18.000000	-6.000000
1.280000	25.400000	83.250000	287.000000	0.000000	169.000000	51.000000	9.000000	-5.000000
1.290000	25.400000	83.250000	287.000000	0.000000	169.000000	51.000000	0.000000	0.000000
1.300000	25.310000	83.250000	273.000000	0.000000	167.000000	51.000000	-9.000000	0.000000
1.310000	25.150000	83.320000	277.000000	0.000000	167.000000	51.000000	-16.000000	7.000000
1.320000	24.930000	83.410000	269.000000	0.000000	167.000000	51.000000	-22.000000	9.000000
1.330000	24.690000	83.510000	274.000000	0.000000	167.000000	51.000000	-24.000000	10.000000
1.340000	24.440000	83.610000	265.000000	0.000000	169.000000	51.000000	-25.000000	10.000000
1.350000	24.130000	83.720000	260.000000	0.000000	169.000000	51.000000	-31.000000	11.000000
1.360000	23.770000	83.780000	264.000000	0.000000	169.000000	51.000000	-36.000000	6.000000
1.370000	23.380000	83.780000	269.000000	0.000000	169.000000	51.000000	-39.000000	0.000000
1.380000	23.030000	83.640000	275.000000	0.000000	169.000000	51.000000	-35.000000	-14.000000
1.390000	22.730000	83.390000	275.000000	0.000000	169.000000	51.000000	-30.000000	-25.000000
1.400000	22.420000	83.000000	275.000000	0.000000	169.000000	51.000000	-31.000000	-39.000000
1.410000	22.100000	82.590000	275.000000	0.000000	170.000000	52.000000	-32.000000	-41.000000
1.420000	22.100000	82.190000	277.000000	0.000000	170.000000	52.000000	0.000000	-40.000000
1.430000	22.100000	81.860000	275.000000	0.000000	170.000000	52.000000	0.000000	-33.000000
1.440000	22.290000	81.560000	277.000000	0.000000	169.000000	53.000000	19.000000	-30.000000
1.450000	22.680000	81.400000	277.000000	0.000000	169.000000	53.000000	39.000000	-16.000000
1.460000	23.210000	81.400000	279.000000	0.000000	169.000000	53.000000	53.000000	0.000000
1.470000	23.840000	81.480000	285.000000	0.000000	169.000000	53.000000	63.000000	8.000000
1.480000	24.420000	81.700000	284.000000	0.000000	169.000000	53.000000	58.000000	22.000000
1.490000	24.970000	81.970000	273.000000	0.000000	169.000000	53.000000	55.000000	27.000000
1.500000	25.390000	82.280000	281.000000	0.000000	169.000000	53.000000	42.000000	31.000000
1.510000	25.730000	82.590000	299.000000	0.000000	169.000000	53.000000	34.000000	31.000000
1.520000	26.010000	82.910000	304.000000	0.000000	168.000000	52.000000	28.000000	32.000000
1.530000	26.100000	83.210000	311.000000	0.000000	169.000000	51.000000	9.000000	30.000000
1.540000	26.030000	83.460000	302.000000	0.000000	169.000000	51.000000	-7.000000	25.000000
1.550000	25.860000	83.610000	291.000000	0.000000	169.000000	51.000000	-17.000000	15.000000
1.560000	25.510000	83.610000	287.000000	0.000000	169.000000	51.000000	-35.000000	0.000000
1.570000	25.180000	83.550000	285.000000	0.000000	169.000000	51.000000	-33.000000	-6.000000
1.580000	25.050000	83.450000	285.000000	0.000000	169.000000	51.000000	-13.000000	-10.000000
1.590000	25.050000	83.370000	267.000000	0.000000	169.000000	51.000000	0.000000	-8.000000
1.600000	25.120000	83.370000	272.000000	0.000000	169.000000	51.000000	7.000000	0.000000
1.610000	25.480000	83.370000	279.000000	0.000000	169.000000	51.000000	36.000000	0.000000
1.620000	26.010000	83.460000	284.000000	0.000000	169.000000	51.000000	53.000000	9.000000
1.630000	26.460000	83.570000	284.000000	0.000000	169.000000	51.000000	45.000000	11.000000
1.640000	26.820000	83.670000	250.000000	0.000000	169.000000	51.000000	36.000000	10.000000
1.650000	27.130000	83.750000	205.000000	0.000000	170.000000	52.000000	31.000000	8.000000
1.660000	27.340000	83.820000	98.000000	0.000000	170.000000	52.000000	21.000000	7.000000
1.670000	27.340000	83.820000	0.000000	1.000000	170.000000	52.000000	0.000000	0.000000
1.680000	27.410000	83.900000	0.000000	0.000000	171.000000	52.000000	7.000000	8.000000
1.690000	27.250000	83.970000	0.000000	0.000000	171.000000	52.000000	-16.000000	7.000000
1.700000	27.040000	84.070000	0.000000	0.000000	171.000000	52.000000	-21.000000	10.000000
1.710000	26.790000	84.140000	0.000000	0.000000	172.000000	52.000000	-25.000000	7.000000
1.720000	26.630000	84.210000	0.000000	0.000000	172.000000	52.000000	-16.000000	7.000000
1.730000	26.630000	84.210000	0.000000	0.000000	173.000000	51.000000	0.000000	0.000000
1.740000	26.750000	84.270000	0.000000	0.000000	173.000000	51.000000	12.000000	6.000000
1.750000	26.830000	84.270000	0.000000	0.000000	173.000000	51.000000	8.000000	0.000000
1.760000	26.900000	84.270000	0.000000	0.000000	173.000000	51.000000	7.000000	0.000000
1.770000	26.970000	84.210000	0.000000	0.000000	173.000000	51.000000	7.000000	-6.000000
1.780000	27.060000	84.210000	0.000000	0.000000	172.000000	50.000000	9.000000	0.000000
1.790000	27.150000	84.160000	0.000000	0.000000	172.000000	50.000000	9.000000	-5.000000
1.800000	27.300000	84.160000	0.000000	0.000000	170.000000	50.000000	15.000000	0.000000
1.810000	27.490000	84.160000	0.000000	0.000000	170.000000	50.000000	19.000000	0.000000
1.820000	27.820000	84.160000	0.000000	0.000000	170.000000	49.000000	33.000000	0.000000
1.830000	28.230000	84.160000	0.000000	0.000000	170.000000	49.000000	41.000000	0.000000
1.840000	28.660000	84.160000	0.000000	0.000000	170.000000	49.000000	43.000000	0.000000
1.850000	29.090000	84.160000	0.000000	0.000000	170.000000	49.000000	43.000000	0.000000
1.860000	29.290000	84.110000	0.000000	0.000000	170.000000	49.000000	20.000000	-5.000000
1.870000	29.340000	84.030000	0.000000	0.000000	171.000000	49.000000	5.000000	-8.000000
1.880000	29.240000	83.950000	0.000000	0.000000	171.000000	49.000000	-10.000000	-8.000000
1.890000	29.050000	83.890000	0.000000	0.000000	172.000000	50.000000	-19.000000	-6.000000
1.900000	29.050000	83.890000	0.000000	0.000000	173.000000	50.000000	0.000000	0.000000
1.910000	28.630000	83.830000	0.000000	0.000000	173.000000	50.000000	-42.000000	-6.000000
1.920000	28.450000	83.830000	0.000000	0.000000	173.000000	50.000000	-18.000000	0.000000
1.930000	28.310000	83.760000	0.000000	0.000000	173.000000	50.000000	-14.000000	-7.000000
1.940000	28.180000	83.760000	0.000000	0.000000	173.000000	50.000000	-13.000000	0.000000
1.950000	28.040000	83.760000	0.000000	0.000000	173.000000	50.000000	-14.000000	0.000000
1.960000	27.870000	83.700000	0.000000	0.000000	173.000000	50.000000	-17.000000	-6.000000
1.970000	27.690000	83.700000	0.000000	0.000000	173.000000	50.000000	-18.000000	0.000000
1.980000	27.500000	83.700000	0.000000	0.000000	173.000000	50.000000	-19.000000	0.000000
1.990000	27.330000	83.700000	0.000000	0.000000	173.000000	50.000000	-17.000000	0.000000
2.000000	27.200000	83.640000	0.000000	0.000000	173.000000	50.000000	-13.000000	-6.000000
2.010000	27.110000	83.640000	0.000000	0.000000	173.000000	50.000000	-9.000000	0.000000
2.020000	27.020000	83.580000	0.000000	0.000000	171.000000	51.000000	-9.000000	-6.000000
2.030000	26.920000	83.520000	0.000000	0.000000	171.000000	51.000000	-10.000000	-6.000000
2.040000	26.820000	83.450000	0.000000	0.000000	171.000000	51.000000	-10.000000	-7.000000
2.050000	26.750000	83.450000	0.000000	0.000000	173.000000	51.000000	-7.000000	0.000000
2.060000	26.680000	83.450000	0.000000	0.000000	173.000000	51.000000	-7.000000	0.000000
2.070000	26.610000	83.400000	0.000000	0.000000	173.000000	51.000000	-7.000000	-5.000000
2.080000	26.540000	83.400000	0.000000	0.000000	173.000000	51.000000	-7.000000	0.000000
2.090000	26.430000	83.330000	0.000000	0.000000	173.000000	51.000000	-11.000000	-7.000000
2.100000	26.290000	83.330000	0.000000	0.000000	173.000000	51.000000	-14.000000	0.000000
2.110000	26.180000	83.330000	0.000000	0.000000	173.000000	51.000000	-11.000000	0.000000
2.120000	26.070000	83.270000	0.000000	0.000000	173.000000	51.000000	-11.000000	-6.000000
2.130000	26.000000	83.270000	0.000000	0.000000	173.000000	51.000000	-7.000000	0.000000
2.140000	26.000000	83.270000	0.000000	0.000000	173.000000	51.000000	0.000000	0.000000
2.150000	25.950000	83.210000	0.000000	0.000000	173.000000	51.000000	-5.000000	-6.000000
2.160000	25.950000	83.210000	0.000000	0.000000	173.000000	51.000000	0.000000	0.000000
2.170000	25.950000	83.210000	0.000000	0.000000	173.000000	51.000000	0.000000	0.000000
2.180000	25.950000	83.210000	0.000000	0.000000	173.000000	51.000000	0.000000	0.000000
2.190000	25.850000	83.160000	0.000000	0.000000	173.000000	51.000000	-10.000000	-5.000000
2.200000	25.760000	83.110000	0.000000	0.000000	173.000000	51.000000	-9.000000	-5.000000
2.210000	25.680000	83.110000	0.000000	0.000000	173.000000	51.000000	-8.000000	0.000000
2.220000	25.600000	83.030000	0.000000	0.000000	173.000000	51.000000	-8.000000	-8.000000
2.230000	25.530000	83.030000	0.000000	0.000000	171.000000	51.000000	-7.000000	0.000000
2.240000	25.470000	83.030000	0.000000	0.000000	171.000000	51.000000	-6.000000	0.000000
