t	x	y	pressure	penup	azimuth	inclination	v_x	v_y
0.000000	16.380000	31.150000	51.000000	1.000000	127.000000	53.000000	0.000000	0.000000
0.010000	16.260000	30.640000	168.000000	0.000000	128.000000	54.000000	-12.000000	-51.000000
0.020000	16.260000	30.860000	212.000000	0.000000	129.000000	55.000000	0.000000	22.000000
0.030000	16.810000	30.860000	309.000000	0.000000	129.000000	55.000000	55.000000	0.000000
0.040000	17.660000	31.020000	394.000000	0.000000	130.000000	55.000000	85.000000	16.000000
0.050000	18.980000	31.290000	439.000000	0.000000	130.000000	55.000000	132.000000	27.000000
0.060000	20.620000	31.740000	465.000000	0.000000	131.000000	56.000000	164.000000	45.000000
0.070000	22.470000	32.320000	474.000000	0.000000	131.000000	56.000000	185.000000	58.000000
0.080000	24.160000	32.980000	455.000000	0.000000	132.000000	57.000000	169.000000	66.000000
0.090000	25.420000	33.560000	460.000000	0.000000	132.000000	57.000000	126.000000	58.000000
0.100000	26.380000	34.090000	475.000000	0.000000	134.000000	57.000000	96.000000	53.000000
0.110000	26.520000	34.540000	533.000000	0.000000	134.000000	57.000000	14.000000	45.000000
0.120000	26.140000	34.780000	585.000000	0.000000	134.000000	57.000000	-38.000000	24.000000
0.130000	25.400000	34.890000	640.000000	0.000000	134.000000	57.000000	-74.000000	11.000000
0.140000	24.020000	34.530000	672.000000	0.000000	135.000000	58.000000	-138.000000	-36.000000
0.150000	22.050000	33.730000	685.000000	0.000000	135.000000	58.000000	-197.000000	-80.000000
0.160000	19.690000	32.650000	687.000000	0.000000	135.000000	58.000000	-236.000000	-108.000000
0.170000	17.010000	31.170000	688.000000	0.000000	134.000000	58.000000	-268.000000	-148.000000
0.180000	14.600000	29.680000	696.000000	0.000000	134.000000	58.000000	-241.000000	-149.000000
0.190000	12.360000	28.200000	699.000000	0.000000	132.000000	58.000000	-224.000000	-148.000000
0.200000	11.300000	27.190000	687.000000	0.000000	131.000000	58.000000	-106.000000	-101.000000
0.210000	11.160000	26.480000	670.000000	0.000000	132.000000	59.000000	-14.000000	-71.000000
0.220000	11.630000	26.000000	673.000000	0.000000	131.000000	60.000000	47.000000	-48.000000
0.230000	12.430000	25.950000	696.000000	0.000000	129.000000	60.000000	80.000000	-5.000000
0.240000	14.270000	26.180000	716.000000	0.000000	128.000000	61.000000	184.000000	23.000000
0.250000	16.800000	27.090000	743.000000	0.000000	128.000000	61.000000	253.000000	91.000000
0.260000	20.420000	28.370000	750.000000	0.000000	128.000000	61.000000	362.000000	128.000000
0.270000	24.430000	29.890000	756.000000	0.000000	128.000000	61.000000	401.000000	152.000000
0.280000	28.690000	31.060000	736.000000	0.000000	129.000000	60.000000	426.000000	117.000000
0.290000	32.110000	31.910000	665.000000	0.000000	131.000000	60.000000	342.000000	85.000000
0.300000	34.260000	32.550000	554.000000	0.000000	132.000000	59.000000	215.000000	64.000000
0.310000	35.560000	32.750000	422.000000	0.000000	134.000000	58.000000	130.000000	20.000000
0.320000	36.090000	32.800000	296.000000	0.000000	136.000000	58.000000	53.000000	5.000000
0.330000	36.090000	32.750000	41.000000	0.000000	138.000000	58.000000	0.000000	-5.000000
0.340000	36.090000	32.750000	0.000000	1.000000	139.000000	58.000000	0.000000	0.000000
0.350000	34.990000	32.520000	0.000000	0.000000	141.000000	59.000000	-110.000000	-23.000000
0.360000	33.600000	32.370000	0.000000	0.000000	142.000000	58.000000	-139.000000	-15.000000
0.370000	31.850000	32.240000	0.000000	0.000000	142.000000	58.000000	-175.000000	-13.000000
0.380000	29.810000	32.020000	0.000000	0.000000	142.000000	58.000000	-204.000000	-22.000000
0.390000	27.470000	31.760000	0.000000	0.000000	142.000000	58.000000	-234.000000	-26.000000
0.400000	24.920000	31.280000	0.000000	0.000000	140.000000	58.000000	-255.000000	-48.000000
0.410000	22.250000	30.510000	0.000000	0.000000	139.000000	57.000000	-267.000000	-77.000000
0.420000	19.810000	29.560000	0.000000	0.000000	138.000000	57.000000	-244.000000	-95.000000
0.430000	17.510000	28.850000	0.000000	0.000000	134.000000	56.000000	-230.000000	-71.000000
0.440000	16.260000	28.140000	0.000000	0.000000	131.000000	56.000000	-125.000000	-71.000000
0.450000	15.530000	27.750000	0.000000	0.000000	128.000000	57.000000	-73.000000	-39.000000
0.460000	15.150000	27.570000	0.000000	0.000000	126.000000	58.000000	-38.000000	-18.000000
0.470000	14.890000	27.570000	0.000000	0.000000	126.000000	60.000000	-26.000000	0.000000
0.480000	14.890000	27.720000	0.000000	0.000000	124.000000	62.000000	0.000000	15.000000
0.490000	15.130000	28.000000	0.000000	0.000000	125.000000	64.000000	24.000000	28.000000
0.500000	15.570000	28.470000	0.000000	0.000000	127.000000	64.000000	44.000000	47.000000
0.510000	16.020000	28.930000	0.000000	0.000000	130.000000	66.000000	45.000000	46.000000
0.520000	16.470000	29.250000	0.000000	0.000000	131.000000	67.000000	45.000000	32.000000
0.530000	16.470000	29.250000	176.000000	1.000000	133.000000	66.000000	0.000000	0.000000
0.540000	16.810000	29.570000	314.000000	0.000000	133.000000	65.000000	34.000000	32.000000
0.550000	16.440000	29.650000	413.000000	0.000000	132.000000	63.000000	-37.000000	8.000000
0.560000	16.070000	29.650000	483.000000	0.000000	132.000000	61.000000	-37.000000	0.000000
0.570000	15.710000	29.490000	538.000000	0.000000	131.000000	61.000000	-36.000000	-16.000000
0.580000	15.220000	29.180000	570.000000	0.000000	129.000000	60.000000	-49.000000	-31.000000
0.590000	14.630000	28.710000	595.000000	0.000000	131.000000	60.000000	-59.000000	-47.000000
0.600000	14.200000	28.140000	602.000000	0.000000	131.000000	60.000000	-43.000000	-57.000000
0.610000	13.970000	27.660000	605.000000	0.000000	129.000000	60.000000	-23.000000	-48.000000
0.620000	13.880000	27.280000	605.000000	0.000000	131.000000	61.000000	-9.000000	-38.000000
0.630000	14.110000	26.960000	597.000000	0.000000	131.000000	61.000000	23.000000	-32.000000
0.640000	14.400000	26.790000	595.000000	0.000000	129.000000	61.000000	29.000000	-17.000000
0.650000	14.790000	26.900000	592.000000	0.000000	129.000000	61.000000	39.000000	11.000000
0.660000	15.260000	27.210000	588.000000	0.000000	129.000000	61.000000	47.000000	31.000000
0.670000	15.770000	27.710000	586.000000	0.000000	129.000000	61.000000	51.000000	50.000000
0.680000	16.010000	28.200000	588.000000	0.000000	129.000000	61.000000	24.000000	49.000000
0.690000	16.110000	28.720000	594.000000	0.000000	129.000000	61.000000	10.000000	52.000000
0.700000	16.110000	29.040000	594.000000	0.000000	129.000000	61.000000	0.000000	32.000000
0.710000	16.110000	29.190000	597.000000	0.000000	129.000000	61.000000	0.000000	15.000000
0.720000	16.050000	29.190000	603.000000	0.000000	129.000000	61.000000	-6.000000	0.000000
0.730000	16.050000	29.070000	599.000000	0.000000	129.000000	61.000000	0.000000	-12.000000
0.740000	15.960000	28.900000	597.000000	0.000000	129.000000	60.000000	-9.000000	-17.000000
0.750000	15.850000	28.500000	589.000000	0.000000	129.000000	60.000000	-11.000000	-40.000000
0.760000	15.850000	28.170000	496.000000	0.000000	129.000000	60.000000	0.000000	-33.000000
0.770000	15.970000	27.900000	301.000000	0.000000	129.000000	60.000000	12.000000	-27.000000
0.780000	16.180000	27.770000	5.000000	1.000000	129.000000	60.000000	0.000000	0.000000
0.790000	16.180000	27.770000	0.000000	0.000000	128.000000	59.000000	0.000000	0.000000
0.800000	16.720000	28.050000	0.000000	0.000000	128.000000	59.000000	54.000000	28.000000
0.810000	16.890000	28.440000	0.000000	0.000000	127.000000	59.000000	17.000000	39.000000
0.820000	16.890000	28.900000	0.000000	0.000000	127.000000	59.000000	0.000000	46.000000
0.830000	16.950000	29.400000	0.000000	0.000000	127.000000	57.000000	6.000000	50.000000
0.840000	16.950000	29.400000	3.000000	0.000000	127.000000	57.000000	0.000000	0.000000
0.850000	17.100000	29.860000	244.000000	1.000000	127.000000	57.000000	0.000000	0.000000
0.860000	17.050000	29.940000	319.000000	0.000000	126.000000	57.000000	-5.000000	8.000000
0.870000	16.880000	29.890000	368.000000	0.000000	127.000000	56.000000	-17.000000	-5.000000
0.880000	16.880000	29.840000	430.000000	0.000000	127.000000	56.000000	0.000000	-5.000000
0.890000	16.940000	29.540000	456.000000	0.000000	127.000000	56.000000	6.000000	-30.000000
0.900000	16.940000	29.080000	465.000000	0.000000	129.000000	56.000000	0.000000	-46.000000
0.910000	16.940000	28.640000	473.000000	0.000000	129.000000	56.000000	0.000000	-44.000000
0.920000	16.940000	28.260000	474.000000	0.000000	129.000000	56.000000	0.000000	-38.000000
0.930000	16.940000	27.920000	456.000000	0.000000	129.000000	56.000000	0.000000	-34.000000
0.940000	16.940000	27.770000	458.000000	0.000000	127.000000	56.000000	0.000000	-15.000000
0.950000	16.940000	27.720000	466.000000	0.000000	127.000000	56.000000	0.000000	-5.000000
0.960000	16.940000	27.720000	468.000000	0.000000	127.000000	56.000000	0.000000	0.000000
0.970000	16.940000	27.910000	465.000000	0.000000	127.000000	56.000000	0.000000	19.000000
0.980000	16.940000	28.280000	460.000000	0.000000	127.000000	56.000000	0.000000	37.000000
0.990000	17.010000	28.800000	458.000000	0.000000	127.000000	56.000000	7.000000	52.000000
1.000000	17.110000	29.040000	460.000000	0.000000	127.000000	56.000000	10.000000	24.000000
1.010000	17.330000	29.240000	460.000000	0.000000	127.000000	56.000000	22.000000	20.000000
1.020000	17.620000	29.240000	460.000000	0.000000	128.000000	57.000000	29.000000	0.000000
1.030000	17.860000	29.140000	463.000000	0.000000	128.000000	57.000000	24.000000	-10.000000
1.040000	18.110000	29.000000	465.000000	0.000000	128.000000	57.000000	25.000000	-14.000000
1.050000	18.390000	28.840000	466.000000	0.000000	128.000000	57.000000	28.000000	-16.000000
1.060000	18.660000	28.690000	477.000000	0.000000	128.000000	57.000000	27.000000	-15.000000
1.070000	18.980000	28.690000	481.000000	0.000000	130.000000	56.000000	32.000000	0.000000
1.080000	19.530000	28.690000	483.000000	0.000000	130.000000	56.000000	55.000000	0.000000
1.090000	20.230000	29.120000	481.000000	0.000000	130.000000	56.000000	70.000000	43.000000
1.100000	20.920000	29.520000	472.000000	0.000000	130.000000	56.000000	69.000000	40.000000
1.110000	21.220000	29.930000	465.000000	0.000000	130.000000	56.000000	30.000000	41.000000
1.120000	21.220000	30.280000	481.000000	0.000000	130.000000	56.000000	0.000000	35.000000
1.130000	20.840000	30.430000	495.000000	0.000000	129.000000	56.000000	-38.000000	15.000000
1.140000	20.100000	30.430000	520.000000	0.000000	129.000000	56.000000	-74.000000	0.000000
1.150000	19.130000	30.280000	524.000000	0.000000	129.000000	56.000000	-97.000000	-15.000000
1.160000	18.280000	30.100000	519.000000	0.000000	129.000000	56.000000	-85.000000	-18.000000
1.170000	17.690000	29.900000	465.000000	0.000000	130.000000	55.000000	-59.000000	-20.000000
1.180000	17.280000	29.790000	173.000000	0.000000	130.000000	55.000000	-41.000000	-11.000000
1.190000	17.280000	29.790000	0.000000	1.000000	130.000000	56.000000	0.000000	0.000000
1.200000	17.690000	29.800000	0.000000	0.000000	130.000000	56.000000	41.000000	1.000000
1.210000	18.200000	30.130000	0.000000	0.000000	130.000000	56.000000	51.000000	33.000000
1.220000	18.770000	30.630000	0.000000	0.000000	130.000000	56.000000	57.000000	50.000000
1.230000	19.370000	31.110000	0.000000	0.000000	129.000000	56.000000	60.000000	48.000000
1.240000	20.000000	31.600000	0.000000	0.000000	127.000000	55.000000	63.000000	49.000000
1.250000	20.600000	32.050000	0.000000	0.000000	126.000000	54.000000	60.000000	45.000000
1.260000	20.980000	32.450000	0.000000	0.000000	126.000000	54.000000	38.000000	40.000000
1.270000	21.240000	32.730000	0.000000	0.000000	125.000000	54.000000	26.000000	28.000000
1.280000	21.240000	32.930000	0.000000	0.000000	127.000000	53.000000	0.000000	20.000000
1.290000	21.240000	32.930000	389.000000	1.000000	127.000000	53.000000	0.000000	0.000000
1.300000	20.940000	33.110000	466.000000	0.000000	127.000000	53.000000	-30.000000	18.000000
1.310000	20.550000	33.110000	477.000000	0.000000	127.000000	53.000000	-39.000000	0.000000
1.320000	20.500000	33.010000	526.000000	0.000000	128.000000	54.000000	-5.000000	-10.000000
1.330000	20.500000	32.490000	543.000000	0.000000	129.000000	55.000000	0.000000	-52.000000
1.340000	20.500000	31.690000	548.000000	0.000000	129.000000	55.000000	0.000000	-80.000000
1.350000	20.570000	30.710000	543.000000	0.000000	130.000000	55.000000	7.000000	-98.000000
1.360000	20.700000	29.910000	493.000000	0.000000	130.000000	55.000000	13.000000	-80.000000
1.370000	20.930000	29.240000	327.000000	0.000000	130.000000	55.000000	23.000000	-67.000000
1.380000	20.930000	29.240000	0.000000	1.000000	129.000000	56.000000	0.000000	0.000000
1.390000	21.500000	28.650000	0.000000	0.000000	127.000000	55.000000	57.000000	-59.000000
1.400000	21.710000	28.750000	0.000000	0.000000	127.000000	55.000000	21.000000	10.000000
1.410000	21.880000	29.250000	0.000000	0.000000	127.000000	55.000000	17.000000	50.000000
1.420000	22.000000	29.850000	0.000000	0.000000	126.000000	54.000000	12.000000	60.000000
1.430000	22.150000	30.510000	0.000000	0.000000	126.000000	54.000000	15.000000	66.000000
1.440000	22.340000	31.000000	0.000000	0.000000	126.000000	54.000000	19.000000	49.000000
1.450000	22.340000	31.000000	254.000000	1.000000	126.000000	54.000000	0.000000	0.000000
1.460000	22.340000	31.000000	392.000000	0.000000	125.000000	54.000000	0.000000	0.000000
1.470000	22.340000	31.000000	468.000000	0.000000	125.000000	54.000000	0.000000	0.000000
1.480000	22.340000	31.000000	522.000000	0.000000	125.000000	54.000000	0.000000	0.000000
1.490000	22.340000	31.000000	583.000000	0.000000	127.000000	53.000000	0.000000	0.000000
1.500000	22.510000	30.590000	585.000000	0.000000	127.000000	53.000000	17.000000	-41.000000
1.510000	22.570000	29.960000	588.000000	0.000000	127.000000	53.000000	6.000000	-63.000000
1.520000	22.660000	29.450000	486.000000	0.000000	127.000000	53.000000	9.000000	-51.000000
1.530000	22.890000	29.020000	173.000000	0.000000	128.000000	54.000000	23.000000	-43.000000
1.540000	22.890000	29.020000	0.000000	1.000000	126.000000	54.000000	0.000000	0.000000
1.550000	23.480000	28.980000	0.000000	0.000000	126.000000	54.000000	59.000000	-4.000000
1.560000	23.480000	29.350000	0.000000	0.000000	126.000000	54.000000	0.000000	37.000000
1.570000	23.180000	29.890000	0.000000	0.000000	126.000000	54.000000	-30.000000	54.000000
1.580000	22.980000	30.560000	0.000000	0.000000	126.000000	54.000000	-20.000000	67.000000
1.590000	22.790000	31.320000	0.000000	0.000000	126.000000	54.000000	-19.000000	76.000000
1.600000	22.620000	31.800000	0.000000	0.000000	126.000000	54.000000	-17.000000	48.000000
1.610000	22.620000	32.040000	0.000000	0.000000	125.000000	54.000000	0.000000	24.000000
1.620000	22.620000	32.040000	267.000000	1.000000	125.000000	54.000000	0.000000	0.000000
1.630000	22.600000	32.360000	311.000000	0.000000	125.000000	54.000000	-2.000000	32.000000
1.640000	22.550000	32.360000	314.000000	0.000000	125.000000	54.000000	-5.000000	0.000000
1.650000	22.550000	32.310000	304.000000	0.000000	127.000000	53.000000	0.000000	-5.000000
1.660000	22.680000	32.200000	281.000000	0.000000	127.000000	53.000000	13.000000	-11.000000
1.670000	22.800000	31.950000	109.000000	0.000000	127.000000	53.000000	12.000000	-25.000000
1.680000	22.800000	31.950000	0.000000	1.000000	127.000000	53.000000	0.000000	0.000000
1.690000	23.400000	31.470000	0.000000	0.000000	127.000000	53.000000	60.000000	-48.000000
1.700000	23.660000	31.550000	0.000000	0.000000	127.000000	53.000000	26.000000	8.000000
1.710000	23.830000	31.780000	0.000000	0.000000	128.000000	54.000000	17.000000	23.000000
1.720000	24.020000	31.940000	0.000000	0.000000	128.000000	54.000000	19.000000	16.000000
1.730000	24.210000	32.050000	0.000000	0.000000	128.000000	54.000000	19.000000	11.000000
1.740000	24.210000	32.050000	168.000000	1.000000	129.000000	53.000000	0.000000	0.000000
1.750000	24.210000	31.690000	284.000000	0.000000	129.000000	53.000000	0.000000	-36.000000
1.760000	23.850000	31.630000	409.000000	0.000000	129.000000	53.000000	-36.000000	-6.000000
1.770000	23.690000	31.550000	471.000000	0.000000	129.000000	53.000000	-16.000000	-8.000000
1.780000	23.690000	31.420000	516.000000	0.000000	129.000000	53.000000	0.000000	-13.000000
1.790000	23.690000	31.130000	546.000000	0.000000	129.000000	53.000000	0.000000	-29.000000
1.800000	23.830000	30.740000	556.000000	0.000000	129.000000	53.000000	14.000000	-39.000000
1.810000	24.110000	30.410000	564.000000	0.000000	129.000000	53.000000	28.000000	-33.000000
1.820000	24.490000	30.230000	556.000000	0.000000	129.000000	53.000000	38.000000	-18.000000
1.830000	24.890000	30.150000	542.000000	0.000000	129.000000	53.000000	40.000000	-8.000000
1.840000	25.310000	30.150000	520.000000	0.000000	129.000000	53.000000	42.000000	0.000000
1.850000	25.730000	30.430000	502.000000	0.000000	129.000000	53.000000	42.000000	28.000000
1.860000	25.970000	30.830000	489.000000	0.000000	130.000000	54.000000	24.000000	40.000000
1.870000	26.110000	31.240000	491.000000	0.000000	130.000000	54.000000	14.000000	41.000000
1.880000	25.970000	31.600000	499.000000	0.000000	130.000000	54.000000	-14.000000	36.000000
1.890000	25.970000	31.600000	514.000000	0.000000	131.000000	55.000000	0.000000	0.000000
1.900000	25.580000	31.910000	521.000000	0.000000	131.000000	55.000000	-39.000000	31.000000
1.910000	25.430000	31.910000	527.000000	0.000000	131.000000	55.000000	-15.000000	0.000000
1.920000	25.330000	31.860000	526.000000	0.000000	131.000000	55.000000	-10.000000	-5.000000
1.930000	25.330000	31.810000	527.000000	0.000000	131.000000	55.000000	0.000000	-5.000000
1.940000	25.330000	31.580000	527.000000	0.000000	131.000000	55.000000	0.000000	-23.000000
1.950000	25.580000	31.250000	526.000000	0.000000	131.000000	55.000000	25.000000	-33.000000
1.960000	25.980000	31.090000	521.000000	0.000000	131.000000	55.000000	40.000000	-16.000000
1.970000	26.510000	31.040000	521.000000	0.000000	131.000000	55.000000	53.000000	-5.000000
1.980000	27.040000	31.040000	516.000000	0.000000	131.000000	55.000000	53.000000	0.000000
1.990000	27.540000	31.210000	519.000000	0.000000	132.000000	55.000000	50.000000	17.000000
2.000000	27.890000	31.420000	515.000000	0.000000	132.000000	55.000000	35.000000	21.000000
2.010000	28.150000	31.670000	515.000000	0.000000	134.000000	56.000000	26.000000	25.000000
2.020000	28.260000	32.010000	524.000000	0.000000	134.000000	56.000000	11.000000	34.000000
2.030000	28.150000	32.380000	533.000000	0.000000	135.000000	57.000000	-11.000000	37.000000
2.040000	27.880000	32.760000	556.000000	0.000000	135.000000	57.000000	-27.000000	38.000000
2.050000	27.620000	32.910000	562.000000	0.000000	135.000000	57.000000	-26.000000	15.000000
2.060000	27.110000	33.010000	578.000000	0.000000	135.000000	57.000000	-51.000000	10.000000
2.070000	26.440000	32.850000	595.000000	0.000000	134.000000	57.000000	-67.000000	-16.000000
2.080000	25.700000	32.540000	605.000000	0.000000	132.000000	57.000000	-74.000000	-31.000000
2.090000	25.420000	32.290000	605.000000	0.000000	132.000000	57.000000	-28.000000	-25.000000
2.100000	25.420000	32.050000	613.000000	0.000000	131.000000	56.000000	0.000000	-24.000000
2.110000	25.640000	31.810000	617.000000	0.000000	131.000000	56.000000	22.000000	-24.000000
2.120000	26.180000	31.530000	617.000000	0.000000	130.000000	55.000000	54.000000	-28.000000
2.130000	26.950000	31.370000	616.000000	0.000000	131.000000	55.000000	77.000000	-16.000000
2.140000	27.590000	31.280000	564.000000	0.000000	132.000000	55.000000	64.000000	-9.000000
2.150000	28.170000	31.380000	447.000000	0.000000	132.000000	55.000000	58.000000	10.000000
2.160000	28.710000	31.600000	153.000000	0.000000	132.000000	55.000000	54.000000	22.000000
2.170000	28.710000	31.600000	0.000000	1.000000	134.000000	56.000000	0.000000	0.000000
2.180000	29.690000	32.350000	0.000000	0.000000	135.000000	57.000000	98.000000	75.000000
2.190000	30.010000	32.990000	0.000000	0.000000	135.000000	57.000000	32.000000	64.000000
2.200000	30.240000	33.750000	0.000000	0.000000	135.000000	57.000000	23.000000	76.000000
2.210000	30.530000	34.410000	0.000000	0.000000	135.000000	57.000000	29.000000	66.000000
