t	x	y	pressure	penup	azimuth	inclination	v_x	v_y
0.000000	20.650000	65.340000	34.000000	1.000000	162.000000	52.000000	0.000000	0.000000
0.010000	20.650000	65.340000	65.000000	0.000000	162.000000	52.000000	0.000000	0.000000
0.020000	20.650000	65.340000	93.000000	0.000000	161.000000	52.000000	0.000000	0.000000
0.030000	20.480000	65.640000	132.000000	0.000000	161.000000	52.000000	-17.000000	30.000000
0.040000	20.340000	65.720000	160.000000	0.000000	161.000000	52.000000	-14.000000	8.000000
0.050000	20.150000	65.720000	187.000000	0.000000	161.000000	52.000000	-19.000000	0.000000
0.060000	19.910000	65.660000	198.000000	0.000000	161.000000	52.000000	-24.000000	-6.000000
0.070000	19.630000	65.530000	210.000000	0.000000	162.000000	53.000000	-28.000000	-13.000000
0.080000	19.160000	65.210000	213.000000	0.000000	162.000000	53.000000	-47.000000	-32.000000
0.090000	18.720000	64.770000	213.000000	0.000000	162.000000	53.000000	-44.000000	-44.000000
0.100000	18.290000	64.260000	206.000000	0.000000	162.000000	53.000000	-43.000000	-51.000000
0.110000	18.010000	63.810000	222.000000	0.000000	162.000000	53.000000	-28.000000	-45.000000
0.120000	18.010000	63.510000	206.000000	0.000000	163.000000	52.000000	0.000000	-30.000000
0.130000	18.130000	63.300000	217.000000	0.000000	163.000000	52.000000	12.000000	-21.000000
0.140000	18.410000	63.250000	198.000000	0.000000	163.000000	52.000000	28.000000	-5.000000
0.150000	18.820000	63.370000	173.000000	0.000000	163.000000	52.000000	41.000000	12.000000
0.160000	19.320000	63.600000	141.000000	0.000000	164.000000	51.000000	50.000000	23.000000
0.170000	19.820000	63.860000	130.000000	0.000000	164.000000	51.000000	50.000000	26.000000
0.180000	20.190000	64.150000	119.000000	0.000000	162.000000	51.000000	37.000000	29.000000
0.190000	20.460000	64.460000	103.000000	0.000000	162.000000	51.000000	27.000000	31.000000
0.200000	20.590000	64.740000	94.000000	0.000000	162.000000	52.000000	13.000000	28.000000
0.210000	20.590000	64.990000	101.000000	0.000000	162.000000	52.000000	0.000000	25.000000
0.220000	20.590000	65.180000	103.000000	0.000000	162.000000	52.000000	0.000000	19.000000
0.230000	20.590000	65.330000	134.000000	0.000000	162.000000	52.000000	0.000000	15.000000
0.240000	20.540000	65.420000	148.000000	0.000000	162.000000	52.000000	-5.000000	9.000000
0.250000	20.540000	65.420000	175.000000	0.000000	161.000000	52.000000	0.000000	0.000000
0.260000	20.540000	65.480000	184.000000	0.000000	162.000000	53.000000	0.000000	6.000000
0.270000	20.540000	65.480000	185.000000	0.000000	162.000000	53.000000	0.000000	0.000000
0.280000	20.600000	65.330000	190.000000	0.000000	162.000000	53.000000	6.000000	-15.000000
0.290000	20.600000	65.150000	191.000000	0.000000	162.000000	53.000000	0.000000	-18.000000
0.300000	20.710000	64.930000	200.000000	0.000000	162.000000	53.000000	11.000000	-22.000000
0.310000	20.830000	64.700000	203.000000	0.000000	162.000000	53.000000	12.000000	-23.000000
0.320000	21.000000	64.470000	207.000000	0.000000	162.000000	53.000000	17.000000	-23.000000
0.330000	21.260000	64.360000	210.000000	0.000000	162.000000	53.000000	26.000000	-11.000000
0.340000	21.560000	64.310000	213.000000	0.000000	161.000000	52.000000	30.000000	-5.000000
0.350000	21.910000	64.410000	212.000000	0.000000	162.000000	52.000000	35.000000	10.000000
0.360000	22.320000	64.590000	202.000000	0.000000	162.000000	52.000000	41.000000	18.000000
0.370000	22.620000	64.820000	186.000000	0.000000	162.000000	52.000000	30.000000	23.000000
0.380000	22.840000	64.990000	105.000000	0.000000	160.000000	51.000000	22.000000	17.000000
0.390000	22.840000	64.990000	0.000000	1.000000	160.000000	51.000000	0.000000	0.000000
0.400000	22.940000	65.170000	0.000000	0.000000	160.000000	51.000000	10.000000	18.000000
0.410000	22.760000	65.170000	0.000000	0.000000	159.000000	51.000000	-18.000000	0.000000
0.420000	22.640000	65.110000	0.000000	0.000000	159.000000	51.000000	-12.000000	-6.000000
0.430000	22.530000	65.060000	0.000000	0.000000	159.000000	51.000000	-11.000000	-5.000000
0.440000	22.480000	65.060000	0.000000	0.000000	159.000000	51.000000	-5.000000	0.000000
0.450000	22.480000	65.010000	0.000000	0.000000	159.000000	51.000000	0.000000	-5.000000
0.460000	22.480000	65.010000	0.000000	0.000000	159.000000	51.000000	0.000000	0.000000
0.470000	22.620000	65.090000	0.000000	0.000000	159.000000	51.000000	14.000000	8.000000
0.480000	22.790000	65.150000	0.000000	0.000000	159.000000	51.000000	17.000000	6.000000
0.490000	22.930000	65.150000	0.000000	0.000000	159.000000	51.000000	14.000000	0.000000
0.500000	22.980000	65.150000	0.000000	0.000000	160.000000	50.000000	5.000000	0.000000
0.510000	22.980000	65.150000	0.000000	0.000000	160.000000	50.000000	0.000000	0.000000
0.520000	22.980000	65.150000	0.000000	0.000000	160.000000	50.000000	0.000000	0.000000
0.530000	22.880000	65.150000	0.000000	0.000000	160.000000	50.000000	-10.000000	0.000000
0.540000	22.800000	65.150000	0.000000	0.000000	160.000000	50.000000	-8.000000	0.000000
0.550000	22.800000	65.150000	0.000000	0.000000	160.000000	50.000000	0.000000	0.000000
0.560000	22.740000	65.200000	0.000000	0.000000	160.000000	50.000000	-6.000000	5.000000
0.570000	22.740000	65.200000	0.000000	0.000000	161.000000	50.000000	0.000000	0.000000
0.580000	22.740000	65.200000	0.000000	0.000000	161.000000	50.000000	0.000000	0.000000
0.590000	22.690000	65.110000	0.000000	0.000000	161.000000	50.000000	-5.000000	-9.000000
0.600000	22.690000	65.110000	0.000000	0.000000	161.000000	50.000000	0.000000	0.000000
0.610000	22.640000	65.060000	0.000000	0.000000	161.000000	50.000000	-5.000000	-5.000000
0.620000	22.640000	65.060000	0.000000	0.000000	161.000000	50.000000	0.000000	0.000000
0.630000	22.640000	65.110000	0.000000	0.000000	161.000000	50.000000	0.000000	5.000000
0.640000	22.640000	65.170000	0.000000	0.000000	161.000000	50.000000	0.000000	6.000000
0.650000	22.640000	65.220000	0.000000	0.000000	161.000000	50.000000	0.000000	5.000000
0.660000	22.590000	65.220000	0.000000	0.000000	161.000000	50.000000	-5.000000	0.000000
0.670000	22.590000	65.280000	0.000000	0.000000	161.000000	50.000000	0.000000	6.000000
0.680000	22.590000	65.280000	0.000000	0.000000	161.000000	50.000000	0.000000	0.000000
0.690000	22.510000	65.350000	0.000000	0.000000	161.000000	50.000000	-8.000000	7.000000
0.700000	22.510000	65.350000	0.000000	0.000000	161.000000	50.000000	0.000000	0.000000
0.710000	22.510000	65.430000	0.000000	0.000000	161.000000	50.000000	0.000000	8.000000
0.720000	22.570000	65.520000	0.000000	0.000000	161.000000	50.000000	6.000000	9.000000
0.730000	22.570000	65.520000	0.000000	0.000000	161.000000	50.000000	0.000000	0.000000
0.740000	22.570000	65.620000	0.000000	0.000000	161.000000	50.000000	0.000000	10.000000
0.750000	22.620000	65.690000	0.000000	0.000000	161.000000	50.000000	5.000000	7.000000
0.760000	22.620000	65.760000	0.000000	0.000000	161.000000	50.000000	0.000000	7.000000
0.770000	22.620000	65.810000	0.000000	0.000000	161.000000	50.000000	0.000000	5.000000
0.780000	22.560000	65.860000	0.000000	0.000000	161.000000	50.000000	-6.000000	5.000000
0.790000	22.560000	65.920000	0.000000	0.000000	161.000000	50.000000	0.000000	6.000000
0.800000	22.500000	65.970000	0.000000	0.000000	161.000000	50.000000	-6.000000	5.000000
0.810000	22.500000	65.970000	0.000000	0.000000	161.000000	50.000000	0.000000	0.000000
0.820000	22.500000	66.030000	0.000000	0.000000	161.000000	50.000000	0.000000	6.000000
0.830000	22.500000	66.080000	0.000000	0.000000	161.000000	50.000000	0.000000	5.000000
0.840000	22.500000	66.140000	0.000000	0.000000	161.000000	50.000000	0.000000	6.000000
0.850000	22.500000	66.210000	0.000000	0.000000	161.000000	50.000000	0.000000	7.000000
0.860000	22.500000	66.280000	0.000000	0.000000	160.000000	51.000000	0.000000	7.000000
0.870000	22.500000	66.350000	0.000000	0.000000	160.000000	51.000000	0.000000	7.000000
0.880000	22.440000	66.430000	0.000000	0.000000	160.000000	51.000000	-6.000000	8.000000
0.890000	22.440000	66.500000	0.000000	0.000000	160.000000	51.000000	0.000000	7.000000
0.900000	22.440000	66.500000	0.000000	0.000000	160.000000	52.000000	0.000000	0.000000
0.910000	22.440000	66.550000	0.000000	0.000000	160.000000	52.000000	0.000000	5.000000
0.920000	22.440000	66.550000	3.000000	0.000000	160.000000	52.000000	0.000000	0.000000
0.930000	22.440000	66.410000	65.000000	1.000000	160.000000	52.000000	0.000000	0.000000
0.940000	22.360000	66.210000	86.000000	0.000000	160.000000	52.000000	-8.000000	-20.000000
0.950000	22.360000	65.910000	98.000000	0.000000	160.000000	52.000000	0.000000	-30.000000
0.960000	22.440000	65.570000	107.000000	0.000000	160.000000	52.000000	8.000000	-34.000000
0.970000	22.530000	65.260000	112.000000	0.000000	160.000000	52.000000	9.000000	-31.000000
0.980000	22.600000	65.020000	115.000000	0.000000	160.000000	52.000000	7.000000	-24.000000
0.990000	22.600000	64.820000	119.000000	0.000000	160.000000	52.000000	0.000000	-20.000000
1.000000	22.680000	64.820000	139.000000	0.000000	160.000000	52.000000	8.000000	0.000000
1.010000	22.680000	64.820000	134.000000	0.000000	160.000000	51.000000	0.000000	0.000000
1.020000	22.680000	64.820000	146.000000	0.000000	160.000000	51.000000	0.000000	0.000000
1.030000	22.680000	64.990000	151.000000	0.000000	160.000000	51.000000	0.000000	17.000000
1.040000	22.620000	65.190000	156.000000	0.000000	160.000000	51.000000	-6.000000	20.000000
1.050000	22.540000	65.450000	165.000000	0.000000	160.000000	51.000000	-8.000000	26.000000
1.060000	22.450000	65.750000	168.000000	0.000000	160.000000	51.000000	-9.000000	30.000000
1.070000	22.380000	66.070000	187.000000	0.000000	160.000000	52.000000	-7.000000	32.000000
1.080000	22.330000	66.410000	218.000000	0.000000	160.000000	52.000000	-5.000000	34.000000
1.090000	22.400000	66.600000	223.000000	0.000000	161.000000	52.000000	7.000000	19.000000
1.100000	22.510000	66.770000	219.000000	0.000000	161.000000	52.000000	11.000000	17.000000
1.110000	22.830000	66.930000	216.000000	0.000000	160.000000	53.000000	32.000000	16.000000
1.120000	23.280000	67.060000	221.000000	0.000000	160.000000	53.000000	45.000000	13.000000
1.130000	23.720000	67.150000	212.000000	0.000000	160.000000	53.000000	44.000000	9.000000
1.140000	24.130000	67.150000	211.000000	0.000000	159.000000	53.000000	41.000000	0.000000
1.150000	24.520000	67.240000	215.000000	0.000000	159.000000	53.000000	39.000000	9.000000
1.160000	24.900000	67.290000	208.000000	0.000000	159.000000	53.000000	38.000000	5.000000
1.170000	25.250000	67.290000	198.000000	0.000000	159.000000	53.000000	35.000000	0.000000
1.180000	25.470000	67.340000	186.000000	0.000000	159.000000	53.000000	22.000000	5.000000
1.190000	25.600000	67.340000	171.000000	0.000000	159.000000	53.000000	13.000000	0.000000
1.200000	25.600000	67.340000	177.000000	0.000000	160.000000	52.000000	0.000000	0.000000
1.210000	25.600000	67.340000	168.000000	0.000000	160.000000	52.000000	0.000000	0.000000
1.220000	25.540000	67.290000	161.000000	0.000000	160.000000	52.000000	-6.000000	-5.000000
1.230000	25.400000	67.290000	163.000000	0.000000	160.000000	52.000000	-14.000000	0.000000
1.240000	25.140000	67.240000	167.000000	0.000000	160.000000	52.000000	-26.000000	-5.000000
1.250000	24.840000	67.190000	170.000000	0.000000	160.000000	52.000000	-30.000000	-5.000000
1.260000	24.510000	67.130000	182.000000	0.000000	160.000000	52.000000	-33.000000	-6.000000
1.270000	24.120000	67.010000	181.000000	0.000000	160.000000	52.000000	-39.000000	-12.000000
1.280000	23.700000	66.790000	191.000000	0.000000	159.000000	53.000000	-42.000000	-22.000000
1.290000	23.270000	66.500000	200.000000	0.000000	159.000000	53.000000	-43.000000	-29.000000
1.300000	23.050000	66.080000	198.000000	0.000000	159.000000	53.000000	-22.000000	-42.000000
1.310000	22.970000	65.590000	200.000000	0.000000	159.000000	53.000000	-8.000000	-49.000000
1.320000	22.970000	65.130000	203.000000	0.000000	160.000000	52.000000	0.000000	-46.000000
1.330000	23.170000	64.790000	202.000000	0.000000	160.000000	52.000000	20.000000	-34.000000
1.340000	23.570000	64.540000	207.000000	0.000000	160.000000	52.000000	40.000000	-25.000000
1.350000	24.090000	64.540000	208.000000	0.000000	160.000000	52.000000	52.000000	0.000000
1.360000	24.650000	64.660000	210.000000	0.000000	160.000000	52.000000	56.000000	12.000000
1.370000	25.210000	64.930000	207.000000	0.000000	160.000000	51.000000	56.000000	27.000000
1.380000	25.670000	65.280000	210.000000	0.000000	160.000000	51.000000	46.000000	35.000000
1.390000	26.050000	65.680000	213.000000	0.000000	160.000000	51.000000	38.000000	40.000000
1.400000	26.340000	66.110000	222.000000	0.000000	160.000000	51.000000	29.000000	43.000000
1.410000	26.440000	66.480000	222.000000	0.000000	161.000000	52.000000	10.000000	37.000000
1.420000	26.440000	66.810000	212.000000	0.000000	161.000000	52.000000	0.000000	33.000000
1.430000	26.170000	67.060000	212.000000	0.000000	161.000000	52.000000	-27.000000	25.000000
1.440000	25.830000	67.150000	216.000000	0.000000	161.000000	52.000000	-34.000000	9.000000
1.450000	25.430000	67.150000	222.000000	0.000000	161.000000	52.000000	-40.000000	0.000000
1.460000	25.070000	67.040000	222.000000	0.000000	160.000000	53.000000	-36.000000	-11.000000
1.470000	24.720000	66.960000	220.000000	0.000000	160.000000	53.000000	-35.000000	-8.000000
1.480000	24.620000	66.880000	210.000000	0.000000	160.000000	53.000000	-10.000000	-8.000000
1.490000	24.670000	66.800000	193.000000	0.000000	160.000000	53.000000	5.000000	-8.000000
1.500000	24.790000	66.750000	193.000000	0.000000	160.000000	53.000000	12.000000	-5.000000
1.510000	25.060000	66.750000	200.000000	0.000000	159.000000	53.000000	27.000000	0.000000
1.520000	25.430000	66.750000	203.000000	0.000000	159.000000	53.000000	37.000000	0.000000
1.530000	25.840000	66.830000	205.000000	0.000000	159.000000	53.000000	41.000000	8.000000
1.540000	26.190000	66.950000	208.000000	0.000000	159.000000	53.000000	35.000000	12.000000
1.550000	26.470000	67.060000	198.000000	0.000000	159.000000	53.000000	28.000000	11.000000
1.560000	26.710000	67.170000	98.000000	0.000000	160.000000	53.000000	24.000000	11.000000
1.570000	26.710000	67.170000	0.000000	1.000000	160.000000	53.000000	0.000000	0.000000
1.580000	26.940000	67.340000	0.000000	0.000000	160.000000	53.000000	23.000000	17.000000
1.590000	26.940000	67.400000	0.000000	0.000000	160.000000	53.000000	0.000000	6.000000
1.600000	26.940000	67.400000	0.000000	0.000000	160.000000	53.000000	0.000000	0.000000
1.610000	26.940000	67.400000	0.000000	0.000000	160.000000	53.000000	0.000000	0.000000
1.620000	26.940000	67.400000	0.000000	0.000000	160.000000	53.000000	0.000000	0.000000
1.630000	26.940000	67.400000	0.000000	0.000000	160.000000	52.000000	0.000000	0.000000
1.640000	26.940000	67.400000	0.000000	0.000000	160.000000	52.000000	0.000000	0.000000
1.650000	26.940000	67.400000	0.000000	0.000000	160.000000	52.000000	0.000000	0.000000
1.660000	26.940000	67.400000	0.000000	0.000000	158.000000	52.000000	0.000000	0.000000
1.670000	26.940000	67.400000	0.000000	0.000000	158.000000	52.000000	0.000000	0.000000
1.680000	27.230000	67.520000	0.000000	0.000000	159.000000	51.000000	29.000000	12.000000
1.690000	27.540000	67.630000	0.000000	0.000000	159.000000	51.000000	31.000000	11.000000
1.700000	27.780000	67.630000	0.000000	0.000000	160.000000	50.000000	24.000000	0.000000
1.710000	28.040000	67.630000	0.000000	0.000000	160.000000	50.000000	26.000000	0.000000
1.720000	28.320000	67.570000	0.000000	0.000000	161.000000	49.000000	28.000000	-6.000000
1.730000	28.550000	67.460000	0.000000	0.000000	161.000000	49.000000	23.000000	-11.000000
1.740000	28.660000	67.310000	0.000000	0.000000	161.000000	49.000000	11.000000	-15.000000
1.750000	28.710000	67.200000	0.000000	0.000000	162.000000	49.000000	5.000000	-11.000000
1.760000	28.710000	67.100000	0.000000	0.000000	162.000000	49.000000	0.000000	-10.000000
1.770000	28.710000	67.040000	0.000000	0.000000	162.000000	49.000000	0.000000	-6.000000
1.780000	28.710000	66.990000	0.000000	0.000000	163.000000	50.000000	0.000000	-5.000000
1.790000	28.590000	66.930000	0.000000	0.000000	163.000000	50.000000	-12.000000	-6.000000
1.800000	28.440000	66.880000	0.000000	0.000000	163.000000	50.000000	-15.000000	-5.000000
1.810000	28.250000	66.880000	0.000000	0.000000	164.000000	51.000000	-19.000000	0.000000
1.820000	28.080000	66.880000	0.000000	0.000000	164.000000	51.000000	-17.000000	0.000000
1.830000	27.910000	66.880000	0.000000	0.000000	164.000000	51.000000	-17.000000	0.000000
1.840000	27.710000	66.880000	0.000000	0.000000	164.000000	51.000000	-20.000000	0.000000
1.850000	27.500000	66.880000	0.000000	0.000000	164.000000	51.000000	-21.000000	0.000000
1.860000	27.370000	66.880000	0.000000	0.000000	164.000000	51.000000	-13.000000	0.000000
1.870000	27.280000	66.880000	0.000000	0.000000	164.000000	51.000000	-9.000000	0.000000
1.880000	27.210000	66.880000	0.000000	0.000000	162.000000	51.000000	-7.000000	0.000000
1.890000	27.150000	66.880000	0.000000	0.000000	162.000000	51.000000	-6.000000	0.000000
1.900000	27.100000	66.880000	0.000000	0.000000	162.000000	51.000000	-5.000000	0.000000
1.910000	27.100000	66.880000	0.000000	0.000000	161.000000	50.000000	0.000000	0.000000
1.920000	27.040000	66.880000	0.000000	0.000000	161.000000	50.000000	-6.000000	0.000000
1.930000	27.040000	66.880000	0.000000	0.000000	161.000000	50.000000	0.000000	0.000000
1.940000	26.970000	66.880000	0.000000	0.000000	160.000000	50.000000	-7.000000	0.000000
1.950000	26.970000	66.810000	0.000000	0.000000	160.000000	50.000000	0.000000	-7.000000
1.960000	26.970000	66.810000	0.000000	0.000000	160.000000	50.000000	0.000000	0.000000
1.970000	26.970000	66.810000	0.000000	0.000000	160.000000	50.000000	0.000000	0.000000
1.980000	26.970000	66.810000	0.000000	0.000000	160.000000	50.000000	0.000000	0.000000
1.990000	26.970000	66.810000	0.000000	0.000000	159.000000	51.000000	0.000000	0.000000
2.000000	26.970000	66.810000	0.000000	0.000000	159.000000	51.000000	0.000000	0.000000
2.010000	26.970000	66.810000	0.000000	0.000000	159.000000	51.000000	0.000000	0.000000
2.020000	26.970000	66.810000	0.000000	0.000000	159.000000	51.000000	0.000000	0.000000
2.030000	26.900000	66.860000	0.000000	0.000000	159.000000	51.000000	-7.000000	5.000000
2.040000	26.900000	66.860000	0.000000	0.000000	159.000000	51.000000	0.000000	0.000000
2.050000	26.810000	66.860000	0.000000	0.000000	159.000000	51.000000	-9.000000	0.000000
2.060000	26.720000	66.910000	0.000000	0.000000	159.000000	51.000000	-9.000000	5.000000
2.070000	26.570000	66.910000	0.000000	0.000000	159.000000	51.000000	-15.000000	0.000000
2.080000	26.460000	66.910000	0.000000	0.000000	159.000000	51.000000	-11.000000	0.000000
2.090000	26.400000	66.910000	0.000000	0.000000	160.000000	51.000000	-6.000000	0.000000
2.100000	26.400000	66.910000	0.000000	0.000000	160.000000	51.000000	0.000000	0.000000
2.110000	26.350000	66.910000	0.000000	0.000000	160.000000	51.000000	-5.000000	0.000000
2.120000	26.350000	66.910000	0.000000	0.000000	162.000000	52.000000	0.000000	0.000000
2.130000	26.290000	66.910000	0.000000	0.000000	162.000000	52.000000	-6.000000	0.000000
2.140000	26.240000	66.960000	0.000000	0.000000	162.000000	52.000000	-5.000000	5.000000
2.150000	26.240000	66.960000	0.000000	0.000000	162.000000	52.000000	0.000000	0.000000
2.160000	26.160000	67.030000	0.000000	0.000000	162.000000	52.000000	-8.000000	7.000000
2.170000	26.160000	67.030000	0.000000	0.000000	162.000000	52.000000	0.000000	0.000000
2.180000	26.160000	67.030000	0.000000	0.000000	162.000000	52.000000	0.000000	0.000000
2.190000	26.160000	67.030000	0.000000	0.000000	162.000000	52.000000	0.000000	0.000000
2.200000	26.160000	67.030000	0.000000	0.000000	162.000000	52.000000	0.000000	0.000000
2.210000	26.160000	67.030000	0.000000	0.000000	162.000000	52.000000	0.000000	0.000000
2.220000	26.160000	67.030000	0.000000	0.000000	162.000000	52.000000	0.000000	0.000000
2.230000	26.100000	67.030000	0.000000	0.000000	162.000000	52.000000	-6.000000	0.000000
2.240000	26.100000	67.030000	0.000000	0.000000	162.000000	52.000000	0.000000	0.000000
2.250000	26.040000	67.080000	0.000000	0.000000	162.000000	52.000000	-6.000000	5.000000
