t	x	y	pressure	penup	azimuth	inclination	v_x	v_y
0.000000	17.160000	51.000000	160.000000	1.000000	123.000000	58.000000	0.000000	0.000000
0.010000	17.060000	51.290000	195.000000	0.000000	124.000000	57.000000	-10.000000	29.000000
0.020000	17.060000	51.290000	205.000000	0.000000	124.000000	57.000000	0.000000	0.000000
0.030000	17.140000	51.190000	252.000000	0.000000	126.000000	57.000000	8.000000	-10.000000
0.040000	17.330000	50.940000	337.000000	0.000000	127.000000	57.000000	19.000000	-25.000000
0.050000	17.730000	50.200000	397.000000	0.000000	127.000000	57.000000	40.000000	-74.000000
0.060000	18.150000	49.270000	455.000000	0.000000	127.000000	57.000000	42.000000	-93.000000
0.070000	18.640000	48.220000	491.000000	0.000000	127.000000	57.000000	49.000000	-105.000000
0.080000	19.120000	47.390000	530.000000	0.000000	127.000000	57.000000	48.000000	-83.000000
0.090000	19.570000	46.850000	560.000000	0.000000	126.000000	58.000000	45.000000	-54.000000
0.100000	19.920000	46.500000	611.000000	0.000000	126.000000	58.000000	35.000000	-35.000000
0.110000	20.160000	46.330000	676.000000	0.000000	124.000000	58.000000	24.000000	-17.000000
0.120000	20.330000	46.330000	779.000000	0.000000	123.000000	59.000000	17.000000	0.000000
0.130000	20.380000	46.420000	854.000000	0.000000	121.000000	59.000000	5.000000	9.000000
0.140000	20.380000	46.830000	879.000000	0.000000	121.000000	59.000000	0.000000	41.000000
0.150000	20.430000	47.800000	899.000000	0.000000	121.000000	59.000000	5.000000	97.000000
0.160000	20.430000	49.150000	903.000000	0.000000	121.000000	59.000000	0.000000	135.000000
0.170000	20.480000	50.420000	903.000000	0.000000	121.000000	59.000000	5.000000	127.000000
0.180000	20.480000	51.090000	887.000000	0.000000	123.000000	59.000000	0.000000	67.000000
0.190000	20.480000	51.350000	823.000000	0.000000	123.000000	58.000000	0.000000	26.000000
0.200000	20.540000	51.350000	666.000000	0.000000	124.000000	57.000000	6.000000	0.000000
0.210000	20.540000	51.050000	572.000000	0.000000	126.000000	57.000000	0.000000	-30.000000
0.220000	20.710000	50.590000	272.000000	0.000000	127.000000	56.000000	17.000000	-46.000000
0.230000	20.710000	50.590000	0.000000	1.000000	127.000000	56.000000	0.000000	0.000000
0.240000	21.190000	49.440000	0.000000	0.000000	129.000000	56.000000	48.000000	-115.000000
0.250000	21.530000	48.910000	0.000000	0.000000	127.000000	56.000000	34.000000	-53.000000
0.260000	21.780000	48.510000	0.000000	0.000000	127.000000	56.000000	25.000000	-40.000000
0.270000	21.980000	48.270000	0.000000	0.000000	127.000000	56.000000	20.000000	-24.000000
0.280000	22.150000	48.140000	0.000000	0.000000	126.000000	57.000000	17.000000	-13.000000
0.290000	22.250000	48.260000	0.000000	0.000000	123.000000	56.000000	10.000000	12.000000
0.300000	22.310000	48.510000	0.000000	0.000000	123.000000	56.000000	6.000000	25.000000
0.310000	22.310000	48.510000	49.000000	1.000000	122.000000	57.000000	0.000000	0.000000
0.320000	22.480000	49.180000	359.000000	0.000000	122.000000	57.000000	17.000000	67.000000
0.330000	22.480000	49.360000	520.000000	0.000000	122.000000	57.000000	0.000000	18.000000
0.340000	22.480000	49.430000	611.000000	0.000000	122.000000	57.000000	0.000000	7.000000
0.350000	22.430000	49.430000	643.000000	0.000000	123.000000	56.000000	-5.000000	0.000000
0.360000	22.430000	49.430000	681.000000	0.000000	123.000000	56.000000	0.000000	0.000000
0.370000	22.430000	49.070000	733.000000	0.000000	125.000000	56.000000	0.000000	-36.000000
0.380000	22.500000	48.540000	739.000000	0.000000	125.000000	56.000000	7.000000	-53.000000
0.390000	22.560000	48.090000	743.000000	0.000000	126.000000	57.000000	6.000000	-45.000000
0.400000	22.640000	47.690000	743.000000	0.000000	126.000000	57.000000	8.000000	-40.000000
0.410000	22.740000	47.320000	728.000000	0.000000	126.000000	57.000000	10.000000	-37.000000
0.420000	22.800000	47.190000	653.000000	0.000000	124.000000	57.000000	6.000000	-13.000000
0.430000	22.800000	47.190000	510.000000	0.000000	124.000000	57.000000	0.000000	0.000000
0.440000	22.920000	47.190000	207.000000	0.000000	124.000000	57.000000	12.000000	0.000000
0.450000	22.920000	47.190000	0.000000	1.000000	124.000000	58.000000	0.000000	0.000000
0.460000	23.300000	47.590000	0.000000	0.000000	124.000000	58.000000	38.000000	40.000000
0.470000	23.630000	48.030000	0.000000	0.000000	124.000000	58.000000	33.000000	44.000000
0.480000	23.940000	48.450000	0.000000	0.000000	124.000000	58.000000	31.000000	42.000000
0.490000	24.270000	48.830000	0.000000	0.000000	124.000000	58.000000	33.000000	38.000000
0.500000	24.630000	49.150000	0.000000	0.000000	124.000000	58.000000	36.000000	32.000000
0.510000	25.030000	49.460000	0.000000	0.000000	127.000000	59.000000	40.000000	31.000000
0.520000	25.420000	49.720000	0.000000	0.000000	127.000000	59.000000	39.000000	26.000000
0.530000	25.730000	49.960000	0.000000	0.000000	127.000000	59.000000	31.000000	24.000000
0.540000	25.980000	50.200000	0.000000	0.000000	128.000000	58.000000	25.000000	24.000000
0.550000	25.980000	50.200000	302.000000	1.000000	129.000000	59.000000	0.000000	0.000000
0.560000	26.260000	50.570000	473.000000	0.000000	131.000000	58.000000	28.000000	37.000000
0.570000	26.180000	50.570000	586.000000	0.000000	131.000000	58.000000	-8.000000	0.000000
0.580000	26.180000	50.660000	641.000000	0.000000	132.000000	59.000000	0.000000	9.000000
0.590000	26.010000	50.750000	694.000000	0.000000	134.000000	58.000000	-17.000000	9.000000
0.600000	25.810000	50.850000	711.000000	0.000000	134.000000	58.000000	-20.000000	10.000000
0.610000	25.680000	50.850000	714.000000	0.000000	134.000000	58.000000	-13.000000	0.000000
0.620000	25.490000	50.720000	717.000000	0.000000	135.000000	58.000000	-19.000000	-13.000000
0.630000	25.230000	50.460000	719.000000	0.000000	135.000000	58.000000	-26.000000	-26.000000
0.640000	24.950000	49.920000	728.000000	0.000000	135.000000	58.000000	-28.000000	-54.000000
0.650000	24.780000	49.360000	727.000000	0.000000	135.000000	58.000000	-17.000000	-56.000000
0.660000	24.670000	48.820000	736.000000	0.000000	134.000000	57.000000	-11.000000	-54.000000
0.670000	24.670000	48.520000	745.000000	0.000000	132.000000	58.000000	0.000000	-30.000000
0.680000	24.850000	48.360000	763.000000	0.000000	132.000000	58.000000	18.000000	-16.000000
0.690000	25.100000	48.160000	757.000000	0.000000	131.000000	57.000000	25.000000	-20.000000
0.700000	25.380000	48.300000	760.000000	0.000000	130.000000	58.000000	28.000000	14.000000
0.710000	25.810000	48.670000	750.000000	0.000000	130.000000	58.000000	43.000000	37.000000
0.720000	26.340000	49.210000	731.000000	0.000000	131.000000	58.000000	53.000000	54.000000
0.730000	26.770000	49.820000	693.000000	0.000000	131.000000	58.000000	43.000000	61.000000
0.740000	27.040000	50.490000	617.000000	0.000000	131.000000	58.000000	27.000000	67.000000
0.750000	27.200000	51.050000	517.000000	0.000000	132.000000	59.000000	16.000000	56.000000
0.760000	27.300000	51.620000	334.000000	0.000000	134.000000	58.000000	10.000000	57.000000
0.770000	27.300000	52.190000	250.000000	0.000000	135.000000	59.000000	0.000000	57.000000
0.780000	27.300000	52.770000	285.000000	0.000000	136.000000	58.000000	0.000000	58.000000
0.790000	27.350000	53.000000	327.000000	0.000000	139.000000	58.000000	5.000000	23.000000
0.800000	27.350000	53.060000	348.000000	0.000000	139.000000	58.000000	0.000000	6.000000
0.810000	27.420000	53.010000	387.000000	0.000000	139.000000	58.000000	7.000000	-5.000000
0.820000	27.420000	52.960000	495.000000	0.000000	140.000000	58.000000	0.000000	-5.000000
0.830000	27.530000	52.710000	597.000000	0.000000	140.000000	58.000000	11.000000	-25.000000
0.840000	27.630000	52.320000	662.000000	0.000000	140.000000	58.000000	10.000000	-39.000000
0.850000	27.730000	51.790000	708.000000	0.000000	142.000000	58.000000	10.000000	-53.000000
0.860000	27.810000	51.330000	755.000000	0.000000	142.000000	58.000000	8.000000	-46.000000
0.870000	27.920000	50.910000	757.000000	0.000000	142.000000	58.000000	11.000000	-42.000000
0.880000	28.060000	50.560000	767.000000	0.000000	142.000000	58.000000	14.000000	-35.000000
0.890000	28.230000	50.290000	768.000000	0.000000	143.000000	59.000000	17.000000	-27.000000
0.900000	28.370000	50.070000	756.000000	0.000000	142.000000	59.000000	14.000000	-22.000000
0.910000	28.480000	49.960000	728.000000	0.000000	142.000000	59.000000	11.000000	-11.000000
0.920000	28.480000	49.960000	652.000000	0.000000	142.000000	59.000000	0.000000	0.000000
0.930000	28.480000	49.960000	536.000000	0.000000	144.000000	60.000000	0.000000	0.000000
0.940000	28.480000	49.960000	407.000000	0.000000	144.000000	60.000000	0.000000	0.000000
0.950000	28.480000	49.960000	202.000000	0.000000	142.000000	61.000000	0.000000	0.000000
0.960000	28.480000	49.960000	0.000000	1.000000	142.000000	61.000000	0.000000	0.000000
0.970000	28.120000	50.020000	0.000000	0.000000	142.000000	61.000000	-36.000000	6.000000
0.980000	27.580000	50.320000	0.000000	0.000000	142.000000	61.000000	-54.000000	30.000000
0.990000	26.840000	50.700000	0.000000	0.000000	141.000000	60.000000	-74.000000	38.000000
1.000000	25.970000	51.150000	0.000000	0.000000	141.000000	60.000000	-87.000000	45.000000
1.010000	25.370000	51.550000	0.000000	0.000000	139.000000	60.000000	-60.000000	40.000000
1.020000	25.090000	51.770000	0.000000	0.000000	138.000000	59.000000	-28.000000	22.000000
1.030000	25.090000	51.770000	161.000000	1.000000	136.000000	58.000000	0.000000	0.000000
1.040000	25.100000	52.060000	250.000000	0.000000	138.000000	58.000000	1.000000	29.000000
1.050000	25.240000	52.200000	333.000000	0.000000	136.000000	57.000000	14.000000	14.000000
1.060000	25.690000	52.550000	428.000000	0.000000	136.000000	57.000000	45.000000	35.000000
1.070000	26.340000	53.040000	553.000000	0.000000	136.000000	56.000000	65.000000	49.000000
1.080000	27.320000	53.700000	610.000000	0.000000	138.000000	57.000000	98.000000	66.000000
1.090000	28.120000	54.060000	619.000000	0.000000	138.000000	57.000000	80.000000	36.000000
1.100000	28.800000	54.230000	611.000000	0.000000	138.000000	57.000000	68.000000	17.000000
1.110000	29.230000	54.180000	577.000000	0.000000	139.000000	57.000000	43.000000	-5.000000
1.120000	29.610000	54.110000	420.000000	0.000000	139.000000	57.000000	38.000000	-7.000000
1.130000	29.960000	53.980000	108.000000	0.000000	140.000000	58.000000	35.000000	-13.000000
1.140000	29.960000	53.980000	0.000000	1.000000	140.000000	58.000000	0.000000	0.000000
1.150000	30.100000	53.560000	0.000000	0.000000	140.000000	58.000000	14.000000	-42.000000
1.160000	30.050000	53.270000	0.000000	0.000000	140.000000	58.000000	-5.000000	-29.000000
1.170000	30.050000	52.940000	0.000000	0.000000	140.000000	58.000000	0.000000	-33.000000
1.180000	30.050000	52.590000	0.000000	0.000000	139.000000	58.000000	0.000000	-35.000000
1.190000	30.050000	52.590000	68.000000	1.000000	139.000000	58.000000	0.000000	0.000000
1.200000	30.100000	51.910000	212.000000	0.000000	139.000000	58.000000	5.000000	-68.000000
1.210000	30.210000	51.670000	361.000000	0.000000	139.000000	58.000000	11.000000	-24.000000
1.220000	30.360000	51.490000	522.000000	0.000000	139.000000	58.000000	15.000000	-18.000000
1.230000	30.460000	51.360000	613.000000	0.000000	139.000000	58.000000	10.000000	-13.000000
1.240000	30.520000	51.270000	699.000000	0.000000	139.000000	58.000000	6.000000	-9.000000
1.250000	30.460000	51.210000	763.000000	0.000000	139.000000	58.000000	-6.000000	-6.000000
1.260000	30.410000	51.210000	806.000000	0.000000	139.000000	58.000000	-5.000000	0.000000
1.270000	30.270000	51.130000	818.000000	0.000000	139.000000	58.000000	-14.000000	-8.000000
1.280000	30.080000	51.130000	832.000000	0.000000	139.000000	58.000000	-19.000000	0.000000
1.290000	29.830000	51.180000	817.000000	0.000000	139.000000	58.000000	-25.000000	5.000000
1.300000	29.620000	51.350000	823.000000	0.000000	139.000000	58.000000	-21.000000	17.000000
1.310000	29.620000	51.620000	806.000000	0.000000	139.000000	58.000000	0.000000	27.000000
1.320000	29.720000	51.970000	794.000000	0.000000	139.000000	58.000000	10.000000	35.000000
1.330000	30.000000	52.360000	793.000000	0.000000	139.000000	58.000000	28.000000	39.000000
1.340000	30.440000	52.720000	793.000000	0.000000	139.000000	58.000000	44.000000	36.000000
1.350000	30.980000	53.020000	794.000000	0.000000	139.000000	58.000000	54.000000	30.000000
1.360000	31.360000	53.020000	797.000000	0.000000	139.000000	58.000000	38.000000	0.000000
1.370000	31.580000	52.880000	800.000000	0.000000	140.000000	58.000000	22.000000	-14.000000
1.380000	31.690000	52.710000	800.000000	0.000000	140.000000	58.000000	11.000000	-17.000000
1.390000	31.760000	52.500000	797.000000	0.000000	140.000000	58.000000	7.000000	-21.000000
1.400000	31.660000	52.230000	759.000000	0.000000	140.000000	58.000000	-10.000000	-27.000000
1.410000	31.440000	51.960000	691.000000	0.000000	140.000000	58.000000	-22.000000	-27.000000
1.420000	31.160000	51.800000	524.000000	0.000000	140.000000	58.000000	-28.000000	-16.000000
1.430000	30.890000	51.720000	193.000000	0.000000	140.000000	58.000000	-27.000000	-8.000000
1.440000	30.890000	51.720000	0.000000	1.000000	140.000000	58.000000	0.000000	0.000000
1.450000	30.530000	51.890000	0.000000	0.000000	139.000000	57.000000	-36.000000	17.000000
1.460000	30.660000	52.170000	0.000000	0.000000	139.000000	57.000000	13.000000	28.000000
1.470000	30.950000	52.580000	0.000000	0.000000	139.000000	57.000000	29.000000	41.000000
1.480000	31.550000	52.960000	0.000000	0.000000	139.000000	57.000000	60.000000	38.000000
1.490000	32.250000	53.290000	0.000000	0.000000	139.000000	57.000000	70.000000	33.000000
1.500000	33.010000	53.560000	0.000000	0.000000	139.000000	57.000000	76.000000	27.000000
1.510000	33.010000	53.560000	56.000000	1.000000	138.000000	58.000000	0.000000	0.000000
1.520000	33.680000	53.510000	214.000000	0.000000	138.000000	58.000000	67.000000	-5.000000
1.530000	33.740000	53.370000	362.000000	0.000000	138.000000	58.000000	6.000000	-14.000000
1.540000	33.740000	53.220000	512.000000	0.000000	138.000000	58.000000	0.000000	-15.000000
1.550000	33.620000	53.070000	580.000000	0.000000	138.000000	58.000000	-12.000000	-15.000000
1.560000	33.440000	52.900000	636.000000	0.000000	138.000000	58.000000	-18.000000	-17.000000
1.570000	33.220000	52.780000	694.000000	0.000000	138.000000	58.000000	-22.000000	-12.000000
1.580000	32.950000	52.690000	714.000000	0.000000	138.000000	58.000000	-27.000000	-9.000000
1.590000	32.650000	52.690000	727.000000	0.000000	138.000000	58.000000	-30.000000	0.000000
1.600000	32.300000	52.900000	739.000000	0.000000	138.000000	58.000000	-35.000000	21.000000
1.610000	31.950000	53.190000	754.000000	0.000000	138.000000	58.000000	-35.000000	29.000000
1.620000	31.790000	53.660000	752.000000	0.000000	138.000000	58.000000	-16.000000	47.000000
1.630000	31.790000	54.170000	757.000000	0.000000	138.000000	58.000000	0.000000	51.000000
1.640000	31.960000	54.710000	754.000000	0.000000	138.000000	58.000000	17.000000	54.000000
1.650000	32.370000	55.160000	776.000000	0.000000	138.000000	58.000000	41.000000	45.000000
1.660000	32.930000	55.610000	793.000000	0.000000	136.000000	57.000000	56.000000	45.000000
1.670000	33.510000	55.760000	797.000000	0.000000	136.000000	57.000000	58.000000	15.000000
1.680000	33.940000	55.710000	834.000000	0.000000	136.000000	57.000000	43.000000	-5.000000
1.690000	34.260000	55.380000	855.000000	0.000000	135.000000	58.000000	32.000000	-33.000000
1.700000	34.450000	55.030000	853.000000	0.000000	135.000000	58.000000	19.000000	-35.000000
1.710000	34.530000	54.650000	861.000000	0.000000	135.000000	58.000000	8.000000	-38.000000
1.720000	34.530000	54.310000	867.000000	0.000000	135.000000	58.000000	0.000000	-34.000000
1.730000	34.320000	54.010000	870.000000	0.000000	135.000000	58.000000	-21.000000	-30.000000
1.740000	34.120000	53.820000	869.000000	0.000000	136.000000	57.000000	-20.000000	-19.000000
1.750000	33.920000	53.710000	839.000000	0.000000	136.000000	57.000000	-20.000000	-11.000000
1.760000	33.860000	53.660000	777.000000	0.000000	136.000000	57.000000	-6.000000	-5.000000
1.770000	33.860000	53.660000	716.000000	0.000000	136.000000	57.000000	0.000000	0.000000
1.780000	34.040000	53.660000	696.000000	0.000000	136.000000	57.000000	18.000000	0.000000
1.790000	34.340000	53.580000	691.000000	0.000000	138.000000	58.000000	30.000000	-8.000000
1.800000	34.850000	53.470000	670.000000	0.000000	139.000000	57.000000	51.000000	-11.000000
1.810000	35.270000	53.340000	636.000000	0.000000	139.000000	57.000000	42.000000	-13.000000
1.820000	35.620000	53.100000	570.000000	0.000000	140.000000	58.000000	35.000000	-24.000000
1.830000	35.840000	52.820000	430.000000	0.000000	140.000000	58.000000	22.000000	-28.000000
1.840000	35.790000	52.450000	119.000000	0.000000	142.000000	58.000000	-5.000000	-37.000000
1.850000	35.790000	52.450000	0.000000	1.000000	141.000000	59.000000	0.000000	0.000000
1.860000	34.980000	51.530000	0.000000	0.000000	142.000000	59.000000	-81.000000	-92.000000
1.870000	34.240000	51.080000	0.000000	0.000000	142.000000	59.000000	-74.000000	-45.000000
1.880000	33.380000	50.680000	0.000000	0.000000	142.000000	59.000000	-86.000000	-40.000000
1.890000	32.190000	50.330000	0.000000	0.000000	142.000000	59.000000	-119.000000	-35.000000
1.900000	30.740000	50.030000	0.000000	0.000000	139.000000	60.000000	-145.000000	-30.000000
1.910000	29.110000	49.830000	0.000000	0.000000	139.000000	60.000000	-163.000000	-20.000000
1.920000	27.900000	49.470000	0.000000	0.000000	138.000000	59.000000	-121.000000	-36.000000
1.930000	27.000000	49.010000	0.000000	0.000000	136.000000	60.000000	-90.000000	-46.000000
1.940000	26.300000	48.620000	0.000000	0.000000	136.000000	60.000000	-70.000000	-39.000000
1.950000	26.030000	48.470000	0.000000	0.000000	134.000000	60.000000	-27.000000	-15.000000
1.960000	26.230000	48.470000	0.000000	0.000000	134.000000	60.000000	20.000000	0.000000
1.970000	26.740000	48.650000	0.000000	0.000000	132.000000	60.000000	51.000000	18.000000
1.980000	27.560000	48.970000	0.000000	0.000000	132.000000	60.000000	82.000000	32.000000
1.990000	28.540000	49.400000	0.000000	0.000000	132.000000	60.000000	98.000000	43.000000
2.000000	29.620000	49.710000	0.000000	0.000000	132.000000	60.000000	108.000000	31.000000
2.010000	30.450000	49.710000	0.000000	0.000000	132.000000	60.000000	83.000000	0.000000
2.020000	30.450000	49.710000	173.000000	1.000000	132.000000	60.000000	0.000000	0.000000
2.030000	31.250000	49.130000	369.000000	0.000000	132.000000	60.000000	80.000000	-58.000000
2.040000	31.300000	48.660000	522.000000	0.000000	134.000000	60.000000	5.000000	-47.000000
2.050000	31.140000	48.100000	642.000000	0.000000	134.000000	60.000000	-16.000000	-56.000000
2.060000	30.830000	47.560000	702.000000	0.000000	132.000000	60.000000	-31.000000	-54.000000
2.070000	30.320000	47.030000	727.000000	0.000000	132.000000	60.000000	-51.000000	-53.000000
2.080000	29.560000	46.510000	745.000000	0.000000	132.000000	60.000000	-76.000000	-52.000000
2.090000	28.630000	46.120000	751.000000	0.000000	131.000000	61.000000	-93.000000	-39.000000
2.100000	27.650000	45.820000	750.000000	0.000000	129.000000	61.000000	-98.000000	-30.000000
2.110000	26.370000	45.770000	750.000000	0.000000	129.000000	61.000000	-128.000000	-5.000000
2.120000	24.890000	45.940000	757.000000	0.000000	126.000000	61.000000	-148.000000	17.000000
2.130000	23.550000	46.260000	748.000000	0.000000	126.000000	61.000000	-134.000000	32.000000
2.140000	22.520000	46.750000	755.000000	0.000000	125.000000	60.000000	-103.000000	49.000000
2.150000	21.700000	47.390000	739.000000	0.000000	125.000000	60.000000	-82.000000	64.000000
2.160000	21.540000	48.120000	700.000000	0.000000	125.000000	59.000000	-16.000000	73.000000
2.170000	22.000000	49.170000	627.000000	0.000000	125.000000	59.000000	46.000000	105.000000
2.180000	22.860000	50.380000	605.000000	0.000000	127.000000	59.000000	86.000000	121.000000
2.190000	24.360000	51.710000	610.000000	0.000000	127.000000	57.000000	150.000000	133.000000
2.200000	26.200000	52.430000	670.000000	0.000000	130.000000	58.000000	184.000000	72.000000
2.210000	28.260000	53.170000	728.000000	0.000000	131.000000	57.000000	206.000000	74.000000
