t	x	y	pressure	penup	azimuth	inclination	v_x	v_y
0.000000	95.280000	29.690000	149.000000	1.000000	156.000000	59.000000	0.000000	0.000000
0.010000	95.330000	30.230000	207.000000	0.000000	156.000000	59.000000	5.000000	54.000000
0.020000	95.240000	30.480000	252.000000	0.000000	157.000000	58.000000	-9.000000	25.000000
0.030000	95.240000	30.550000	339.000000	0.000000	157.000000	58.000000	0.000000	7.000000
0.040000	95.240000	30.550000	353.000000	0.000000	157.000000	57.000000	0.000000	0.000000
0.050000	95.240000	30.550000	415.000000	0.000000	157.000000	57.000000	0.000000	0.000000
0.060000	95.320000	30.210000	470.000000	0.000000	157.000000	57.000000	8.000000	-34.000000
0.070000	95.520000	29.690000	522.000000	0.000000	158.000000	56.000000	20.000000	-52.000000
0.080000	95.790000	28.930000	545.000000	0.000000	159.000000	57.000000	27.000000	-76.000000
0.090000	96.090000	28.100000	563.000000	0.000000	159.000000	57.000000	30.000000	-83.000000
0.100000	96.390000	27.150000	581.000000	0.000000	159.000000	57.000000	30.000000	-95.000000
0.110000	96.700000	26.470000	592.000000	0.000000	160.000000	58.000000	31.000000	-68.000000
0.120000	97.020000	25.990000	605.000000	0.000000	159.000000	59.000000	32.000000	-48.000000
0.130000	97.250000	25.690000	628.000000	0.000000	160.000000	60.000000	23.000000	-30.000000
0.140000	97.430000	25.640000	670.000000	0.000000	160.000000	60.000000	18.000000	-5.000000
0.150000	97.540000	25.750000	714.000000	0.000000	161.000000	62.000000	11.000000	11.000000
0.160000	97.710000	26.090000	737.000000	0.000000	160.000000	63.000000	17.000000	34.000000
0.170000	97.960000	26.730000	755.000000	0.000000	162.000000	63.000000	25.000000	64.000000
0.180000	98.220000	27.570000	754.000000	0.000000	162.000000	63.000000	26.000000	84.000000
0.190000	98.430000	28.640000	759.000000	0.000000	162.000000	63.000000	21.000000	107.000000
0.200000	98.610000	29.700000	757.000000	0.000000	163.000000	62.000000	18.000000	106.000000
0.210000	98.660000	30.730000	754.000000	0.000000	163.000000	62.000000	5.000000	103.000000
0.220000	98.710000	31.760000	731.000000	0.000000	163.000000	61.000000	5.000000	103.000000
0.230000	98.780000	32.800000	724.000000	0.000000	162.000000	60.000000	7.000000	104.000000
0.240000	98.850000	33.420000	697.000000	0.000000	163.000000	59.000000	7.000000	62.000000
0.250000	98.850000	33.690000	592.000000	0.000000	165.000000	58.000000	0.000000	27.000000
0.260000	98.850000	33.740000	361.000000	0.000000	165.000000	58.000000	0.000000	5.000000
0.270000	98.850000	33.740000	0.000000	1.000000	166.000000	57.000000	0.000000	0.000000
0.280000	98.850000	33.520000	0.000000	0.000000	167.000000	57.000000	0.000000	-22.000000
0.290000	98.850000	33.190000	0.000000	0.000000	167.000000	57.000000	0.000000	-33.000000
0.300000	98.850000	32.850000	0.000000	0.000000	169.000000	57.000000	0.000000	-34.000000
0.310000	98.850000	32.510000	0.000000	0.000000	169.000000	57.000000	0.000000	-34.000000
0.320000	98.960000	32.170000	0.000000	0.000000	169.000000	57.000000	11.000000	-34.000000
0.330000	99.080000	31.820000	0.000000	0.000000	171.000000	57.000000	12.000000	-35.000000
0.340000	99.220000	31.440000	0.000000	0.000000	171.000000	57.000000	14.000000	-38.000000
0.350000	99.360000	31.030000	0.000000	0.000000	171.000000	57.000000	14.000000	-41.000000
0.360000	99.510000	30.610000	0.000000	0.000000	171.000000	57.000000	15.000000	-42.000000
0.370000	99.620000	30.210000	0.000000	0.000000	170.000000	58.000000	11.000000	-40.000000
0.380000	99.710000	29.870000	0.000000	0.000000	169.000000	58.000000	9.000000	-34.000000
0.390000	99.800000	29.560000	0.000000	0.000000	167.000000	58.000000	9.000000	-31.000000
0.400000	99.800000	29.320000	0.000000	0.000000	165.000000	58.000000	0.000000	-24.000000
0.410000	99.670000	29.150000	0.000000	0.000000	163.000000	59.000000	-13.000000	-17.000000
0.420000	99.560000	29.040000	0.000000	0.000000	161.000000	60.000000	-11.000000	-11.000000
0.430000	99.470000	28.940000	0.000000	0.000000	159.000000	59.000000	-9.000000	-10.000000
0.440000	99.390000	28.850000	0.000000	0.000000	158.000000	60.000000	-8.000000	-9.000000
0.450000	99.320000	28.760000	0.000000	0.000000	160.000000	60.000000	-7.000000	-9.000000
0.460000	99.320000	28.630000	0.000000	0.000000	161.000000	62.000000	0.000000	-13.000000
0.470000	99.250000	28.530000	0.000000	0.000000	165.000000	62.000000	-7.000000	-10.000000
0.480000	99.490000	28.530000	0.000000	0.000000	166.000000	62.000000	24.000000	0.000000
0.490000	99.770000	28.480000	0.000000	0.000000	168.000000	63.000000	28.000000	-5.000000
0.500000	100.220000	28.480000	0.000000	0.000000	170.000000	63.000000	45.000000	0.000000
0.510000	100.770000	28.480000	0.000000	0.000000	170.000000	63.000000	55.000000	0.000000
0.520000	101.330000	28.480000	0.000000	0.000000	168.000000	63.000000	56.000000	0.000000
0.530000	101.900000	28.480000	0.000000	0.000000	168.000000	63.000000	57.000000	0.000000
0.540000	102.460000	28.400000	0.000000	0.000000	166.000000	62.000000	56.000000	-8.000000
0.550000	102.940000	28.340000	0.000000	0.000000	166.000000	63.000000	48.000000	-6.000000
0.560000	103.360000	28.270000	0.000000	0.000000	164.000000	63.000000	42.000000	-7.000000
0.570000	103.570000	28.270000	0.000000	0.000000	164.000000	63.000000	21.000000	0.000000
0.580000	103.510000	28.200000	0.000000	0.000000	162.000000	63.000000	-6.000000	-7.000000
0.590000	103.270000	28.200000	0.000000	0.000000	162.000000	63.000000	-24.000000	0.000000
0.600000	103.030000	28.200000	0.000000	0.000000	162.000000	63.000000	-24.000000	0.000000
0.610000	102.700000	28.200000	0.000000	0.000000	162.000000	63.000000	-33.000000	0.000000
0.620000	102.300000	28.200000	0.000000	0.000000	162.000000	63.000000	-40.000000	0.000000
0.630000	101.980000	28.200000	0.000000	0.000000	162.000000	63.000000	-32.000000	0.000000
0.640000	101.750000	28.200000	0.000000	0.000000	162.000000	63.000000	-23.000000	0.000000
0.650000	101.590000	28.200000	0.000000	0.000000	162.000000	63.000000	-16.000000	0.000000
0.660000	101.400000	28.250000	0.000000	0.000000	162.000000	63.000000	-19.000000	5.000000
0.670000	101.230000	28.340000	0.000000	0.000000	162.000000	63.000000	-17.000000	9.000000
0.680000	101.120000	28.340000	0.000000	0.000000	162.000000	63.000000	-11.000000	0.000000
0.690000	101.040000	28.340000	0.000000	0.000000	162.000000	63.000000	-8.000000	0.000000
0.700000	101.040000	28.340000	0.000000	0.000000	163.000000	62.000000	0.000000	0.000000
0.710000	101.040000	28.340000	0.000000	0.000000	163.000000	62.000000	0.000000	0.000000
0.720000	101.140000	28.340000	0.000000	0.000000	165.000000	62.000000	10.000000	0.000000
0.730000	101.240000	28.390000	0.000000	0.000000	165.000000	62.000000	10.000000	5.000000
0.740000	101.240000	28.390000	0.000000	0.000000	165.000000	62.000000	0.000000	0.000000
0.750000	101.290000	28.460000	0.000000	0.000000	165.000000	62.000000	5.000000	7.000000
0.760000	101.220000	28.520000	0.000000	0.000000	167.000000	61.000000	-7.000000	6.000000
0.770000	101.120000	28.520000	0.000000	0.000000	167.000000	61.000000	-10.000000	0.000000
0.780000	101.010000	28.520000	0.000000	0.000000	167.000000	61.000000	-11.000000	0.000000
0.790000	100.900000	28.520000	0.000000	0.000000	167.000000	61.000000	-11.000000	0.000000
0.800000	100.900000	28.520000	0.000000	0.000000	169.000000	62.000000	0.000000	0.000000
0.810000	100.900000	28.520000	0.000000	0.000000	169.000000	62.000000	0.000000	0.000000
0.820000	100.610000	28.520000	0.000000	0.000000	169.000000	62.000000	-29.000000	0.000000
0.830000	100.550000	28.580000	0.000000	0.000000	169.000000	61.000000	-6.000000	6.000000
0.840000	100.440000	28.630000	0.000000	0.000000	169.000000	61.000000	-11.000000	5.000000
0.850000	100.290000	28.680000	0.000000	0.000000	169.000000	61.000000	-15.000000	5.000000
0.860000	100.140000	28.740000	0.000000	0.000000	169.000000	61.000000	-15.000000	6.000000
0.870000	99.990000	28.810000	0.000000	0.000000	169.000000	61.000000	-15.000000	7.000000
0.880000	99.860000	28.890000	0.000000	0.000000	169.000000	61.000000	-13.000000	8.000000
0.890000	99.760000	28.970000	0.000000	0.000000	168.000000	60.000000	-10.000000	8.000000
0.900000	99.680000	29.030000	0.000000	0.000000	168.000000	60.000000	-8.000000	6.000000
0.910000	99.610000	29.130000	0.000000	0.000000	168.000000	60.000000	-7.000000	10.000000
0.920000	99.510000	29.260000	0.000000	0.000000	166.000000	60.000000	-10.000000	13.000000
0.930000	99.390000	29.390000	0.000000	0.000000	166.000000	60.000000	-12.000000	13.000000
0.940000	99.300000	29.470000	0.000000	0.000000	166.000000	60.000000	-9.000000	8.000000
0.950000	99.220000	29.550000	0.000000	0.000000	165.000000	59.000000	-8.000000	8.000000
0.960000	99.130000	29.640000	0.000000	0.000000	165.000000	59.000000	-9.000000	9.000000
0.970000	99.060000	29.640000	0.000000	0.000000	165.000000	59.000000	-7.000000	0.000000
0.980000	99.060000	29.730000	0.000000	0.000000	165.000000	59.000000	0.000000	9.000000
0.990000	99.060000	29.790000	0.000000	0.000000	165.000000	58.000000	0.000000	6.000000
1.000000	99.060000	29.790000	0.000000	0.000000	165.000000	58.000000	0.000000	0.000000
1.010000	99.060000	29.790000	108.000000	1.000000	165.000000	58.000000	0.000000	0.000000
1.020000	99.060000	29.790000	184.000000	0.000000	166.000000	57.000000	0.000000	0.000000
1.030000	99.060000	29.790000	255.000000	0.000000	166.000000	57.000000	0.000000	0.000000
1.040000	99.060000	29.790000	304.000000	0.000000	164.000000	57.000000	0.000000	0.000000
1.050000	99.060000	29.790000	305.000000	0.000000	164.000000	57.000000	0.000000	0.000000
1.060000	99.060000	29.790000	334.000000	0.000000	164.000000	57.000000	0.000000	0.000000
1.070000	99.060000	29.790000	371.000000	0.000000	164.000000	57.000000	0.000000	0.000000
1.080000	99.060000	29.790000	420.000000	0.000000	163.000000	57.000000	0.000000	0.000000
1.090000	99.220000	29.180000	453.000000	0.000000	163.000000	57.000000	16.000000	-61.000000
1.100000	99.380000	28.830000	477.000000	0.000000	164.000000	57.000000	16.000000	-35.000000
1.110000	99.540000	28.520000	502.000000	0.000000	164.000000	57.000000	16.000000	-31.000000
1.120000	99.680000	28.230000	522.000000	0.000000	164.000000	58.000000	14.000000	-29.000000
1.130000	99.780000	28.090000	521.000000	0.000000	164.000000	58.000000	10.000000	-14.000000
1.140000	99.880000	28.040000	527.000000	0.000000	165.000000	58.000000	10.000000	-5.000000
1.150000	100.010000	28.040000	538.000000	0.000000	165.000000	59.000000	13.000000	0.000000
1.160000	100.180000	28.140000	527.000000	0.000000	165.000000	59.000000	17.000000	10.000000
1.170000	100.480000	28.330000	481.000000	0.000000	166.000000	59.000000	30.000000	19.000000
1.180000	100.850000	28.570000	366.000000	0.000000	166.000000	59.000000	37.000000	24.000000
1.190000	101.010000	28.700000	99.000000	0.000000	168.000000	59.000000	16.000000	13.000000
1.200000	101.010000	28.700000	0.000000	1.000000	170.000000	60.000000	0.000000	0.000000
1.210000	101.100000	28.760000	0.000000	0.000000	170.000000	60.000000	9.000000	6.000000
1.220000	101.100000	28.760000	0.000000	0.000000	170.000000	60.000000	0.000000	0.000000
1.230000	101.030000	28.760000	0.000000	0.000000	170.000000	60.000000	-7.000000	0.000000
1.240000	101.030000	28.760000	0.000000	0.000000	170.000000	60.000000	0.000000	0.000000
1.250000	101.140000	28.760000	0.000000	0.000000	169.000000	61.000000	11.000000	0.000000
1.260000	101.280000	28.890000	0.000000	0.000000	169.000000	61.000000	14.000000	13.000000
1.270000	101.460000	28.960000	0.000000	0.000000	168.000000	60.000000	18.000000	7.000000
1.280000	101.700000	29.070000	0.000000	0.000000	165.000000	61.000000	24.000000	11.000000
1.290000	101.970000	29.200000	0.000000	0.000000	163.000000	61.000000	27.000000	13.000000
1.300000	102.140000	29.350000	0.000000	0.000000	161.000000	62.000000	17.000000	15.000000
1.310000	102.250000	29.420000	0.000000	0.000000	159.000000	61.000000	11.000000	7.000000
1.320000	102.250000	29.470000	0.000000	0.000000	159.000000	61.000000	0.000000	5.000000
1.330000	102.150000	29.470000	0.000000	0.000000	159.000000	61.000000	-10.000000	0.000000
1.340000	102.050000	29.470000	0.000000	0.000000	157.000000	61.000000	-10.000000	0.000000
1.350000	101.950000	29.520000	0.000000	0.000000	157.000000	61.000000	-10.000000	5.000000
1.360000	101.830000	29.520000	0.000000	0.000000	158.000000	60.000000	-12.000000	0.000000
1.370000	101.700000	29.520000	0.000000	0.000000	158.000000	60.000000	-13.000000	0.000000
1.380000	101.570000	29.520000	0.000000	0.000000	158.000000	60.000000	-13.000000	0.000000
1.390000	101.470000	29.520000	0.000000	0.000000	160.000000	60.000000	-10.000000	0.000000
1.400000	101.470000	29.520000	0.000000	0.000000	160.000000	60.000000	0.000000	0.000000
1.410000	101.470000	29.610000	0.000000	0.000000	161.000000	60.000000	0.000000	9.000000
1.420000	101.580000	29.660000	0.000000	0.000000	161.000000	60.000000	11.000000	5.000000
1.430000	101.660000	29.660000	0.000000	0.000000	162.000000	60.000000	8.000000	0.000000
1.440000	101.730000	29.660000	0.000000	0.000000	162.000000	60.000000	7.000000	0.000000
1.450000	101.810000	29.660000	0.000000	0.000000	162.000000	60.000000	8.000000	0.000000
1.460000	101.900000	29.660000	0.000000	0.000000	162.000000	60.000000	9.000000	0.000000
1.470000	102.000000	29.660000	0.000000	0.000000	162.000000	60.000000	10.000000	0.000000
1.480000	102.090000	29.660000	0.000000	0.000000	162.000000	60.000000	9.000000	0.000000
1.490000	102.180000	29.660000	0.000000	0.000000	162.000000	60.000000	9.000000	0.000000
1.500000	102.290000	29.660000	0.000000	0.000000	162.000000	60.000000	11.000000	0.000000
1.510000	102.360000	29.660000	0.000000	0.000000	162.000000	60.000000	7.000000	0.000000
1.520000	102.360000	29.660000	0.000000	0.000000	162.000000	60.000000	0.000000	0.000000
1.530000	102.450000	29.660000	0.000000	0.000000	162.000000	60.000000	9.000000	0.000000
1.540000	102.450000	29.660000	0.000000	0.000000	162.000000	60.000000	0.000000	0.000000
1.550000	102.450000	29.660000	0.000000	0.000000	162.000000	60.000000	0.000000	0.000000
1.560000	102.510000	29.600000	0.000000	0.000000	162.000000	60.000000	6.000000	-6.000000
1.570000	102.510000	29.600000	0.000000	0.000000	162.000000	60.000000	0.000000	0.000000
1.580000	102.510000	29.600000	0.000000	0.000000	162.000000	60.000000	0.000000	0.000000
1.590000	102.510000	29.600000	0.000000	0.000000	162.000000	60.000000	0.000000	0.000000
1.600000	102.510000	29.600000	0.000000	0.000000	162.000000	60.000000	0.000000	0.000000
1.610000	102.460000	29.600000	0.000000	0.000000	162.000000	60.000000	-5.000000	0.000000
1.620000	102.390000	29.600000	0.000000	0.000000	162.000000	60.000000	-7.000000	0.000000
1.630000	102.390000	29.600000	0.000000	0.000000	162.000000	60.000000	0.000000	0.000000
1.640000	102.390000	29.550000	0.000000	0.000000	162.000000	60.000000	0.000000	-5.000000
1.650000	102.340000	29.550000	0.000000	0.000000	162.000000	60.000000	-5.000000	0.000000
1.660000	102.340000	29.550000	0.000000	0.000000	162.000000	60.000000	0.000000	0.000000
1.670000	102.340000	29.500000	0.000000	0.000000	161.000000	60.000000	0.000000	-5.000000
1.680000	102.340000	29.500000	0.000000	0.000000	161.000000	60.000000	0.000000	0.000000
1.690000	102.280000	29.600000	0.000000	0.000000	161.000000	59.000000	-6.000000	10.000000
1.700000	102.230000	29.680000	0.000000	0.000000	161.000000	59.000000	-5.000000	8.000000
1.710000	102.170000	29.750000	0.000000	0.000000	163.000000	59.000000	-6.000000	7.000000
1.720000	102.120000	29.800000	0.000000	0.000000	163.000000	59.000000	-5.000000	5.000000
1.730000	102.120000	29.850000	0.000000	0.000000	163.000000	59.000000	0.000000	5.000000
1.740000	102.040000	29.850000	0.000000	0.000000	163.000000	59.000000	-8.000000	0.000000
1.750000	102.040000	29.850000	0.000000	0.000000	163.000000	59.000000	0.000000	0.000000
1.760000	101.970000	29.850000	0.000000	0.000000	163.000000	59.000000	-7.000000	0.000000
1.770000	101.970000	29.850000	0.000000	0.000000	163.000000	59.000000	0.000000	0.000000
1.780000	101.900000	29.950000	0.000000	0.000000	163.000000	59.000000	-7.000000	10.000000
1.790000	101.900000	30.040000	0.000000	0.000000	163.000000	59.000000	0.000000	9.000000
1.800000	101.810000	30.110000	0.000000	0.000000	163.000000	59.000000	-9.000000	7.000000
1.810000	101.810000	30.180000	0.000000	0.000000	163.000000	59.000000	0.000000	7.000000
1.820000	101.870000	30.250000	0.000000	0.000000	165.000000	59.000000	6.000000	7.000000
1.830000	101.950000	30.350000	0.000000	0.000000	165.000000	58.000000	8.000000	10.000000
1.840000	102.060000	30.480000	0.000000	0.000000	165.000000	58.000000	11.000000	13.000000
1.850000	102.230000	30.650000	0.000000	0.000000	165.000000	58.000000	17.000000	17.000000
1.860000	102.450000	30.810000	0.000000	0.000000	165.000000	58.000000	22.000000	16.000000
1.870000	102.690000	31.000000	0.000000	0.000000	165.000000	58.000000	24.000000	19.000000
1.880000	102.930000	31.220000	0.000000	0.000000	165.000000	58.000000	24.000000	22.000000
1.890000	103.160000	31.340000	0.000000	0.000000	165.000000	58.000000	23.000000	12.000000
1.900000	103.300000	31.440000	0.000000	0.000000	165.000000	58.000000	14.000000	10.000000
1.910000	103.400000	31.520000	0.000000	0.000000	166.000000	57.000000	10.000000	8.000000
1.920000	103.400000	31.570000	0.000000	0.000000	166.000000	57.000000	0.000000	5.000000
1.930000	103.400000	31.570000	101.000000	1.000000	166.000000	57.000000	0.000000	0.000000
1.940000	103.100000	31.570000	132.000000	0.000000	166.000000	57.000000	-30.000000	0.000000
1.950000	102.870000	31.570000	175.000000	0.000000	166.000000	57.000000	-23.000000	0.000000
1.960000	102.630000	31.470000	247.000000	0.000000	166.000000	57.000000	-24.000000	-10.000000
1.970000	102.380000	31.310000	284.000000	0.000000	167.000000	57.000000	-25.000000	-16.000000
1.980000	102.060000	30.940000	317.000000	0.000000	167.000000	57.000000	-32.000000	-37.000000
1.990000	101.760000	30.420000	346.000000	0.000000	167.000000	57.000000	-30.000000	-52.000000
2.000000	101.500000	29.890000	393.000000	0.000000	169.000000	58.000000	-26.000000	-53.000000
2.010000	101.440000	29.460000	413.000000	0.000000	169.000000	58.000000	-6.000000	-43.000000
2.020000	101.510000	29.100000	449.000000	0.000000	168.000000	58.000000	7.000000	-36.000000
2.030000	101.800000	28.850000	458.000000	0.000000	168.000000	58.000000	29.000000	-25.000000
2.040000	102.290000	28.850000	456.000000	0.000000	168.000000	58.000000	49.000000	0.000000
2.050000	102.900000	29.010000	441.000000	0.000000	168.000000	59.000000	61.000000	16.000000
2.060000	103.670000	29.340000	423.000000	0.000000	168.000000	59.000000	77.000000	33.000000
2.070000	104.440000	29.770000	422.000000	0.000000	168.000000	59.000000	77.000000	43.000000
2.080000	105.040000	30.270000	407.000000	0.000000	168.000000	59.000000	60.000000	50.000000
2.090000	105.510000	30.780000	377.000000	0.000000	166.000000	59.000000	47.000000	51.000000
2.100000	105.840000	31.340000	373.000000	0.000000	166.000000	59.000000	33.000000	56.000000
2.110000	105.970000	31.940000	349.000000	0.000000	166.000000	59.000000	13.000000	60.000000
2.120000	105.970000	32.550000	343.000000	0.000000	165.000000	59.000000	0.000000	61.000000
2.130000	105.820000	33.210000	369.000000	0.000000	165.000000	59.000000	-15.000000	66.000000
2.140000	105.650000	33.900000	362.000000	0.000000	165.000000	58.000000	-17.000000	69.000000
2.150000	105.470000	34.450000	386.000000	0.000000	164.000000	58.000000	-18.000000	55.000000
2.160000	105.210000	34.950000	405.000000	0.000000	164.000000	58.000000	-26.000000	50.000000
2.170000	105.060000	35.240000	436.000000	0.000000	164.000000	58.000000	-15.000000	29.000000
2.180000	104.990000	35.420000	456.000000	0.000000	162.000000	58.000000	-7.000000	18.000000
2.190000	104.990000	35.420000	455.000000	0.000000	162.000000	58.000000	0.000000	0.000000
2.200000	104.990000	35.420000	455.000000	0.000000	162.000000	58.000000	0.000000	0.000000
2.210000	105.060000	35.310000	472.000000	0.000000	162.000000	58.000000	7.000000	-11.000000
2.220000	105.290000	34.840000	488.000000	0.000000	161.000000	57.000000	23.000000	-47.000000
2.230000	105.540000	34.250000	510.000000	0.000000	162.000000	58.000000	25.000000	-59.000000
