t	x	y	pressure	penup	azimuth	inclination	v_x	v_y
0.000000	55.000000	29.740000	96.000000	1.000000	120.000000	54.000000	0.000000	0.000000
0.010000	55.000000	30.040000	217.000000	0.000000	119.000000	53.000000	0.000000	30.000000
0.020000	55.000000	30.110000	292.000000	0.000000	119.000000	53.000000	0.000000	7.000000
0.030000	54.930000	30.110000	341.000000	0.000000	121.000000	53.000000	-7.000000	0.000000
0.040000	54.930000	30.110000	376.000000	0.000000	120.000000	52.000000	0.000000	0.000000
0.050000	54.930000	29.860000	413.000000	0.000000	120.000000	52.000000	0.000000	-25.000000
0.060000	55.090000	29.450000	414.000000	0.000000	121.000000	52.000000	16.000000	-41.000000
0.070000	55.400000	28.840000	428.000000	0.000000	122.000000	53.000000	31.000000	-61.000000
0.080000	55.820000	28.020000	438.000000	0.000000	121.000000	53.000000	42.000000	-82.000000
0.090000	56.360000	27.070000	458.000000	0.000000	121.000000	53.000000	54.000000	-95.000000
0.100000	57.010000	26.410000	496.000000	0.000000	120.000000	54.000000	65.000000	-66.000000
0.110000	57.730000	25.830000	543.000000	0.000000	119.000000	54.000000	72.000000	-58.000000
0.120000	58.220000	25.310000	580.000000	0.000000	117.000000	55.000000	49.000000	-52.000000
0.130000	58.550000	24.940000	620.000000	0.000000	117.000000	56.000000	33.000000	-37.000000
0.140000	58.780000	24.740000	647.000000	0.000000	116.000000	56.000000	23.000000	-20.000000
0.150000	58.920000	24.660000	699.000000	0.000000	115.000000	58.000000	14.000000	-8.000000
0.160000	58.970000	24.660000	791.000000	0.000000	113.000000	58.000000	5.000000	0.000000
0.170000	58.970000	24.660000	858.000000	0.000000	113.000000	59.000000	0.000000	0.000000
0.180000	58.970000	24.740000	906.000000	0.000000	111.000000	59.000000	0.000000	8.000000
0.190000	58.970000	24.950000	929.000000	0.000000	111.000000	59.000000	0.000000	21.000000
0.200000	59.090000	25.540000	938.000000	0.000000	112.000000	60.000000	12.000000	59.000000
0.210000	59.140000	26.390000	948.000000	0.000000	112.000000	60.000000	5.000000	85.000000
0.220000	59.140000	27.220000	933.000000	0.000000	112.000000	60.000000	0.000000	83.000000
0.230000	59.320000	28.080000	935.000000	0.000000	113.000000	60.000000	18.000000	86.000000
0.240000	59.480000	28.950000	933.000000	0.000000	115.000000	60.000000	16.000000	87.000000
0.250000	59.530000	29.390000	950.000000	0.000000	118.000000	60.000000	5.000000	44.000000
0.260000	59.530000	29.770000	933.000000	0.000000	121.000000	59.000000	0.000000	38.000000
0.270000	59.480000	29.890000	906.000000	0.000000	123.000000	59.000000	-5.000000	12.000000
0.280000	59.480000	29.890000	803.000000	0.000000	124.000000	58.000000	0.000000	0.000000
0.290000	59.480000	29.890000	594.000000	0.000000	126.000000	58.000000	0.000000	0.000000
0.300000	59.480000	29.840000	181.000000	0.000000	127.000000	57.000000	0.000000	-5.000000
0.310000	59.480000	29.840000	0.000000	1.000000	128.000000	57.000000	0.000000	0.000000
0.320000	59.420000	29.520000	0.000000	0.000000	128.000000	57.000000	-6.000000	-32.000000
0.330000	59.350000	29.270000	0.000000	0.000000	128.000000	57.000000	-7.000000	-25.000000
0.340000	59.350000	28.980000	0.000000	0.000000	127.000000	56.000000	0.000000	-29.000000
0.350000	59.350000	28.640000	0.000000	0.000000	126.000000	57.000000	0.000000	-34.000000
0.360000	59.430000	28.250000	0.000000	0.000000	125.000000	56.000000	8.000000	-39.000000
0.370000	59.630000	27.850000	0.000000	0.000000	123.000000	56.000000	20.000000	-40.000000
0.380000	59.930000	27.530000	0.000000	0.000000	121.000000	56.000000	30.000000	-32.000000
0.390000	60.210000	27.270000	0.000000	0.000000	120.000000	55.000000	28.000000	-26.000000
0.400000	60.460000	27.040000	0.000000	0.000000	117.000000	55.000000	25.000000	-23.000000
0.410000	60.660000	26.920000	0.000000	0.000000	115.000000	54.000000	20.000000	-12.000000
0.420000	60.740000	26.870000	0.000000	0.000000	114.000000	53.000000	8.000000	-5.000000
0.430000	60.740000	26.930000	0.000000	0.000000	113.000000	54.000000	0.000000	6.000000
0.440000	60.740000	27.040000	0.000000	0.000000	113.000000	54.000000	0.000000	11.000000
0.450000	60.600000	27.190000	0.000000	0.000000	112.000000	53.000000	-14.000000	15.000000
0.460000	60.460000	27.370000	0.000000	0.000000	113.000000	54.000000	-14.000000	18.000000
0.470000	60.310000	27.580000	0.000000	0.000000	113.000000	54.000000	-15.000000	21.000000
0.480000	60.120000	27.820000	0.000000	0.000000	113.000000	54.000000	-19.000000	24.000000
0.490000	59.910000	28.030000	0.000000	0.000000	113.000000	54.000000	-21.000000	21.000000
0.500000	59.720000	28.250000	0.000000	0.000000	114.000000	55.000000	-19.000000	22.000000
0.510000	59.530000	28.480000	0.000000	0.000000	114.000000	55.000000	-19.000000	23.000000
0.520000	59.530000	28.480000	0.000000	0.000000	115.000000	54.000000	0.000000	0.000000
0.530000	59.230000	28.800000	0.000000	0.000000	116.000000	55.000000	-30.000000	32.000000
0.540000	59.170000	28.960000	0.000000	0.000000	117.000000	55.000000	-6.000000	16.000000
0.550000	59.170000	29.130000	0.000000	0.000000	118.000000	56.000000	0.000000	17.000000
0.560000	59.240000	29.290000	0.000000	0.000000	120.000000	55.000000	7.000000	16.000000
0.570000	59.240000	29.350000	0.000000	0.000000	121.000000	56.000000	0.000000	6.000000
0.580000	59.240000	29.350000	0.000000	0.000000	121.000000	56.000000	0.000000	0.000000
0.590000	59.240000	29.350000	0.000000	0.000000	122.000000	56.000000	0.000000	0.000000
0.600000	59.240000	29.350000	1.000000	0.000000	123.000000	56.000000	0.000000	0.000000
0.610000	59.240000	29.350000	50.000000	1.000000	123.000000	56.000000	0.000000	0.000000
0.620000	58.960000	29.350000	172.000000	0.000000	125.000000	56.000000	-28.000000	0.000000
0.630000	58.850000	29.350000	242.000000	0.000000	125.000000	56.000000	-11.000000	0.000000
0.640000	58.850000	29.440000	310.000000	0.000000	125.000000	56.000000	0.000000	9.000000
0.650000	58.850000	29.510000	361.000000	0.000000	125.000000	56.000000	0.000000	7.000000
0.660000	58.850000	29.590000	412.000000	0.000000	125.000000	56.000000	0.000000	8.000000
0.670000	58.970000	29.710000	438.000000	0.000000	126.000000	56.000000	12.000000	12.000000
0.680000	59.180000	29.860000	448.000000	0.000000	126.000000	56.000000	21.000000	15.000000
0.690000	59.440000	29.980000	455.000000	0.000000	126.000000	56.000000	26.000000	12.000000
0.700000	59.640000	30.090000	456.000000	0.000000	126.000000	56.000000	20.000000	11.000000
0.710000	59.800000	30.170000	456.000000	0.000000	126.000000	56.000000	16.000000	8.000000
0.720000	59.930000	30.220000	440.000000	0.000000	127.000000	56.000000	13.000000	5.000000
0.730000	60.010000	30.220000	397.000000	0.000000	127.000000	56.000000	8.000000	0.000000
0.740000	60.010000	30.170000	285.000000	0.000000	127.000000	56.000000	0.000000	-5.000000
0.750000	60.100000	30.110000	73.000000	0.000000	127.000000	56.000000	9.000000	-6.000000
0.760000	60.100000	30.110000	0.000000	1.000000	127.000000	56.000000	0.000000	0.000000
0.770000	60.010000	29.820000	0.000000	0.000000	127.000000	56.000000	-9.000000	-29.000000
0.780000	59.920000	29.650000	0.000000	0.000000	127.000000	56.000000	-9.000000	-17.000000
0.790000	59.920000	29.550000	0.000000	0.000000	126.000000	56.000000	0.000000	-10.000000
0.800000	59.920000	29.490000	0.000000	0.000000	125.000000	56.000000	0.000000	-6.000000
0.810000	60.110000	29.410000	0.000000	0.000000	124.000000	55.000000	19.000000	-8.000000
0.820000	60.350000	29.340000	0.000000	0.000000	124.000000	55.000000	24.000000	-7.000000
0.830000	60.710000	29.250000	0.000000	0.000000	121.000000	55.000000	36.000000	-9.000000
0.840000	61.100000	29.110000	0.000000	0.000000	120.000000	54.000000	39.000000	-14.000000
0.850000	61.470000	28.930000	0.000000	0.000000	118.000000	54.000000	37.000000	-18.000000
0.860000	61.470000	28.930000	0.000000	0.000000	118.000000	54.000000	0.000000	0.000000
0.870000	61.630000	28.540000	0.000000	0.000000	116.000000	53.000000	16.000000	-39.000000
0.880000	61.630000	28.370000	0.000000	0.000000	116.000000	53.000000	0.000000	-17.000000
0.890000	61.580000	28.220000	0.000000	0.000000	114.000000	53.000000	-5.000000	-15.000000
0.900000	61.480000	28.090000	0.000000	0.000000	114.000000	53.000000	-10.000000	-13.000000
0.910000	61.420000	28.030000	0.000000	0.000000	114.000000	53.000000	-6.000000	-6.000000
0.920000	61.370000	28.030000	0.000000	0.000000	114.000000	53.000000	-5.000000	0.000000
0.930000	61.370000	28.030000	0.000000	0.000000	114.000000	53.000000	0.000000	0.000000
0.940000	61.370000	28.030000	0.000000	0.000000	114.000000	53.000000	0.000000	0.000000
0.950000	61.370000	28.030000	0.000000	0.000000	114.000000	53.000000	0.000000	0.000000
0.960000	61.370000	28.030000	0.000000	0.000000	114.000000	53.000000	0.000000	0.000000
0.970000	61.370000	28.030000	0.000000	0.000000	114.000000	53.000000	0.000000	0.000000
0.980000	61.370000	28.100000	0.000000	0.000000	114.000000	53.000000	0.000000	7.000000
0.990000	61.420000	28.160000	0.000000	0.000000	114.000000	53.000000	5.000000	6.000000
1.000000	61.420000	28.160000	0.000000	0.000000	114.000000	53.000000	0.000000	0.000000
1.010000	61.420000	28.230000	0.000000	0.000000	115.000000	54.000000	0.000000	7.000000
1.020000	61.420000	28.230000	0.000000	0.000000	115.000000	54.000000	0.000000	0.000000
1.030000	61.420000	28.230000	0.000000	0.000000	115.000000	54.000000	0.000000	0.000000
1.040000	61.420000	28.230000	0.000000	0.000000	117.000000	54.000000	0.000000	0.000000
1.050000	61.360000	28.180000	0.000000	0.000000	117.000000	54.000000	-6.000000	-5.000000
1.060000	61.360000	28.180000	0.000000	0.000000	117.000000	54.000000	0.000000	0.000000
1.070000	61.360000	28.180000	0.000000	0.000000	117.000000	54.000000	0.000000	0.000000
1.080000	61.450000	28.230000	0.000000	0.000000	117.000000	55.000000	9.000000	5.000000
1.090000	61.450000	28.230000	0.000000	0.000000	117.000000	55.000000	0.000000	0.000000
1.100000	61.450000	28.230000	139.000000	1.000000	117.000000	55.000000	0.000000	0.000000
1.110000	61.450000	28.230000	205.000000	0.000000	117.000000	55.000000	0.000000	0.000000
1.120000	61.450000	28.230000	274.000000	0.000000	120.000000	55.000000	0.000000	0.000000
1.130000	61.450000	28.230000	337.000000	0.000000	120.000000	55.000000	0.000000	0.000000
1.140000	61.530000	27.810000	379.000000	0.000000	120.000000	55.000000	8.000000	-42.000000
1.150000	61.630000	27.540000	422.000000	0.000000	120.000000	55.000000	10.000000	-27.000000
1.160000	61.750000	27.220000	467.000000	0.000000	118.000000	56.000000	12.000000	-32.000000
1.170000	61.890000	26.860000	512.000000	0.000000	118.000000	56.000000	14.000000	-36.000000
1.180000	62.050000	26.550000	545.000000	0.000000	117.000000	56.000000	16.000000	-31.000000
1.190000	62.240000	26.270000	553.000000	0.000000	116.000000	56.000000	19.000000	-28.000000
1.200000	62.340000	26.020000	557.000000	0.000000	114.000000	57.000000	10.000000	-25.000000
1.210000	62.340000	25.810000	557.000000	0.000000	113.000000	57.000000	0.000000	-21.000000
1.220000	62.400000	25.630000	544.000000	0.000000	113.000000	57.000000	6.000000	-18.000000
1.230000	62.400000	25.530000	488.000000	0.000000	111.000000	57.000000	0.000000	-10.000000
1.240000	62.400000	25.530000	371.000000	0.000000	109.000000	57.000000	0.000000	0.000000
1.250000	62.400000	25.480000	55.000000	0.000000	109.000000	57.000000	0.000000	-5.000000
1.260000	62.400000	25.480000	0.000000	1.000000	108.000000	58.000000	0.000000	0.000000
1.270000	62.400000	25.610000	0.000000	0.000000	108.000000	58.000000	0.000000	13.000000
1.280000	62.450000	25.760000	0.000000	0.000000	107.000000	57.000000	5.000000	15.000000
1.290000	62.530000	25.970000	0.000000	0.000000	107.000000	57.000000	8.000000	21.000000
1.300000	62.750000	26.240000	0.000000	0.000000	107.000000	57.000000	22.000000	27.000000
1.310000	63.090000	26.540000	0.000000	0.000000	107.000000	57.000000	34.000000	30.000000
1.320000	63.520000	26.820000	0.000000	0.000000	107.000000	57.000000	43.000000	28.000000
1.330000	64.000000	27.090000	0.000000	0.000000	109.000000	57.000000	48.000000	27.000000
1.340000	64.480000	27.340000	0.000000	0.000000	109.000000	57.000000	48.000000	25.000000
1.350000	64.960000	27.570000	0.000000	0.000000	110.000000	55.000000	48.000000	23.000000
1.360000	65.440000	27.790000	0.000000	0.000000	112.000000	56.000000	48.000000	22.000000
1.370000	65.820000	27.990000	0.000000	0.000000	113.000000	56.000000	38.000000	20.000000
1.380000	66.120000	28.180000	0.000000	0.000000	115.000000	55.000000	30.000000	19.000000
1.390000	66.250000	28.370000	0.000000	0.000000	116.000000	56.000000	13.000000	19.000000
1.400000	66.250000	28.520000	0.000000	0.000000	117.000000	56.000000	0.000000	15.000000
1.410000	66.250000	28.680000	0.000000	0.000000	118.000000	56.000000	0.000000	16.000000
1.420000	66.180000	28.830000	0.000000	0.000000	118.000000	56.000000	-7.000000	15.000000
1.430000	66.180000	28.830000	148.000000	1.000000	119.000000	56.000000	0.000000	0.000000
1.440000	65.850000	29.080000	233.000000	0.000000	121.000000	56.000000	-33.000000	25.000000
1.450000	65.630000	29.150000	327.000000	0.000000	121.000000	56.000000	-22.000000	7.000000
1.460000	65.380000	29.150000	441.000000	0.000000	122.000000	56.000000	-25.000000	0.000000
1.470000	65.110000	29.100000	509.000000	0.000000	121.000000	55.000000	-27.000000	-5.000000
1.480000	64.860000	28.980000	546.000000	0.000000	121.000000	55.000000	-25.000000	-12.000000
1.490000	64.610000	28.810000	583.000000	0.000000	123.000000	55.000000	-25.000000	-17.000000
1.500000	64.420000	28.600000	588.000000	0.000000	121.000000	55.000000	-19.000000	-21.000000
1.510000	64.320000	28.360000	602.000000	0.000000	121.000000	55.000000	-10.000000	-24.000000
1.520000	64.250000	28.030000	609.000000	0.000000	120.000000	54.000000	-7.000000	-33.000000
1.530000	64.350000	27.650000	616.000000	0.000000	119.000000	54.000000	10.000000	-38.000000
1.540000	64.560000	27.280000	620.000000	0.000000	119.000000	54.000000	21.000000	-37.000000
1.550000	64.910000	27.050000	613.000000	0.000000	117.000000	54.000000	35.000000	-23.000000
1.560000	65.430000	26.920000	613.000000	0.000000	115.000000	54.000000	52.000000	-13.000000
1.570000	66.070000	26.980000	620.000000	0.000000	116.000000	55.000000	64.000000	6.000000
1.580000	66.750000	27.140000	581.000000	0.000000	115.000000	55.000000	68.000000	16.000000
1.590000	67.380000	27.360000	483.000000	0.000000	115.000000	55.000000	63.000000	22.000000
1.600000	67.970000	27.630000	191.000000	0.000000	116.000000	56.000000	59.000000	27.000000
1.610000	67.970000	27.630000	0.000000	1.000000	116.000000	56.000000	0.000000	0.000000
1.620000	68.430000	28.150000	0.000000	0.000000	116.000000	56.000000	46.000000	52.000000
1.630000	68.430000	28.400000	0.000000	0.000000	116.000000	57.000000	0.000000	25.000000
1.640000	68.380000	28.680000	0.000000	0.000000	116.000000	57.000000	-5.000000	28.000000
1.650000	68.380000	29.110000	0.000000	0.000000	118.000000	57.000000	0.000000	43.000000
1.660000	68.460000	29.620000	0.000000	0.000000	119.000000	56.000000	8.000000	51.000000
1.670000	68.660000	30.130000	0.000000	0.000000	119.000000	56.000000	20.000000	51.000000
1.680000	68.920000	30.590000	0.000000	0.000000	121.000000	56.000000	26.000000	46.000000
1.690000	69.060000	30.950000	0.000000	0.000000	122.000000	56.000000	14.000000	36.000000
1.700000	69.160000	31.270000	0.000000	0.000000	122.000000	56.000000	10.000000	32.000000
1.710000	69.220000	31.570000	0.000000	0.000000	124.000000	55.000000	6.000000	30.000000
1.720000	69.220000	31.850000	0.000000	0.000000	124.000000	55.000000	0.000000	28.000000
1.730000	69.220000	32.080000	0.000000	0.000000	125.000000	56.000000	0.000000	23.000000
1.740000	69.220000	32.080000	51.000000	1.000000	126.000000	56.000000	0.000000	0.000000
1.750000	69.220000	32.080000	244.000000	0.000000	126.000000	56.000000	0.000000	0.000000
1.760000	69.220000	32.080000	304.000000	0.000000	127.000000	56.000000	0.000000	0.000000
1.770000	69.220000	32.080000	359.000000	0.000000	127.000000	56.000000	0.000000	0.000000
1.780000	69.220000	32.080000	392.000000	0.000000	128.000000	57.000000	0.000000	0.000000
1.790000	69.170000	31.820000	448.000000	0.000000	128.000000	57.000000	-5.000000	-26.000000
1.800000	69.170000	31.300000	466.000000	0.000000	128.000000	57.000000	0.000000	-52.000000
1.810000	69.170000	30.610000	468.000000	0.000000	128.000000	57.000000	0.000000	-69.000000
1.820000	69.230000	29.930000	470.000000	0.000000	128.000000	57.000000	6.000000	-68.000000
1.830000	69.450000	29.260000	472.000000	0.000000	128.000000	57.000000	22.000000	-67.000000
1.840000	69.750000	28.760000	469.000000	0.000000	127.000000	57.000000	30.000000	-50.000000
1.850000	70.040000	28.360000	438.000000	0.000000	127.000000	57.000000	29.000000	-40.000000
1.860000	70.270000	28.100000	336.000000	0.000000	127.000000	57.000000	23.000000	-26.000000
1.870000	70.470000	27.990000	170.000000	0.000000	126.000000	58.000000	20.000000	-11.000000
1.880000	70.470000	27.990000	0.000000	1.000000	126.000000	58.000000	0.000000	0.000000
1.890000	70.450000	28.070000	0.000000	0.000000	124.000000	58.000000	-2.000000	8.000000
1.900000	70.310000	28.270000	0.000000	0.000000	124.000000	58.000000	-14.000000	20.000000
1.910000	70.040000	28.550000	0.000000	0.000000	124.000000	58.000000	-27.000000	28.000000
1.920000	69.720000	28.930000	0.000000	0.000000	124.000000	58.000000	-32.000000	38.000000
1.930000	69.370000	29.380000	0.000000	0.000000	124.000000	58.000000	-35.000000	45.000000
1.940000	68.900000	29.870000	0.000000	0.000000	124.000000	58.000000	-47.000000	49.000000
1.950000	68.340000	30.440000	0.000000	0.000000	123.000000	58.000000	-56.000000	57.000000
1.960000	67.720000	30.960000	0.000000	0.000000	124.000000	57.000000	-62.000000	52.000000
1.970000	67.120000	31.460000	0.000000	0.000000	124.000000	57.000000	-60.000000	50.000000
1.980000	66.570000	31.620000	0.000000	0.000000	125.000000	56.000000	-55.000000	16.000000
1.990000	66.110000	31.620000	0.000000	0.000000	125.000000	56.000000	-46.000000	0.000000
2.000000	65.730000	31.620000	0.000000	0.000000	126.000000	56.000000	-38.000000	0.000000
2.010000	65.440000	31.620000	0.000000	0.000000	125.000000	55.000000	-29.000000	0.000000
2.020000	65.440000	31.620000	186.000000	1.000000	125.000000	55.000000	0.000000	0.000000
2.030000	65.440000	31.620000	207.000000	0.000000	126.000000	54.000000	0.000000	0.000000
2.040000	65.310000	31.940000	299.000000	0.000000	125.000000	54.000000	-13.000000	32.000000
2.050000	65.550000	32.100000	389.000000	0.000000	125.000000	54.000000	24.000000	16.000000
2.060000	65.930000	32.350000	480.000000	0.000000	124.000000	54.000000	38.000000	25.000000
2.070000	66.620000	32.650000	542.000000	0.000000	123.000000	53.000000	69.000000	30.000000
2.080000	67.480000	33.060000	561.000000	0.000000	124.000000	54.000000	86.000000	41.000000
2.090000	68.450000	33.430000	567.000000	0.000000	124.000000	54.000000	97.000000	37.000000
2.100000	69.030000	33.630000	566.000000	0.000000	125.000000	55.000000	58.000000	20.000000
2.110000	69.490000	33.730000	512.000000	0.000000	126.000000	56.000000	46.000000	10.000000
2.120000	69.880000	33.780000	336.000000	0.000000	127.000000	56.000000	39.000000	5.000000
2.130000	69.880000	33.780000	0.000000	1.000000	128.000000	57.000000	0.000000	0.000000
2.140000	70.320000	33.710000	0.000000	0.000000	130.000000	58.000000	44.000000	-7.000000
2.150000	70.440000	33.640000	0.000000	0.000000	131.000000	58.000000	12.000000	-7.000000
2.160000	70.620000	33.570000	0.000000	0.000000	131.000000	58.000000	18.000000	-7.000000
2.170000	70.840000	33.490000	0.000000	0.000000	131.000000	58.000000	22.000000	-8.000000
2.180000	71.160000	33.290000	0.000000	0.000000	131.000000	58.000000	32.000000	-20.000000
2.190000	71.560000	32.920000	0.000000	0.000000	131.000000	58.000000	40.000000	-37.000000
2.200000	72.000000	32.450000	0.000000	0.000000	130.000000	58.000000	44.000000	-47.000000
2.210000	72.400000	31.920000	0.000000	0.000000	128.000000	57.000000	40.000000	-53.000000
2.220000	72.640000	31.440000	0.000000	0.000000	129.000000	56.000000	24.000000	-48.000000
2.230000	72.790000	30.990000	0.000000	0.000000	127.000000	55.000000	15.000000	-45.000000
2.240000	72.790000	30.580000	0.000000	0.000000	126.000000	54.000000	0.000000	-41.000000
