t	x	y	pressure	penup	azimuth	inclination	v_x	v_y
0.000000	94.220000	64.250000	122.000000	1.000000	158.000000	56.000000	0.000000	0.000000
0.010000	94.330000	64.650000	179.000000	0.000000	157.000000	57.000000	11.000000	40.000000
0.020000	94.230000	64.810000	212.000000	0.000000	159.000000	57.000000	-10.000000	16.000000
0.030000	94.230000	64.880000	249.000000	0.000000	159.000000	57.000000	0.000000	7.000000
0.040000	94.300000	64.880000	289.000000	0.000000	161.000000	57.000000	7.000000	0.000000
0.050000	94.300000	64.680000	309.000000	0.000000	161.000000	57.000000	0.000000	-20.000000
0.060000	94.420000	64.310000	348.000000	0.000000	161.000000	57.000000	12.000000	-37.000000
0.070000	94.620000	63.660000	371.000000	0.000000	161.000000	57.000000	20.000000	-65.000000
0.080000	94.880000	63.010000	398.000000	0.000000	161.000000	57.000000	26.000000	-65.000000
0.090000	95.080000	62.360000	405.000000	0.000000	161.000000	57.000000	20.000000	-65.000000
0.100000	95.320000	61.810000	417.000000	0.000000	159.000000	57.000000	24.000000	-55.000000
0.110000	95.590000	61.380000	425.000000	0.000000	159.000000	57.000000	27.000000	-43.000000
0.120000	95.850000	61.020000	428.000000	0.000000	159.000000	57.000000	26.000000	-36.000000
0.130000	96.110000	60.870000	449.000000	0.000000	157.000000	57.000000	26.000000	-15.000000
0.140000	96.380000	60.870000	474.000000	0.000000	157.000000	57.000000	27.000000	0.000000
0.150000	96.650000	61.010000	485.000000	0.000000	157.000000	58.000000	27.000000	14.000000
0.160000	96.920000	61.340000	492.000000	0.000000	157.000000	58.000000	27.000000	33.000000
0.170000	97.160000	61.800000	529.000000	0.000000	157.000000	58.000000	24.000000	46.000000
0.180000	97.380000	62.340000	551.000000	0.000000	157.000000	58.000000	22.000000	54.000000
0.190000	97.600000	63.050000	570.000000	0.000000	158.000000	58.000000	22.000000	71.000000
0.200000	97.810000	63.910000	560.000000	0.000000	158.000000	58.000000	21.000000	86.000000
0.210000	97.920000	64.880000	543.000000	0.000000	158.000000	58.000000	11.000000	97.000000
0.220000	97.970000	65.590000	526.000000	0.000000	158.000000	58.000000	5.000000	71.000000
0.230000	98.040000	66.000000	443.000000	0.000000	160.000000	58.000000	7.000000	41.000000
0.240000	98.040000	66.200000	225.000000	0.000000	160.000000	58.000000	0.000000	20.000000
0.250000	98.040000	66.200000	0.000000	1.000000	160.000000	58.000000	0.000000	0.000000
0.260000	97.910000	66.370000	0.000000	0.000000	161.000000	59.000000	-13.000000	17.000000
0.270000	97.780000	66.500000	0.000000	0.000000	161.000000	59.000000	-13.000000	13.000000
0.280000	97.670000	66.670000	0.000000	0.000000	163.000000	59.000000	-11.000000	17.000000
0.290000	97.670000	66.670000	0.000000	0.000000	163.000000	59.000000	0.000000	0.000000
0.300000	97.670000	66.670000	0.000000	0.000000	164.000000	58.000000	0.000000	0.000000
0.310000	98.000000	66.750000	0.000000	0.000000	166.000000	57.000000	33.000000	8.000000
0.320000	98.340000	66.470000	0.000000	0.000000	168.000000	56.000000	34.000000	-28.000000
0.330000	98.740000	66.070000	0.000000	0.000000	170.000000	56.000000	40.000000	-40.000000
0.340000	99.310000	65.580000	0.000000	0.000000	170.000000	55.000000	57.000000	-49.000000
0.350000	99.980000	65.090000	0.000000	0.000000	169.000000	53.000000	67.000000	-49.000000
0.360000	100.590000	64.610000	0.000000	0.000000	168.000000	53.000000	61.000000	-48.000000
0.370000	101.150000	64.160000	0.000000	0.000000	166.000000	53.000000	56.000000	-45.000000
0.380000	101.680000	63.720000	0.000000	0.000000	165.000000	53.000000	53.000000	-44.000000
0.390000	102.060000	63.380000	0.000000	0.000000	162.000000	54.000000	38.000000	-34.000000
0.400000	102.220000	63.080000	0.000000	0.000000	160.000000	53.000000	16.000000	-30.000000
0.410000	102.220000	62.820000	0.000000	0.000000	157.000000	54.000000	0.000000	-26.000000
0.420000	101.970000	62.600000	0.000000	0.000000	155.000000	54.000000	-25.000000	-22.000000
0.430000	101.700000	62.490000	0.000000	0.000000	155.000000	54.000000	-27.000000	-11.000000
0.440000	101.410000	62.490000	0.000000	0.000000	154.000000	55.000000	-29.000000	0.000000
0.450000	101.020000	62.440000	0.000000	0.000000	154.000000	55.000000	-39.000000	-5.000000
0.460000	100.620000	62.440000	0.000000	0.000000	155.000000	55.000000	-40.000000	0.000000
0.470000	100.200000	62.440000	0.000000	0.000000	155.000000	55.000000	-42.000000	0.000000
0.480000	99.770000	62.520000	0.000000	0.000000	155.000000	55.000000	-43.000000	8.000000
0.490000	99.350000	62.520000	0.000000	0.000000	157.000000	56.000000	-42.000000	0.000000
0.500000	99.050000	62.590000	0.000000	0.000000	157.000000	56.000000	-30.000000	7.000000
0.510000	98.840000	62.590000	0.000000	0.000000	158.000000	56.000000	-21.000000	0.000000
0.520000	98.730000	62.520000	0.000000	0.000000	160.000000	56.000000	-11.000000	-7.000000
0.530000	98.660000	62.520000	0.000000	0.000000	161.000000	57.000000	-7.000000	0.000000
0.540000	98.660000	62.430000	0.000000	0.000000	163.000000	57.000000	0.000000	-9.000000
0.550000	98.590000	62.360000	0.000000	0.000000	163.000000	57.000000	-7.000000	-7.000000
0.560000	98.510000	62.260000	0.000000	0.000000	164.000000	57.000000	-8.000000	-10.000000
0.570000	98.420000	62.110000	0.000000	0.000000	164.000000	57.000000	-9.000000	-15.000000
0.580000	98.420000	61.950000	0.000000	0.000000	164.000000	57.000000	0.000000	-16.000000
0.590000	98.340000	61.790000	0.000000	0.000000	164.000000	57.000000	-8.000000	-16.000000
0.600000	98.340000	61.660000	0.000000	0.000000	163.000000	57.000000	0.000000	-13.000000
0.610000	98.340000	61.560000	0.000000	0.000000	162.000000	58.000000	0.000000	-10.000000
0.620000	98.340000	61.490000	0.000000	0.000000	162.000000	58.000000	0.000000	-7.000000
0.630000	98.340000	61.490000	0.000000	0.000000	161.000000	57.000000	0.000000	0.000000
0.640000	98.340000	61.430000	0.000000	0.000000	161.000000	57.000000	0.000000	-6.000000
0.650000	98.340000	61.430000	0.000000	0.000000	161.000000	57.000000	0.000000	0.000000
0.660000	98.340000	61.430000	0.000000	0.000000	161.000000	57.000000	0.000000	0.000000
0.670000	98.400000	61.430000	0.000000	0.000000	161.000000	57.000000	6.000000	0.000000
0.680000	98.400000	61.430000	0.000000	0.000000	159.000000	57.000000	0.000000	0.000000
0.690000	98.400000	61.430000	0.000000	0.000000	159.000000	57.000000	0.000000	0.000000
0.700000	98.400000	61.520000	0.000000	0.000000	159.000000	57.000000	0.000000	9.000000
0.710000	98.400000	61.600000	0.000000	0.000000	159.000000	57.000000	0.000000	8.000000
0.720000	98.400000	61.680000	0.000000	0.000000	159.000000	57.000000	0.000000	8.000000
0.730000	98.400000	61.750000	0.000000	0.000000	159.000000	57.000000	0.000000	7.000000
0.740000	98.400000	61.810000	0.000000	0.000000	159.000000	57.000000	0.000000	6.000000
0.750000	98.400000	61.870000	0.000000	0.000000	159.000000	57.000000	0.000000	6.000000
0.760000	98.400000	61.940000	0.000000	0.000000	159.000000	57.000000	0.000000	7.000000
0.770000	98.400000	61.990000	0.000000	0.000000	159.000000	57.000000	0.000000	5.000000
0.780000	98.400000	61.990000	0.000000	0.000000	159.000000	57.000000	0.000000	0.000000
0.790000	98.400000	61.990000	0.000000	0.000000	157.000000	57.000000	0.000000	0.000000
0.800000	98.400000	62.040000	0.000000	0.000000	157.000000	57.000000	0.000000	5.000000
0.810000	98.400000	62.040000	0.000000	0.000000	157.000000	57.000000	0.000000	0.000000
0.820000	98.400000	62.090000	0.000000	0.000000	157.000000	57.000000	0.000000	5.000000
0.830000	98.400000	62.090000	0.000000	0.000000	157.000000	57.000000	0.000000	0.000000
0.840000	98.400000	62.090000	0.000000	0.000000	157.000000	57.000000	0.000000	0.000000
0.850000	98.400000	62.090000	0.000000	0.000000	157.000000	57.000000	0.000000	0.000000
0.860000	98.400000	62.090000	0.000000	0.000000	157.000000	57.000000	0.000000	0.000000
0.870000	98.400000	62.090000	0.000000	0.000000	157.000000	57.000000	0.000000	0.000000
0.880000	98.400000	62.090000	0.000000	0.000000	157.000000	57.000000	0.000000	0.000000
0.890000	98.400000	62.090000	0.000000	0.000000	158.000000	56.000000	0.000000	0.000000
0.900000	98.400000	62.090000	0.000000	0.000000	158.000000	56.000000	0.000000	0.000000
0.910000	98.400000	62.090000	0.000000	0.000000	158.000000	56.000000	0.000000	0.000000
0.920000	98.400000	62.090000	0.000000	0.000000	158.000000	56.000000	0.000000	0.000000
0.930000	98.400000	62.090000	0.000000	0.000000	158.000000	56.000000	0.000000	0.000000
0.940000	98.340000	62.380000	0.000000	0.000000	158.000000	56.000000	-6.000000	29.000000
0.950000	98.340000	62.380000	0.000000	0.000000	158.000000	56.000000	0.000000	0.000000
0.960000	98.340000	62.380000	0.000000	0.000000	158.000000	56.000000	0.000000	0.000000
0.970000	98.340000	62.380000	0.000000	0.000000	158.000000	56.000000	0.000000	0.000000
0.980000	98.340000	62.380000	0.000000	0.000000	159.000000	55.000000	0.000000	0.000000
0.990000	98.340000	62.380000	0.000000	0.000000	159.000000	55.000000	0.000000	0.000000
1.000000	98.340000	62.430000	0.000000	0.000000	159.000000	55.000000	0.000000	5.000000
1.010000	98.400000	62.430000	0.000000	0.000000	159.000000	55.000000	6.000000	0.000000
1.020000	98.400000	62.520000	0.000000	0.000000	158.000000	56.000000	0.000000	9.000000
1.030000	98.470000	62.520000	0.000000	0.000000	158.000000	56.000000	7.000000	0.000000
1.040000	98.470000	62.610000	0.000000	0.000000	158.000000	56.000000	0.000000	9.000000
1.050000	98.520000	62.680000	0.000000	0.000000	158.000000	56.000000	5.000000	7.000000
1.060000	98.520000	62.680000	0.000000	0.000000	160.000000	56.000000	0.000000	0.000000
1.070000	98.520000	62.740000	0.000000	0.000000	160.000000	56.000000	0.000000	6.000000
1.080000	98.520000	62.740000	0.000000	0.000000	160.000000	56.000000	0.000000	0.000000
1.090000	98.520000	62.790000	0.000000	0.000000	160.000000	56.000000	0.000000	5.000000
1.100000	98.520000	62.790000	0.000000	0.000000	160.000000	56.000000	0.000000	0.000000
1.110000	98.580000	62.790000	0.000000	0.000000	160.000000	56.000000	6.000000	0.000000
1.120000	98.580000	62.910000	0.000000	0.000000	160.000000	56.000000	0.000000	12.000000
1.130000	98.580000	62.960000	0.000000	0.000000	160.000000	55.000000	0.000000	5.000000
1.140000	98.580000	63.040000	0.000000	0.000000	160.000000	55.000000	0.000000	8.000000
1.150000	98.580000	63.150000	0.000000	0.000000	160.000000	55.000000	0.000000	11.000000
1.160000	98.580000	63.150000	0.000000	0.000000	160.000000	55.000000	0.000000	0.000000
1.170000	98.580000	63.230000	0.000000	0.000000	160.000000	55.000000	0.000000	8.000000
1.180000	98.580000	63.300000	0.000000	0.000000	160.000000	55.000000	0.000000	7.000000
1.190000	98.660000	63.380000	0.000000	0.000000	160.000000	55.000000	8.000000	8.000000
1.200000	98.660000	63.470000	0.000000	0.000000	160.000000	55.000000	0.000000	9.000000
1.210000	98.660000	63.560000	0.000000	0.000000	160.000000	55.000000	0.000000	9.000000
1.220000	98.740000	63.670000	0.000000	0.000000	162.000000	56.000000	8.000000	11.000000
1.230000	98.790000	63.790000	0.000000	0.000000	162.000000	56.000000	5.000000	12.000000
1.240000	98.860000	63.870000	0.000000	0.000000	162.000000	56.000000	7.000000	8.000000
1.250000	98.910000	63.940000	0.000000	0.000000	161.000000	57.000000	5.000000	7.000000
1.260000	98.970000	63.940000	0.000000	0.000000	161.000000	57.000000	6.000000	0.000000
1.270000	98.970000	63.940000	10.000000	0.000000	161.000000	57.000000	0.000000	0.000000
1.280000	98.970000	63.940000	83.000000	1.000000	161.000000	57.000000	0.000000	0.000000
1.290000	98.970000	63.940000	132.000000	0.000000	161.000000	57.000000	0.000000	0.000000
1.300000	98.970000	63.940000	233.000000	0.000000	161.000000	57.000000	0.000000	0.000000
1.310000	98.970000	63.940000	325.000000	0.000000	161.000000	57.000000	0.000000	0.000000
1.320000	98.970000	63.590000	376.000000	0.000000	161.000000	57.000000	0.000000	-35.000000
1.330000	98.970000	63.140000	428.000000	0.000000	161.000000	57.000000	0.000000	-45.000000
1.340000	99.080000	62.720000	447.000000	0.000000	161.000000	57.000000	11.000000	-42.000000
1.350000	99.250000	62.360000	466.000000	0.000000	161.000000	57.000000	17.000000	-36.000000
1.360000	99.480000	62.050000	469.000000	0.000000	161.000000	57.000000	23.000000	-31.000000
1.370000	99.610000	61.890000	464.000000	0.000000	161.000000	57.000000	13.000000	-16.000000
1.380000	99.660000	61.830000	464.000000	0.000000	161.000000	57.000000	5.000000	-6.000000
1.390000	99.660000	61.830000	456.000000	0.000000	161.000000	57.000000	0.000000	0.000000
1.400000	99.660000	61.830000	368.000000	0.000000	163.000000	57.000000	0.000000	0.000000
1.410000	99.600000	61.910000	170.000000	0.000000	163.000000	57.000000	-6.000000	8.000000
1.420000	99.600000	61.910000	0.000000	1.000000	163.000000	57.000000	0.000000	0.000000
1.430000	99.460000	62.100000	0.000000	0.000000	163.000000	57.000000	-14.000000	19.000000
1.440000	99.400000	62.200000	0.000000	0.000000	163.000000	57.000000	-6.000000	10.000000
1.450000	99.400000	62.340000	0.000000	0.000000	163.000000	57.000000	0.000000	14.000000
1.460000	99.470000	62.500000	0.000000	0.000000	163.000000	57.000000	7.000000	16.000000
1.470000	99.680000	62.640000	0.000000	0.000000	163.000000	57.000000	21.000000	14.000000
1.480000	99.950000	62.760000	0.000000	0.000000	163.000000	57.000000	27.000000	12.000000
1.490000	100.270000	62.850000	0.000000	0.000000	163.000000	57.000000	32.000000	9.000000
1.500000	100.640000	62.940000	0.000000	0.000000	163.000000	57.000000	37.000000	9.000000
1.510000	101.020000	63.020000	0.000000	0.000000	163.000000	56.000000	38.000000	8.000000
1.520000	101.250000	63.080000	0.000000	0.000000	162.000000	56.000000	23.000000	6.000000
1.530000	101.380000	63.150000	0.000000	0.000000	162.000000	56.000000	13.000000	7.000000
1.540000	101.380000	63.240000	0.000000	0.000000	162.000000	56.000000	0.000000	9.000000
1.550000	101.300000	63.330000	0.000000	0.000000	162.000000	56.000000	-8.000000	9.000000
1.560000	101.170000	63.330000	0.000000	0.000000	162.000000	56.000000	-13.000000	0.000000
1.570000	101.050000	63.400000	0.000000	0.000000	163.000000	56.000000	-12.000000	7.000000
1.580000	100.950000	63.400000	0.000000	0.000000	163.000000	56.000000	-10.000000	0.000000
1.590000	100.890000	63.400000	0.000000	0.000000	163.000000	56.000000	-6.000000	0.000000
1.600000	100.890000	63.400000	0.000000	0.000000	165.000000	56.000000	0.000000	0.000000
1.610000	100.890000	63.400000	0.000000	0.000000	165.000000	56.000000	0.000000	0.000000
1.620000	100.970000	63.400000	0.000000	0.000000	166.000000	56.000000	8.000000	0.000000
1.630000	101.040000	63.480000	0.000000	0.000000	166.000000	56.000000	7.000000	8.000000
1.640000	101.130000	63.530000	0.000000	0.000000	166.000000	56.000000	9.000000	5.000000
1.650000	101.210000	63.530000	0.000000	0.000000	166.000000	56.000000	8.000000	0.000000
1.660000	101.310000	63.610000	0.000000	0.000000	166.000000	56.000000	10.000000	8.000000
1.670000	101.410000	63.660000	0.000000	0.000000	166.000000	56.000000	10.000000	5.000000
1.680000	101.540000	63.740000	0.000000	0.000000	166.000000	56.000000	13.000000	8.000000
1.690000	101.690000	63.830000	0.000000	0.000000	166.000000	56.000000	15.000000	9.000000
1.700000	101.860000	63.940000	0.000000	0.000000	166.000000	56.000000	17.000000	11.000000
1.710000	102.010000	64.050000	0.000000	0.000000	165.000000	56.000000	15.000000	11.000000
1.720000	102.150000	64.160000	0.000000	0.000000	165.000000	56.000000	14.000000	11.000000
1.730000	102.150000	64.160000	0.000000	0.000000	163.000000	56.000000	0.000000	0.000000
1.740000	102.480000	64.380000	0.000000	0.000000	163.000000	56.000000	33.000000	22.000000
1.750000	102.610000	64.510000	0.000000	0.000000	162.000000	56.000000	13.000000	13.000000
1.760000	102.720000	64.660000	0.000000	0.000000	161.000000	57.000000	11.000000	15.000000
1.770000	102.810000	64.780000	0.000000	0.000000	161.000000	57.000000	9.000000	12.000000
1.780000	102.860000	64.880000	0.000000	0.000000	160.000000	56.000000	5.000000	10.000000
1.790000	102.860000	64.880000	68.000000	1.000000	160.000000	56.000000	0.000000	0.000000
1.800000	102.860000	64.880000	76.000000	0.000000	160.000000	56.000000	0.000000	0.000000
1.810000	102.470000	64.930000	101.000000	0.000000	159.000000	57.000000	-39.000000	5.000000
1.820000	102.210000	64.930000	175.000000	0.000000	161.000000	57.000000	-26.000000	0.000000
1.830000	101.930000	64.820000	226.000000	0.000000	161.000000	57.000000	-28.000000	-11.000000
1.840000	101.610000	64.720000	254.000000	0.000000	161.000000	57.000000	-32.000000	-10.000000
1.850000	101.320000	64.460000	311.000000	0.000000	162.000000	58.000000	-29.000000	-26.000000
1.860000	101.060000	64.100000	334.000000	0.000000	162.000000	58.000000	-26.000000	-36.000000
1.870000	100.940000	63.690000	349.000000	0.000000	164.000000	58.000000	-12.000000	-41.000000
1.880000	100.940000	63.270000	372.000000	0.000000	164.000000	58.000000	0.000000	-42.000000
1.890000	100.940000	62.840000	391.000000	0.000000	165.000000	58.000000	0.000000	-43.000000
1.900000	101.160000	62.540000	418.000000	0.000000	167.000000	58.000000	22.000000	-30.000000
1.910000	101.530000	62.340000	439.000000	0.000000	167.000000	57.000000	37.000000	-20.000000
1.920000	101.970000	62.240000	455.000000	0.000000	169.000000	58.000000	44.000000	-10.000000
1.930000	102.520000	62.240000	455.000000	0.000000	169.000000	58.000000	55.000000	0.000000
1.940000	103.150000	62.420000	445.000000	0.000000	169.000000	58.000000	63.000000	18.000000
1.950000	103.680000	62.570000	415.000000	0.000000	169.000000	58.000000	53.000000	15.000000
1.960000	104.000000	62.730000	354.000000	0.000000	167.000000	57.000000	32.000000	16.000000
1.970000	104.190000	62.900000	180.000000	0.000000	167.000000	58.000000	19.000000	17.000000
1.980000	104.190000	62.900000	0.000000	1.000000	165.000000	58.000000	0.000000	0.000000
1.990000	104.130000	62.950000	0.000000	0.000000	165.000000	58.000000	-6.000000	5.000000
2.000000	103.970000	63.000000	0.000000	0.000000	164.000000	58.000000	-16.000000	5.000000
2.010000	103.840000	63.000000	0.000000	0.000000	164.000000	58.000000	-13.000000	0.000000
2.020000	103.740000	63.050000	0.000000	0.000000	164.000000	58.000000	-10.000000	5.000000
2.030000	103.740000	63.050000	0.000000	0.000000	162.000000	58.000000	0.000000	0.000000
2.040000	103.690000	63.050000	0.000000	0.000000	162.000000	58.000000	-5.000000	0.000000
2.050000	103.770000	63.100000	0.000000	0.000000	161.000000	57.000000	8.000000	5.000000
2.060000	103.960000	63.170000	0.000000	0.000000	161.000000	57.000000	19.000000	7.000000
2.070000	104.250000	63.270000	0.000000	0.000000	161.000000	57.000000	29.000000	10.000000
2.080000	104.530000	63.340000	0.000000	0.000000	160.000000	56.000000	28.000000	7.000000
2.090000	104.790000	63.440000	0.000000	0.000000	160.000000	56.000000	26.000000	10.000000
2.100000	105.170000	63.550000	0.000000	0.000000	160.000000	56.000000	38.000000	11.000000
2.110000	105.560000	63.700000	0.000000	0.000000	160.000000	56.000000	39.000000	15.000000
2.120000	105.940000	63.840000	0.000000	0.000000	160.000000	56.000000	38.000000	14.000000
2.130000	106.170000	63.970000	0.000000	0.000000	160.000000	56.000000	23.000000	13.000000
2.140000	106.170000	63.970000	0.000000	0.000000	160.000000	56.000000	0.000000	0.000000
2.150000	106.170000	63.970000	0.000000	0.000000	160.000000	56.000000	0.000000	0.000000
2.160000	106.170000	63.970000	0.000000	0.000000	160.000000	56.000000	0.000000	0.000000
2.170000	105.910000	64.200000	0.000000	0.000000	160.000000	56.000000	-26.000000	23.000000
2.180000	105.830000	64.200000	0.000000	0.000000	160.000000	56.000000	-8.000000	0.000000
2.190000	105.770000	64.260000	0.000000	0.000000	158.000000	56.000000	-6.000000	6.000000
2.200000	105.720000	64.260000	0.000000	0.000000	158.000000	56.000000	-5.000000	0.000000
2.210000	105.640000	64.260000	0.000000	0.000000	158.000000	56.000000	-8.000000	0.000000
2.220000	105.550000	64.260000	0.000000	0.000000	157.000000	56.000000	-9.000000	0.000000
2.230000	105.500000	64.260000	0.000000	0.000000	157.000000	56.000000	-5.000000	0.000000
2.240000	105.430000	64.210000	0.000000	0.000000	157.000000	56.000000	-7.000000	-5.000000
2.250000	105.350000	64.150000	0.000000	0.000000	157.000000	56.000000	-8.000000	-6.000000
