t	x	y	pressure	penup	azimuth	inclination	v_x	v_y
0.000000	54.470000	70.860000	41.000000	1.000000	151.000000	51.000000	0.000000	0.000000
0.010000	54.650000	72.100000	99.000000	0.000000	152.000000	51.000000	18.000000	124.000000
0.020000	54.700000	72.600000	160.000000	0.000000	154.000000	50.000000	5.000000	50.000000
0.030000	54.700000	73.090000	274.000000	0.000000	154.000000	50.000000	0.000000	49.000000
0.040000	54.700000	73.280000	322.000000	0.000000	155.000000	49.000000	0.000000	19.000000
0.050000	54.700000	73.280000	339.000000	0.000000	156.000000	50.000000	0.000000	0.000000
0.060000	54.700000	73.040000	393.000000	0.000000	157.000000	49.000000	0.000000	-24.000000
0.070000	54.560000	72.440000	433.000000	0.000000	157.000000	49.000000	-14.000000	-60.000000
0.080000	54.560000	70.940000	477.000000	0.000000	157.000000	49.000000	0.000000	-150.000000
0.090000	54.300000	68.830000	512.000000	0.000000	157.000000	49.000000	-26.000000	-211.000000
0.100000	53.950000	66.560000	543.000000	0.000000	156.000000	50.000000	-35.000000	-227.000000
0.110000	53.630000	64.280000	561.000000	0.000000	156.000000	50.000000	-32.000000	-228.000000
0.120000	53.540000	62.410000	560.000000	0.000000	155.000000	50.000000	-9.000000	-187.000000
0.130000	53.600000	60.810000	564.000000	0.000000	155.000000	51.000000	6.000000	-160.000000
0.140000	54.030000	59.570000	567.000000	0.000000	154.000000	52.000000	43.000000	-124.000000
0.150000	54.750000	58.760000	570.000000	0.000000	153.000000	53.000000	72.000000	-81.000000
0.160000	55.670000	58.230000	570.000000	0.000000	152.000000	54.000000	92.000000	-53.000000
0.170000	56.630000	57.970000	574.000000	0.000000	152.000000	56.000000	96.000000	-26.000000
0.180000	57.430000	58.110000	575.000000	0.000000	151.000000	56.000000	80.000000	14.000000
0.190000	58.120000	58.520000	565.000000	0.000000	151.000000	56.000000	69.000000	41.000000
0.200000	58.410000	59.270000	522.000000	0.000000	151.000000	58.000000	29.000000	75.000000
0.210000	57.980000	60.120000	468.000000	0.000000	151.000000	58.000000	-43.000000	85.000000
0.220000	57.080000	61.050000	467.000000	0.000000	153.000000	58.000000	-90.000000	93.000000
0.230000	55.390000	61.770000	504.000000	0.000000	154.000000	57.000000	-169.000000	72.000000
0.240000	53.280000	62.170000	551.000000	0.000000	155.000000	58.000000	-211.000000	40.000000
0.250000	50.890000	62.370000	580.000000	0.000000	156.000000	57.000000	-239.000000	20.000000
0.260000	48.600000	62.210000	595.000000	0.000000	156.000000	57.000000	-229.000000	-16.000000
0.270000	46.820000	61.820000	610.000000	0.000000	157.000000	56.000000	-178.000000	-39.000000
0.280000	45.380000	61.270000	616.000000	0.000000	155.000000	55.000000	-144.000000	-55.000000
0.290000	45.330000	61.000000	616.000000	0.000000	154.000000	55.000000	-5.000000	-27.000000
0.300000	46.490000	60.740000	611.000000	0.000000	153.000000	54.000000	116.000000	-26.000000
0.310000	48.460000	60.500000	641.000000	0.000000	153.000000	54.000000	197.000000	-24.000000
0.320000	51.610000	60.580000	650.000000	0.000000	152.000000	54.000000	315.000000	8.000000
0.330000	55.450000	60.770000	661.000000	0.000000	153.000000	54.000000	384.000000	19.000000
0.340000	59.740000	61.030000	664.000000	0.000000	153.000000	54.000000	429.000000	26.000000
0.350000	63.500000	60.960000	665.000000	0.000000	155.000000	54.000000	376.000000	-7.000000
0.360000	66.840000	61.090000	670.000000	0.000000	156.000000	55.000000	334.000000	13.000000
0.370000	69.890000	61.360000	670.000000	0.000000	158.000000	55.000000	305.000000	27.000000
0.380000	72.180000	61.500000	676.000000	0.000000	158.000000	56.000000	229.000000	14.000000
0.390000	73.720000	61.620000	673.000000	0.000000	161.000000	57.000000	154.000000	12.000000
0.400000	74.750000	61.690000	638.000000	0.000000	163.000000	57.000000	103.000000	7.000000
0.410000	74.860000	61.690000	443.000000	0.000000	163.000000	57.000000	11.000000	0.000000
0.420000	74.860000	61.690000	0.000000	1.000000	164.000000	57.000000	0.000000	0.000000
0.430000	72.830000	61.690000	0.000000	0.000000	164.000000	57.000000	-203.000000	0.000000
0.440000	71.130000	61.850000	0.000000	0.000000	166.000000	57.000000	-170.000000	16.000000
0.450000	69.150000	62.030000	0.000000	0.000000	166.000000	57.000000	-198.000000	18.000000
0.460000	66.990000	62.160000	0.000000	0.000000	166.000000	57.000000	-216.000000	13.000000
0.470000	65.160000	62.260000	0.000000	0.000000	164.000000	57.000000	-183.000000	10.000000
0.480000	63.510000	62.330000	0.000000	0.000000	164.000000	57.000000	-165.000000	7.000000
0.490000	61.980000	62.330000	0.000000	0.000000	163.000000	56.000000	-153.000000	0.000000
0.500000	60.840000	62.490000	0.000000	0.000000	162.000000	56.000000	-114.000000	16.000000
0.510000	59.940000	62.660000	0.000000	0.000000	159.000000	55.000000	-90.000000	17.000000
0.520000	59.210000	62.920000	0.000000	0.000000	158.000000	55.000000	-73.000000	26.000000
0.530000	58.590000	63.250000	0.000000	0.000000	156.000000	55.000000	-62.000000	33.000000
0.540000	57.980000	63.640000	0.000000	0.000000	155.000000	54.000000	-61.000000	39.000000
0.550000	57.400000	64.120000	0.000000	0.000000	155.000000	54.000000	-58.000000	48.000000
0.560000	57.000000	64.580000	0.000000	0.000000	153.000000	54.000000	-40.000000	46.000000
0.570000	56.720000	64.990000	0.000000	0.000000	153.000000	54.000000	-28.000000	41.000000
0.580000	56.540000	65.380000	0.000000	0.000000	153.000000	54.000000	-18.000000	39.000000
0.590000	56.300000	65.570000	0.000000	0.000000	153.000000	54.000000	-24.000000	19.000000
0.600000	55.980000	65.630000	0.000000	0.000000	153.000000	54.000000	-32.000000	6.000000
0.610000	55.630000	65.520000	0.000000	0.000000	153.000000	55.000000	-35.000000	-11.000000
0.620000	55.320000	65.400000	0.000000	0.000000	153.000000	55.000000	-31.000000	-12.000000
0.630000	55.040000	65.270000	0.000000	0.000000	153.000000	55.000000	-28.000000	-13.000000
0.640000	54.940000	65.150000	0.000000	0.000000	151.000000	54.000000	-10.000000	-12.000000
0.650000	54.940000	65.200000	0.000000	0.000000	150.000000	54.000000	0.000000	5.000000
0.660000	54.940000	65.370000	0.000000	0.000000	150.000000	54.000000	0.000000	17.000000
0.670000	55.040000	65.730000	0.000000	0.000000	150.000000	54.000000	10.000000	36.000000
0.680000	55.140000	66.250000	0.000000	0.000000	148.000000	54.000000	10.000000	52.000000
0.690000	55.280000	66.880000	0.000000	0.000000	148.000000	54.000000	14.000000	63.000000
0.700000	55.430000	67.570000	0.000000	0.000000	148.000000	54.000000	15.000000	69.000000
0.710000	55.580000	68.260000	0.000000	0.000000	148.000000	54.000000	15.000000	69.000000
0.720000	55.690000	68.890000	0.000000	0.000000	148.000000	54.000000	11.000000	63.000000
0.730000	55.690000	68.890000	89.000000	1.000000	148.000000	54.000000	0.000000	0.000000
0.740000	55.850000	69.810000	151.000000	0.000000	148.000000	54.000000	16.000000	92.000000
0.750000	55.900000	70.080000	175.000000	0.000000	150.000000	54.000000	5.000000	27.000000
0.760000	55.900000	70.080000	235.000000	0.000000	150.000000	54.000000	0.000000	0.000000
0.770000	56.050000	69.970000	304.000000	0.000000	151.000000	53.000000	15.000000	-11.000000
0.780000	56.150000	69.490000	342.000000	0.000000	151.000000	53.000000	10.000000	-48.000000
0.790000	56.150000	68.600000	353.000000	0.000000	151.000000	53.000000	0.000000	-89.000000
0.800000	56.150000	67.450000	371.000000	0.000000	151.000000	53.000000	0.000000	-115.000000
0.810000	56.150000	66.370000	367.000000	0.000000	151.000000	53.000000	0.000000	-108.000000
0.820000	56.150000	65.360000	369.000000	0.000000	150.000000	54.000000	0.000000	-101.000000
0.830000	56.150000	64.620000	376.000000	0.000000	150.000000	54.000000	0.000000	-74.000000
0.840000	56.210000	64.030000	381.000000	0.000000	149.000000	55.000000	6.000000	-59.000000
0.850000	56.210000	63.860000	441.000000	0.000000	149.000000	55.000000	0.000000	-17.000000
0.860000	56.210000	63.970000	512.000000	0.000000	150.000000	55.000000	0.000000	11.000000
0.870000	56.210000	64.270000	578.000000	0.000000	150.000000	55.000000	0.000000	30.000000
0.880000	56.210000	65.020000	588.000000	0.000000	150.000000	55.000000	0.000000	75.000000
0.890000	56.210000	66.050000	613.000000	0.000000	150.000000	55.000000	0.000000	103.000000
0.900000	56.330000	67.270000	605.000000	0.000000	150.000000	55.000000	12.000000	122.000000
0.910000	56.550000	68.710000	602.000000	0.000000	150.000000	55.000000	22.000000	144.000000
0.920000	56.760000	70.040000	600.000000	0.000000	150.000000	55.000000	21.000000	133.000000
0.930000	56.870000	71.310000	602.000000	0.000000	150.000000	55.000000	11.000000	127.000000
0.940000	56.920000	71.590000	599.000000	0.000000	151.000000	54.000000	5.000000	28.000000
0.950000	56.920000	71.590000	595.000000	0.000000	152.000000	54.000000	0.000000	0.000000
0.960000	56.920000	71.520000	594.000000	0.000000	153.000000	53.000000	0.000000	-7.000000
0.970000	56.920000	71.060000	595.000000	0.000000	154.000000	52.000000	0.000000	-46.000000
0.980000	56.920000	70.170000	595.000000	0.000000	155.000000	52.000000	0.000000	-89.000000
0.990000	57.020000	69.000000	595.000000	0.000000	155.000000	52.000000	10.000000	-117.000000
1.000000	57.160000	67.810000	595.000000	0.000000	155.000000	52.000000	14.000000	-119.000000
1.010000	57.300000	66.750000	594.000000	0.000000	155.000000	52.000000	14.000000	-106.000000
1.020000	57.430000	65.790000	592.000000	0.000000	154.000000	53.000000	13.000000	-96.000000
1.030000	57.550000	65.050000	595.000000	0.000000	155.000000	54.000000	12.000000	-74.000000
1.040000	57.810000	64.740000	595.000000	0.000000	154.000000	55.000000	26.000000	-31.000000
1.050000	58.070000	64.740000	588.000000	0.000000	154.000000	55.000000	26.000000	0.000000
1.060000	58.250000	64.850000	594.000000	0.000000	154.000000	56.000000	18.000000	11.000000
1.070000	58.360000	65.290000	606.000000	0.000000	154.000000	56.000000	11.000000	44.000000
1.080000	58.630000	65.930000	608.000000	0.000000	154.000000	56.000000	27.000000	64.000000
1.090000	58.920000	66.670000	611.000000	0.000000	156.000000	57.000000	29.000000	74.000000
1.100000	59.230000	67.410000	609.000000	0.000000	156.000000	57.000000	31.000000	74.000000
1.110000	59.370000	67.650000	609.000000	0.000000	157.000000	58.000000	14.000000	24.000000
1.120000	59.370000	67.560000	609.000000	0.000000	157.000000	58.000000	0.000000	-9.000000
1.130000	59.470000	67.350000	617.000000	0.000000	158.000000	58.000000	10.000000	-21.000000
1.140000	59.470000	66.880000	620.000000	0.000000	158.000000	58.000000	0.000000	-47.000000
1.150000	59.470000	66.250000	611.000000	0.000000	160.000000	58.000000	0.000000	-63.000000
1.160000	59.470000	65.800000	613.000000	0.000000	160.000000	58.000000	0.000000	-45.000000
1.170000	59.520000	65.330000	610.000000	0.000000	160.000000	58.000000	5.000000	-47.000000
1.180000	59.520000	65.030000	620.000000	0.000000	160.000000	58.000000	0.000000	-30.000000
1.190000	59.680000	64.870000	610.000000	0.000000	160.000000	58.000000	16.000000	-16.000000
1.200000	59.820000	64.870000	611.000000	0.000000	161.000000	57.000000	14.000000	0.000000
1.210000	59.990000	64.990000	611.000000	0.000000	161.000000	57.000000	17.000000	12.000000
1.220000	60.210000	65.250000	611.000000	0.000000	161.000000	57.000000	22.000000	26.000000
1.230000	60.510000	65.650000	611.000000	0.000000	161.000000	57.000000	30.000000	40.000000
1.240000	60.700000	66.020000	617.000000	0.000000	161.000000	57.000000	19.000000	37.000000
1.250000	60.810000	66.130000	617.000000	0.000000	161.000000	57.000000	11.000000	11.000000
1.260000	60.810000	66.070000	616.000000	0.000000	160.000000	58.000000	0.000000	-6.000000
1.270000	60.730000	65.930000	624.000000	0.000000	160.000000	58.000000	-8.000000	-14.000000
1.280000	60.730000	65.570000	627.000000	0.000000	160.000000	58.000000	0.000000	-36.000000
1.290000	60.730000	65.070000	634.000000	0.000000	160.000000	58.000000	0.000000	-50.000000
1.300000	60.730000	64.620000	638.000000	0.000000	160.000000	58.000000	0.000000	-45.000000
1.310000	60.820000	64.290000	638.000000	0.000000	160.000000	58.000000	9.000000	-33.000000
1.320000	60.900000	64.030000	639.000000	0.000000	160.000000	58.000000	8.000000	-26.000000
1.330000	61.040000	63.810000	641.000000	0.000000	161.000000	57.000000	14.000000	-22.000000
1.340000	61.210000	63.720000	636.000000	0.000000	161.000000	57.000000	17.000000	-9.000000
1.350000	61.440000	63.720000	659.000000	0.000000	161.000000	57.000000	23.000000	0.000000
1.360000	61.720000	63.850000	688.000000	0.000000	159.000000	57.000000	28.000000	13.000000
1.370000	61.900000	64.160000	702.000000	0.000000	159.000000	57.000000	18.000000	31.000000
1.380000	62.020000	64.580000	703.000000	0.000000	159.000000	57.000000	12.000000	42.000000
1.390000	62.210000	65.260000	710.000000	0.000000	159.000000	57.000000	19.000000	68.000000
1.400000	62.280000	65.910000	710.000000	0.000000	159.000000	57.000000	7.000000	65.000000
1.410000	62.160000	66.280000	710.000000	0.000000	159.000000	57.000000	-12.000000	37.000000
1.420000	61.950000	66.480000	703.000000	0.000000	158.000000	58.000000	-21.000000	20.000000
1.430000	61.780000	66.480000	687.000000	0.000000	158.000000	58.000000	-17.000000	0.000000
1.440000	61.580000	66.320000	624.000000	0.000000	158.000000	58.000000	-20.000000	-16.000000
1.450000	61.240000	66.010000	491.000000	0.000000	158.000000	58.000000	-34.000000	-31.000000
1.460000	60.820000	65.600000	254.000000	0.000000	158.000000	58.000000	-42.000000	-41.000000
1.470000	60.820000	65.600000	0.000000	1.000000	158.000000	58.000000	0.000000	0.000000
1.480000	60.560000	65.060000	0.000000	0.000000	158.000000	58.000000	-26.000000	-54.000000
1.490000	60.720000	65.060000	0.000000	0.000000	158.000000	58.000000	16.000000	0.000000
1.500000	60.980000	65.200000	0.000000	0.000000	158.000000	58.000000	26.000000	14.000000
1.510000	61.280000	65.400000	0.000000	0.000000	159.000000	57.000000	30.000000	20.000000
1.520000	61.640000	65.610000	0.000000	0.000000	159.000000	57.000000	36.000000	21.000000
1.530000	61.990000	65.850000	0.000000	0.000000	159.000000	57.000000	35.000000	24.000000
1.540000	62.190000	66.070000	0.000000	0.000000	157.000000	57.000000	20.000000	22.000000
1.550000	62.310000	66.160000	0.000000	0.000000	158.000000	56.000000	12.000000	9.000000
1.560000	62.310000	66.160000	212.000000	1.000000	158.000000	56.000000	0.000000	0.000000
1.570000	62.310000	66.160000	299.000000	0.000000	157.000000	57.000000	0.000000	0.000000
1.580000	62.310000	66.160000	423.000000	0.000000	157.000000	57.000000	0.000000	0.000000
1.590000	62.680000	65.960000	530.000000	0.000000	157.000000	57.000000	37.000000	-20.000000
1.600000	62.890000	65.650000	592.000000	0.000000	157.000000	57.000000	21.000000	-31.000000
1.610000	63.160000	65.190000	627.000000	0.000000	157.000000	57.000000	27.000000	-46.000000
1.620000	63.330000	64.720000	647.000000	0.000000	157.000000	57.000000	17.000000	-47.000000
1.630000	63.430000	64.250000	644.000000	0.000000	157.000000	57.000000	10.000000	-47.000000
1.640000	63.540000	63.970000	646.000000	0.000000	157.000000	57.000000	11.000000	-28.000000
1.650000	63.540000	63.790000	670.000000	0.000000	157.000000	57.000000	0.000000	-18.000000
1.660000	63.540000	63.790000	730.000000	0.000000	157.000000	57.000000	0.000000	0.000000
1.670000	63.540000	63.850000	784.000000	0.000000	157.000000	57.000000	0.000000	6.000000
1.680000	63.540000	63.980000	808.000000	0.000000	157.000000	57.000000	0.000000	13.000000
1.690000	63.460000	64.530000	818.000000	0.000000	157.000000	57.000000	-8.000000	55.000000
1.700000	63.590000	65.070000	818.000000	0.000000	157.000000	57.000000	13.000000	54.000000
1.710000	63.760000	65.750000	821.000000	0.000000	157.000000	57.000000	17.000000	68.000000
1.720000	64.000000	66.520000	817.000000	0.000000	157.000000	57.000000	24.000000	77.000000
1.730000	64.240000	66.700000	800.000000	0.000000	157.000000	57.000000	24.000000	18.000000
1.740000	64.330000	66.750000	777.000000	0.000000	157.000000	57.000000	9.000000	5.000000
1.750000	64.330000	66.750000	733.000000	0.000000	157.000000	58.000000	0.000000	0.000000
1.760000	64.580000	66.550000	664.000000	0.000000	157.000000	58.000000	25.000000	-20.000000
1.770000	64.850000	66.340000	606.000000	0.000000	157.000000	58.000000	27.000000	-21.000000
1.780000	65.030000	66.070000	559.000000	0.000000	157.000000	58.000000	18.000000	-27.000000
1.790000	65.140000	65.810000	538.000000	0.000000	157.000000	58.000000	11.000000	-26.000000
1.800000	65.300000	65.660000	538.000000	0.000000	158.000000	58.000000	16.000000	-15.000000
1.810000	65.400000	65.580000	564.000000	0.000000	158.000000	58.000000	10.000000	-8.000000
1.820000	65.460000	65.640000	610.000000	0.000000	158.000000	58.000000	6.000000	6.000000
1.830000	65.460000	65.730000	685.000000	0.000000	158.000000	58.000000	0.000000	9.000000
1.840000	65.460000	65.830000	731.000000	0.000000	158.000000	58.000000	0.000000	10.000000
1.850000	65.460000	65.830000	724.000000	0.000000	158.000000	58.000000	0.000000	0.000000
1.860000	65.460000	65.830000	725.000000	0.000000	158.000000	58.000000	0.000000	0.000000
1.870000	65.520000	65.740000	728.000000	0.000000	158.000000	58.000000	6.000000	-9.000000
1.880000	65.520000	65.440000	730.000000	0.000000	158.000000	58.000000	0.000000	-30.000000
1.890000	65.590000	65.080000	731.000000	0.000000	158.000000	58.000000	7.000000	-36.000000
1.900000	65.640000	64.790000	731.000000	0.000000	158.000000	58.000000	5.000000	-29.000000
1.910000	65.640000	64.580000	737.000000	0.000000	159.000000	57.000000	0.000000	-21.000000
1.920000	65.690000	64.530000	745.000000	0.000000	159.000000	57.000000	5.000000	-5.000000
1.930000	65.690000	64.530000	751.000000	0.000000	159.000000	57.000000	0.000000	0.000000
1.940000	65.630000	64.670000	763.000000	0.000000	159.000000	57.000000	-6.000000	14.000000
1.950000	65.550000	64.960000	768.000000	0.000000	159.000000	57.000000	-8.000000	29.000000
1.960000	65.410000	65.210000	780.000000	0.000000	159.000000	57.000000	-14.000000	25.000000
1.970000	65.140000	65.440000	780.000000	0.000000	159.000000	57.000000	-27.000000	23.000000
1.980000	64.780000	65.530000	785.000000	0.000000	159.000000	57.000000	-36.000000	9.000000
1.990000	64.380000	65.330000	791.000000	0.000000	159.000000	57.000000	-40.000000	-20.000000
2.000000	63.870000	64.950000	784.000000	0.000000	159.000000	57.000000	-51.000000	-38.000000
2.010000	63.290000	64.330000	791.000000	0.000000	159.000000	57.000000	-58.000000	-62.000000
2.020000	62.860000	63.680000	790.000000	0.000000	159.000000	57.000000	-43.000000	-65.000000
2.030000	62.860000	63.330000	791.000000	0.000000	159.000000	57.000000	0.000000	-35.000000
2.040000	63.090000	63.180000	797.000000	0.000000	159.000000	57.000000	23.000000	-15.000000
2.050000	63.280000	63.070000	803.000000	0.000000	159.000000	57.000000	19.000000	-11.000000
2.060000	63.720000	63.070000	809.000000	0.000000	159.000000	57.000000	44.000000	0.000000
2.070000	64.320000	63.150000	814.000000	0.000000	159.000000	57.000000	60.000000	8.000000
2.080000	64.900000	63.430000	817.000000	0.000000	159.000000	57.000000	58.000000	28.000000
2.090000	65.320000	63.720000	824.000000	0.000000	159.000000	57.000000	42.000000	29.000000
2.100000	65.630000	64.010000	825.000000	0.000000	160.000000	56.000000	31.000000	29.000000
2.110000	65.800000	64.180000	846.000000	0.000000	160.000000	56.000000	17.000000	17.000000
2.120000	65.850000	64.180000	855.000000	0.000000	160.000000	56.000000	5.000000	0.000000
2.130000	65.850000	64.180000	858.000000	0.000000	160.000000	56.000000	0.000000	0.000000
2.140000	65.850000	64.180000	855.000000	0.000000	161.000000	57.000000	0.000000	0.000000
2.150000	65.850000	64.180000	857.000000	0.000000	161.000000	57.000000	0.000000	0.000000
2.160000	65.850000	64.100000	858.000000	0.000000	161.000000	57.000000	0.000000	-8.000000
2.170000	65.850000	64.020000	858.000000	0.000000	161.000000	57.000000	0.000000	-8.000000
2.180000	65.850000	63.920000	863.000000	0.000000	161.000000	57.000000	0.000000	-10.000000
2.190000	65.850000	63.770000	867.000000	0.000000	161.000000	57.000000	0.000000	-15.000000
2.200000	65.850000	63.690000	853.000000	0.000000	161.000000	57.000000	0.000000	-8.000000
