t	x	y	pressure	penup	azimuth	inclination	v_x	v_y
0.000000	91.360000	81.670000	99.000000	1.000000	146.000000	57.000000	0.000000	0.000000
0.010000	91.360000	81.670000	168.000000	0.000000	148.000000	57.000000	0.000000	0.000000
0.020000	91.360000	81.670000	233.000000	0.000000	148.000000	57.000000	0.000000	0.000000
0.030000	91.360000	81.670000	270.000000	0.000000	148.000000	57.000000	0.000000	0.000000
0.040000	91.360000	81.670000	311.000000	0.000000	151.000000	56.000000	0.000000	0.000000
0.050000	91.360000	81.670000	343.000000	0.000000	151.000000	56.000000	0.000000	0.000000
0.060000	91.360000	81.670000	425.000000	0.000000	151.000000	56.000000	0.000000	0.000000
0.070000	91.270000	81.250000	486.000000	0.000000	152.000000	56.000000	-9.000000	-42.000000
0.080000	91.140000	80.830000	533.000000	0.000000	153.000000	56.000000	-13.000000	-42.000000
0.090000	90.990000	80.210000	565.000000	0.000000	153.000000	56.000000	-15.000000	-62.000000
0.100000	90.770000	79.410000	597.000000	0.000000	152.000000	57.000000	-22.000000	-80.000000
0.110000	90.510000	78.490000	628.000000	0.000000	154.000000	57.000000	-26.000000	-92.000000
0.120000	90.450000	77.700000	639.000000	0.000000	154.000000	57.000000	-6.000000	-79.000000
0.130000	90.450000	77.040000	647.000000	0.000000	153.000000	58.000000	0.000000	-66.000000
0.140000	90.530000	76.470000	640.000000	0.000000	154.000000	58.000000	8.000000	-57.000000
0.150000	90.730000	76.180000	650.000000	0.000000	154.000000	58.000000	20.000000	-29.000000
0.160000	90.910000	76.000000	673.000000	0.000000	156.000000	59.000000	18.000000	-18.000000
0.170000	91.120000	75.890000	688.000000	0.000000	156.000000	59.000000	21.000000	-11.000000
0.180000	91.410000	75.890000	699.000000	0.000000	156.000000	59.000000	29.000000	0.000000
0.190000	91.730000	76.090000	702.000000	0.000000	156.000000	59.000000	32.000000	20.000000
0.200000	92.100000	76.380000	700.000000	0.000000	156.000000	59.000000	37.000000	29.000000
0.210000	92.430000	76.640000	693.000000	0.000000	155.000000	60.000000	33.000000	26.000000
0.220000	92.650000	76.900000	666.000000	0.000000	155.000000	60.000000	22.000000	26.000000
0.230000	92.800000	77.150000	671.000000	0.000000	155.000000	60.000000	15.000000	25.000000
0.240000	92.910000	77.420000	645.000000	0.000000	153.000000	59.000000	11.000000	27.000000
0.250000	92.910000	77.650000	639.000000	0.000000	153.000000	59.000000	0.000000	23.000000
0.260000	92.760000	77.880000	628.000000	0.000000	153.000000	59.000000	-15.000000	23.000000
0.270000	92.510000	78.020000	628.000000	0.000000	153.000000	59.000000	-25.000000	14.000000
0.280000	92.160000	78.100000	627.000000	0.000000	153.000000	59.000000	-35.000000	8.000000
0.290000	91.740000	78.100000	630.000000	0.000000	153.000000	59.000000	-42.000000	0.000000
0.300000	91.230000	78.100000	627.000000	0.000000	156.000000	59.000000	-51.000000	0.000000
0.310000	90.700000	78.050000	631.000000	0.000000	156.000000	59.000000	-53.000000	-5.000000
0.320000	90.160000	78.050000	639.000000	0.000000	157.000000	58.000000	-54.000000	0.000000
0.330000	89.710000	78.050000	645.000000	0.000000	157.000000	58.000000	-45.000000	0.000000
0.340000	89.280000	78.050000	653.000000	0.000000	157.000000	58.000000	-43.000000	0.000000
0.350000	88.900000	77.950000	653.000000	0.000000	157.000000	57.000000	-38.000000	-10.000000
0.360000	88.550000	77.850000	658.000000	0.000000	157.000000	57.000000	-35.000000	-10.000000
0.370000	88.290000	77.750000	659.000000	0.000000	156.000000	57.000000	-26.000000	-10.000000
0.380000	88.110000	77.650000	659.000000	0.000000	156.000000	57.000000	-18.000000	-10.000000
0.390000	88.020000	77.600000	659.000000	0.000000	154.000000	56.000000	-9.000000	-5.000000
0.400000	88.020000	77.600000	659.000000	0.000000	154.000000	56.000000	0.000000	0.000000
0.410000	88.020000	77.600000	664.000000	0.000000	154.000000	56.000000	0.000000	0.000000
0.420000	88.020000	77.600000	664.000000	0.000000	153.000000	56.000000	0.000000	0.000000
0.430000	88.020000	77.600000	676.000000	0.000000	153.000000	56.000000	0.000000	0.000000
0.440000	88.020000	77.600000	687.000000	0.000000	153.000000	56.000000	0.000000	0.000000
0.450000	88.020000	77.600000	691.000000	0.000000	153.000000	56.000000	0.000000	0.000000
0.460000	88.020000	77.600000	691.000000	0.000000	152.000000	57.000000	0.000000	0.000000
0.470000	88.020000	77.600000	693.000000	0.000000	151.000000	56.000000	0.000000	0.000000
0.480000	88.020000	77.600000	693.000000	0.000000	151.000000	56.000000	0.000000	0.000000
0.490000	88.020000	77.600000	693.000000	0.000000	151.000000	56.000000	0.000000	0.000000
0.500000	88.020000	77.600000	694.000000	0.000000	151.000000	56.000000	0.000000	0.000000
0.510000	88.020000	77.600000	696.000000	0.000000	151.000000	56.000000	0.000000	0.000000
0.520000	88.020000	77.600000	696.000000	0.000000	151.000000	56.000000	0.000000	0.000000
0.530000	88.020000	77.600000	700.000000	0.000000	151.000000	56.000000	0.000000	0.000000
0.540000	88.020000	77.600000	694.000000	0.000000	151.000000	56.000000	0.000000	0.000000
0.550000	88.020000	77.600000	694.000000	0.000000	151.000000	56.000000	0.000000	0.000000
0.560000	88.020000	77.600000	696.000000	0.000000	151.000000	56.000000	0.000000	0.000000
0.570000	88.020000	77.600000	696.000000	0.000000	151.000000	56.000000	0.000000	0.000000
0.580000	88.020000	77.600000	696.000000	0.000000	151.000000	56.000000	0.000000	0.000000
0.590000	88.020000	77.600000	696.000000	0.000000	151.000000	56.000000	0.000000	0.000000
0.600000	87.900000	77.490000	696.000000	0.000000	151.000000	56.000000	-12.000000	-11.000000
0.610000	87.900000	77.490000	699.000000	0.000000	151.000000	56.000000	0.000000	0.000000
0.620000	87.900000	77.490000	700.000000	0.000000	151.000000	56.000000	0.000000	0.000000
0.630000	87.650000	77.130000	700.000000	0.000000	151.000000	56.000000	-25.000000	-36.000000
0.640000	87.480000	77.000000	700.000000	0.000000	151.000000	56.000000	-17.000000	-13.000000
0.650000	87.390000	76.890000	699.000000	0.000000	151.000000	56.000000	-9.000000	-11.000000
0.660000	87.320000	76.820000	699.000000	0.000000	151.000000	56.000000	-7.000000	-7.000000
0.670000	87.320000	76.820000	699.000000	0.000000	151.000000	56.000000	0.000000	0.000000
0.680000	87.320000	76.820000	699.000000	0.000000	151.000000	56.000000	0.000000	0.000000
0.690000	87.320000	76.820000	699.000000	0.000000	151.000000	56.000000	0.000000	0.000000
0.700000	87.320000	76.820000	700.000000	0.000000	151.000000	56.000000	0.000000	0.000000
0.710000	87.320000	76.820000	702.000000	0.000000	151.000000	56.000000	0.000000	0.000000
0.720000	87.410000	76.820000	702.000000	0.000000	151.000000	56.000000	9.000000	0.000000
0.730000	87.530000	76.870000	691.000000	0.000000	151.000000	56.000000	12.000000	5.000000
0.740000	87.810000	76.980000	690.000000	0.000000	152.000000	57.000000	28.000000	11.000000
0.750000	88.190000	76.980000	690.000000	0.000000	152.000000	57.000000	38.000000	0.000000
0.760000	88.530000	76.930000	693.000000	0.000000	152.000000	57.000000	34.000000	-5.000000
0.770000	89.170000	77.010000	696.000000	0.000000	154.000000	57.000000	64.000000	8.000000
0.780000	90.020000	77.110000	703.000000	0.000000	154.000000	57.000000	85.000000	10.000000
0.790000	91.010000	77.230000	710.000000	0.000000	154.000000	58.000000	99.000000	12.000000
0.800000	92.290000	77.380000	719.000000	0.000000	154.000000	58.000000	128.000000	15.000000
0.810000	93.760000	77.500000	727.000000	0.000000	156.000000	59.000000	147.000000	12.000000
0.820000	95.420000	77.700000	749.000000	0.000000	156.000000	59.000000	166.000000	20.000000
0.830000	97.360000	77.970000	785.000000	0.000000	156.000000	59.000000	194.000000	27.000000
0.840000	99.480000	78.280000	814.000000	0.000000	157.000000	59.000000	212.000000	31.000000
0.850000	101.650000	78.710000	834.000000	0.000000	157.000000	59.000000	217.000000	43.000000
0.860000	103.430000	79.210000	846.000000	0.000000	159.000000	59.000000	178.000000	50.000000
0.870000	104.940000	79.300000	846.000000	0.000000	159.000000	59.000000	151.000000	9.000000
0.880000	105.740000	79.300000	845.000000	0.000000	159.000000	59.000000	80.000000	0.000000
0.890000	106.050000	79.300000	837.000000	0.000000	159.000000	59.000000	31.000000	0.000000
0.900000	106.050000	79.220000	828.000000	0.000000	159.000000	59.000000	0.000000	-8.000000
0.910000	105.980000	79.220000	818.000000	0.000000	159.000000	59.000000	-7.000000	0.000000
0.920000	105.910000	79.160000	806.000000	0.000000	157.000000	59.000000	-7.000000	-6.000000
0.930000	105.830000	79.100000	731.000000	0.000000	157.000000	59.000000	-8.000000	-6.000000
0.940000	105.560000	79.100000	585.000000	0.000000	157.000000	59.000000	-27.000000	0.000000
0.950000	105.560000	79.100000	0.000000	1.000000	156.000000	59.000000	0.000000	0.000000
0.960000	105.090000	79.040000	0.000000	0.000000	156.000000	59.000000	-47.000000	-6.000000
0.970000	104.800000	79.040000	0.000000	0.000000	156.000000	59.000000	-29.000000	0.000000
0.980000	104.510000	79.160000	0.000000	0.000000	154.000000	58.000000	-29.000000	12.000000
0.990000	104.260000	79.320000	0.000000	0.000000	154.000000	58.000000	-25.000000	16.000000
1.000000	104.100000	79.430000	0.000000	0.000000	153.000000	58.000000	-16.000000	11.000000
1.010000	104.100000	79.530000	0.000000	0.000000	153.000000	58.000000	0.000000	10.000000
1.020000	104.100000	79.720000	0.000000	0.000000	150.000000	58.000000	0.000000	19.000000
1.030000	104.220000	79.970000	0.000000	0.000000	149.000000	59.000000	12.000000	25.000000
1.040000	104.220000	80.240000	0.000000	0.000000	145.000000	60.000000	0.000000	27.000000
1.050000	104.130000	80.530000	0.000000	0.000000	142.000000	61.000000	-9.000000	29.000000
1.060000	104.220000	80.830000	0.000000	0.000000	141.000000	61.000000	9.000000	30.000000
1.070000	103.870000	81.060000	0.000000	0.000000	137.000000	62.000000	-35.000000	23.000000
1.080000	103.220000	81.290000	0.000000	0.000000	135.000000	63.000000	-65.000000	23.000000
1.090000	102.950000	81.390000	0.000000	0.000000	132.000000	63.000000	-27.000000	10.000000
1.100000	102.340000	81.390000	0.000000	0.000000	130.000000	62.000000	-61.000000	0.000000
1.110000	101.500000	81.230000	0.000000	0.000000	129.000000	61.000000	-84.000000	-16.000000
1.120000	101.120000	81.150000	0.000000	0.000000	125.000000	60.000000	-38.000000	-8.000000
1.130000	100.690000	81.150000	0.000000	0.000000	124.000000	60.000000	-43.000000	0.000000
1.140000	100.220000	81.150000	0.000000	0.000000	120.000000	57.000000	-47.000000	0.000000
1.150000	100.080000	81.150000	0.000000	0.000000	117.000000	56.000000	-14.000000	0.000000
1.160000	99.960000	81.260000	0.000000	0.000000	114.000000	55.000000	-12.000000	11.000000
1.170000	99.830000	81.330000	0.000000	0.000000	112.000000	53.000000	-13.000000	7.000000
1.180000	99.540000	81.400000	0.000000	0.000000	110.000000	51.000000	-29.000000	7.000000
1.190000	99.170000	81.400000	0.000000	0.000000	110.000000	51.000000	-37.000000	0.000000
1.200000	98.710000	81.470000	0.000000	0.000000	111.000000	53.000000	-46.000000	7.000000
1.210000	98.380000	81.470000	0.000000	0.000000	113.000000	56.000000	-33.000000	0.000000
1.220000	98.130000	81.340000	0.000000	0.000000	118.000000	59.000000	-25.000000	-13.000000
1.230000	97.960000	81.130000	0.000000	0.000000	123.000000	62.000000	-17.000000	-21.000000
1.240000	97.790000	80.820000	0.000000	0.000000	127.000000	64.000000	-17.000000	-31.000000
1.250000	97.600000	80.470000	0.000000	0.000000	133.000000	66.000000	-19.000000	-35.000000
1.260000	97.360000	80.100000	0.000000	0.000000	139.000000	68.000000	-24.000000	-37.000000
1.270000	97.070000	79.830000	0.000000	0.000000	143.000000	69.000000	-29.000000	-27.000000
1.280000	96.730000	79.550000	0.000000	0.000000	147.000000	69.000000	-34.000000	-28.000000
1.290000	96.150000	79.340000	0.000000	0.000000	148.000000	67.000000	-58.000000	-21.000000
1.300000	95.620000	79.170000	0.000000	0.000000	148.000000	65.000000	-53.000000	-17.000000
1.310000	95.160000	78.970000	0.000000	0.000000	147.000000	62.000000	-46.000000	-20.000000
1.320000	94.880000	78.860000	0.000000	0.000000	149.000000	59.000000	-28.000000	-11.000000
1.330000	94.710000	78.800000	0.000000	0.000000	150.000000	57.000000	-17.000000	-6.000000
1.340000	94.650000	78.800000	0.000000	0.000000	151.000000	54.000000	-6.000000	0.000000
1.350000	94.590000	78.730000	0.000000	0.000000	153.000000	53.000000	-6.000000	-7.000000
1.360000	94.540000	78.730000	0.000000	0.000000	153.000000	52.000000	-5.000000	0.000000
1.370000	94.290000	78.560000	0.000000	0.000000	153.000000	51.000000	-25.000000	-17.000000
1.380000	94.030000	78.360000	0.000000	0.000000	153.000000	52.000000	-26.000000	-20.000000
1.390000	93.800000	78.170000	0.000000	0.000000	151.000000	51.000000	-23.000000	-19.000000
1.400000	93.600000	78.000000	0.000000	0.000000	150.000000	52.000000	-20.000000	-17.000000
1.410000	93.530000	77.910000	0.000000	0.000000	149.000000	53.000000	-7.000000	-9.000000
1.420000	93.530000	77.980000	0.000000	0.000000	149.000000	53.000000	0.000000	7.000000
1.430000	93.530000	78.170000	0.000000	0.000000	148.000000	54.000000	0.000000	19.000000
1.440000	93.530000	78.250000	0.000000	0.000000	148.000000	54.000000	0.000000	8.000000
1.450000	93.470000	78.250000	0.000000	0.000000	147.000000	55.000000	-6.000000	0.000000
1.460000	93.330000	78.250000	0.000000	0.000000	147.000000	55.000000	-14.000000	0.000000
1.470000	93.160000	78.250000	0.000000	0.000000	149.000000	55.000000	-17.000000	0.000000
1.480000	93.010000	78.110000	0.000000	0.000000	148.000000	56.000000	-15.000000	-14.000000
1.490000	92.900000	77.940000	0.000000	0.000000	148.000000	56.000000	-11.000000	-17.000000
1.500000	92.900000	77.940000	0.000000	0.000000	148.000000	56.000000	0.000000	0.000000
1.510000	92.900000	77.940000	0.000000	0.000000	147.000000	56.000000	0.000000	0.000000
1.520000	92.900000	77.940000	0.000000	0.000000	147.000000	56.000000	0.000000	0.000000
1.530000	93.180000	77.740000	0.000000	0.000000	146.000000	57.000000	28.000000	-20.000000
1.540000	93.370000	77.840000	0.000000	0.000000	146.000000	57.000000	19.000000	10.000000
1.550000	93.600000	77.910000	0.000000	0.000000	147.000000	58.000000	23.000000	7.000000
1.560000	93.300000	77.980000	0.000000	0.000000	146.000000	58.000000	-30.000000	7.000000
1.570000	93.220000	77.980000	0.000000	0.000000	146.000000	58.000000	-8.000000	0.000000
1.580000	93.290000	77.890000	0.000000	0.000000	146.000000	58.000000	7.000000	-9.000000
1.590000	93.360000	77.820000	0.000000	0.000000	146.000000	58.000000	7.000000	-7.000000
1.600000	93.450000	77.750000	0.000000	0.000000	146.000000	58.000000	9.000000	-7.000000
1.610000	93.560000	77.670000	0.000000	0.000000	146.000000	58.000000	11.000000	-8.000000
1.620000	93.670000	77.580000	0.000000	0.000000	146.000000	58.000000	11.000000	-9.000000
1.630000	93.670000	77.580000	137.000000	1.000000	146.000000	58.000000	0.000000	0.000000
1.640000	93.670000	77.580000	242.000000	0.000000	146.000000	58.000000	0.000000	0.000000
1.650000	93.670000	77.580000	382.000000	0.000000	146.000000	58.000000	0.000000	0.000000
1.660000	93.670000	77.580000	460.000000	0.000000	145.000000	59.000000	0.000000	0.000000
1.670000	93.670000	77.580000	497.000000	0.000000	145.000000	59.000000	0.000000	0.000000
1.680000	93.980000	77.870000	519.000000	0.000000	145.000000	59.000000	31.000000	29.000000
1.690000	94.180000	78.230000	537.000000	0.000000	145.000000	59.000000	20.000000	36.000000
1.700000	94.440000	78.700000	540.000000	0.000000	146.000000	58.000000	26.000000	47.000000
1.710000	94.690000	79.240000	546.000000	0.000000	146.000000	58.000000	25.000000	54.000000
1.720000	94.900000	79.840000	554.000000	0.000000	146.000000	58.000000	21.000000	60.000000
1.730000	95.110000	80.470000	561.000000	0.000000	146.000000	58.000000	21.000000	63.000000
1.740000	95.220000	81.130000	559.000000	0.000000	147.000000	58.000000	11.000000	66.000000
1.750000	95.220000	81.610000	561.000000	0.000000	146.000000	57.000000	0.000000	48.000000
1.760000	95.220000	81.920000	565.000000	0.000000	146.000000	57.000000	0.000000	31.000000
1.770000	95.170000	82.120000	580.000000	0.000000	145.000000	56.000000	-5.000000	20.000000
1.780000	95.170000	82.120000	586.000000	0.000000	145.000000	56.000000	0.000000	0.000000
1.790000	95.170000	82.120000	586.000000	0.000000	145.000000	56.000000	0.000000	0.000000
1.800000	95.120000	82.120000	588.000000	0.000000	144.000000	56.000000	-5.000000	0.000000
1.810000	95.030000	81.860000	591.000000	0.000000	144.000000	56.000000	-9.000000	-26.000000
1.820000	94.960000	81.470000	585.000000	0.000000	144.000000	56.000000	-7.000000	-39.000000
1.830000	94.960000	81.110000	591.000000	0.000000	144.000000	56.000000	0.000000	-36.000000
1.840000	95.090000	80.820000	592.000000	0.000000	144.000000	56.000000	13.000000	-29.000000
1.850000	95.280000	80.580000	597.000000	0.000000	144.000000	56.000000	19.000000	-24.000000
1.860000	95.510000	80.410000	600.000000	0.000000	145.000000	56.000000	23.000000	-17.000000
1.870000	95.790000	80.410000	602.000000	0.000000	145.000000	56.000000	28.000000	0.000000
1.880000	96.090000	80.520000	603.000000	0.000000	144.000000	57.000000	30.000000	11.000000
1.890000	96.450000	80.780000	605.000000	0.000000	144.000000	57.000000	36.000000	26.000000
1.900000	96.660000	81.040000	603.000000	0.000000	144.000000	57.000000	21.000000	26.000000
1.910000	96.760000	81.290000	603.000000	0.000000	144.000000	57.000000	10.000000	25.000000
1.920000	96.760000	81.550000	606.000000	0.000000	144.000000	57.000000	0.000000	26.000000
1.930000	96.760000	81.680000	614.000000	0.000000	144.000000	57.000000	0.000000	13.000000
1.940000	96.760000	81.680000	620.000000	0.000000	144.000000	57.000000	0.000000	0.000000
1.950000	96.760000	81.680000	611.000000	0.000000	145.000000	56.000000	0.000000	0.000000
1.960000	96.760000	81.680000	628.000000	0.000000	145.000000	56.000000	0.000000	0.000000
1.970000	96.540000	81.420000	637.000000	0.000000	145.000000	56.000000	-22.000000	-26.000000
1.980000	96.470000	81.080000	671.000000	0.000000	145.000000	56.000000	-7.000000	-34.000000
1.990000	96.470000	80.800000	685.000000	0.000000	145.000000	56.000000	0.000000	-28.000000
2.000000	96.470000	80.510000	697.000000	0.000000	145.000000	56.000000	0.000000	-29.000000
2.010000	96.580000	80.190000	719.000000	0.000000	145.000000	56.000000	11.000000	-32.000000
2.020000	96.670000	79.870000	721.000000	0.000000	144.000000	57.000000	9.000000	-32.000000
2.030000	96.790000	79.650000	725.000000	0.000000	144.000000	57.000000	12.000000	-22.000000
2.040000	96.940000	79.480000	722.000000	0.000000	144.000000	57.000000	15.000000	-17.000000
2.050000	97.070000	79.420000	694.000000	0.000000	143.000000	57.000000	13.000000	-6.000000
2.060000	97.150000	79.420000	613.000000	0.000000	143.000000	57.000000	8.000000	0.000000
2.070000	97.240000	79.420000	386.000000	0.000000	142.000000	58.000000	9.000000	0.000000
2.080000	97.240000	79.420000	0.000000	1.000000	143.000000	59.000000	0.000000	0.000000
2.090000	97.370000	79.630000	0.000000	0.000000	143.000000	59.000000	13.000000	21.000000
2.100000	97.370000	79.750000	0.000000	0.000000	143.000000	59.000000	0.000000	12.000000
2.110000	97.440000	79.930000	0.000000	0.000000	142.000000	59.000000	7.000000	18.000000
2.120000	97.550000	80.100000	0.000000	0.000000	142.000000	59.000000	11.000000	17.000000
2.130000	97.760000	80.220000	0.000000	0.000000	144.000000	60.000000	21.000000	12.000000
2.140000	98.020000	80.310000	0.000000	0.000000	144.000000	60.000000	26.000000	9.000000
2.150000	98.250000	80.470000	0.000000	0.000000	142.000000	61.000000	23.000000	16.000000
2.160000	98.410000	80.560000	0.000000	0.000000	144.000000	61.000000	16.000000	9.000000
2.170000	98.530000	80.560000	0.000000	0.000000	144.000000	61.000000	12.000000	0.000000
2.180000	98.620000	80.560000	0.000000	0.000000	144.000000	61.000000	9.000000	0.000000
2.190000	98.620000	80.560000	0.000000	0.000000	146.000000	62.000000	0.000000	0.000000
2.200000	98.620000	80.560000	0.000000	0.000000	146.000000	62.000000	0.000000	0.000000
2.210000	98.620000	80.560000	0.000000	0.000000	146.000000	62.000000	0.000000	0.000000
2.220000	98.870000	80.560000	0.000000	0.000000	146.000000	62.000000	25.000000	0.000000
