t	x	y	pressure	penup	azimuth	inclination	v_x	v_y
0.000000	51.730000	35.840000	49.000000	1.000000	128.000000	59.000000	0.000000	0.000000
0.010000	51.730000	35.840000	81.000000	0.000000	128.000000	59.000000	0.000000	0.000000
0.020000	51.730000	35.840000	132.000000	0.000000	128.000000	59.000000	0.000000	0.000000
0.030000	51.730000	35.840000	148.000000	0.000000	128.000000	59.000000	0.000000	0.000000
0.040000	51.730000	35.840000	172.000000	0.000000	126.000000	60.000000	0.000000	0.000000
0.050000	51.730000	35.840000	190.000000	0.000000	126.000000	60.000000	0.000000	0.000000
0.060000	51.730000	35.840000	239.000000	0.000000	126.000000	60.000000	0.000000	0.000000
0.070000	51.950000	35.500000	247.000000	0.000000	126.000000	60.000000	22.000000	-34.000000
0.080000	52.130000	35.190000	262.000000	0.000000	128.000000	61.000000	18.000000	-31.000000
0.090000	52.330000	34.820000	284.000000	0.000000	128.000000	61.000000	20.000000	-37.000000
0.100000	52.540000	34.320000	286.000000	0.000000	128.000000	61.000000	21.000000	-50.000000
0.110000	52.760000	33.730000	297.000000	0.000000	128.000000	61.000000	22.000000	-59.000000
0.120000	53.020000	32.920000	314.000000	0.000000	128.000000	61.000000	26.000000	-81.000000
0.130000	53.320000	31.980000	309.000000	0.000000	128.000000	61.000000	30.000000	-94.000000
0.140000	53.660000	31.080000	314.000000	0.000000	129.000000	60.000000	34.000000	-90.000000
0.150000	54.000000	30.220000	315.000000	0.000000	129.000000	60.000000	34.000000	-86.000000
0.160000	54.320000	29.380000	327.000000	0.000000	129.000000	60.000000	32.000000	-84.000000
0.170000	54.650000	28.690000	345.000000	0.000000	131.000000	61.000000	33.000000	-69.000000
0.180000	54.940000	28.170000	363.000000	0.000000	131.000000	61.000000	29.000000	-52.000000
0.190000	55.200000	27.760000	371.000000	0.000000	131.000000	61.000000	26.000000	-41.000000
0.200000	55.400000	27.490000	371.000000	0.000000	129.000000	61.000000	20.000000	-27.000000
0.210000	55.470000	27.400000	391.000000	0.000000	129.000000	61.000000	7.000000	-9.000000
0.220000	55.470000	27.400000	430.000000	0.000000	130.000000	62.000000	0.000000	0.000000
0.230000	55.470000	27.500000	461.000000	0.000000	129.000000	63.000000	0.000000	10.000000
0.240000	55.300000	27.650000	466.000000	0.000000	129.000000	63.000000	-17.000000	15.000000
0.250000	55.090000	27.860000	485.000000	0.000000	129.000000	63.000000	-21.000000	21.000000
0.260000	54.910000	28.100000	496.000000	0.000000	129.000000	63.000000	-18.000000	24.000000
0.270000	54.680000	28.350000	489.000000	0.000000	129.000000	63.000000	-23.000000	25.000000
0.280000	54.360000	28.580000	494.000000	0.000000	129.000000	63.000000	-32.000000	23.000000
0.290000	53.990000	28.760000	502.000000	0.000000	127.000000	62.000000	-37.000000	18.000000
0.300000	53.500000	28.870000	520.000000	0.000000	129.000000	61.000000	-49.000000	11.000000
0.310000	52.910000	28.920000	519.000000	0.000000	129.000000	61.000000	-59.000000	5.000000
0.320000	52.240000	28.920000	529.000000	0.000000	129.000000	61.000000	-67.000000	0.000000
0.330000	51.520000	28.800000	537.000000	0.000000	129.000000	61.000000	-72.000000	-12.000000
0.340000	50.770000	28.600000	540.000000	0.000000	129.000000	61.000000	-75.000000	-20.000000
0.350000	49.990000	28.340000	537.000000	0.000000	129.000000	61.000000	-78.000000	-26.000000
0.360000	49.240000	28.040000	546.000000	0.000000	130.000000	62.000000	-75.000000	-30.000000
0.370000	48.510000	27.690000	540.000000	0.000000	130.000000	62.000000	-73.000000	-35.000000
0.380000	47.820000	27.320000	553.000000	0.000000	129.000000	63.000000	-69.000000	-37.000000
0.390000	47.170000	26.940000	570.000000	0.000000	129.000000	63.000000	-65.000000	-38.000000
0.400000	46.620000	26.600000	578.000000	0.000000	129.000000	63.000000	-55.000000	-34.000000
0.410000	46.290000	26.360000	595.000000	0.000000	127.000000	63.000000	-33.000000	-24.000000
0.420000	46.090000	26.190000	606.000000	0.000000	127.000000	63.000000	-20.000000	-17.000000
0.430000	46.090000	26.140000	613.000000	0.000000	124.000000	63.000000	0.000000	-5.000000
0.440000	46.090000	26.140000	617.000000	0.000000	122.000000	63.000000	0.000000	0.000000
0.450000	46.360000	26.140000	665.000000	0.000000	122.000000	63.000000	27.000000	0.000000
0.460000	46.740000	26.140000	700.000000	0.000000	120.000000	64.000000	38.000000	0.000000
0.470000	47.720000	26.360000	708.000000	0.000000	120.000000	64.000000	98.000000	22.000000
0.480000	49.080000	26.640000	717.000000	0.000000	120.000000	64.000000	136.000000	28.000000
0.490000	50.680000	27.140000	731.000000	0.000000	122.000000	65.000000	160.000000	50.000000
0.500000	52.730000	27.810000	758.000000	0.000000	124.000000	64.000000	205.000000	67.000000
0.510000	55.210000	28.600000	797.000000	0.000000	124.000000	64.000000	248.000000	79.000000
0.520000	57.970000	29.360000	817.000000	0.000000	127.000000	64.000000	276.000000	76.000000
0.530000	60.720000	30.100000	821.000000	0.000000	129.000000	64.000000	275.000000	74.000000
0.540000	63.470000	30.810000	836.000000	0.000000	132.000000	64.000000	275.000000	71.000000
0.550000	66.020000	31.450000	836.000000	0.000000	133.000000	63.000000	255.000000	64.000000
0.560000	68.440000	32.020000	818.000000	0.000000	137.000000	63.000000	242.000000	57.000000
0.570000	70.470000	32.420000	779.000000	0.000000	137.000000	63.000000	203.000000	40.000000
0.580000	72.070000	32.710000	675.000000	0.000000	138.000000	64.000000	160.000000	29.000000
0.590000	73.370000	32.870000	515.000000	0.000000	141.000000	64.000000	130.000000	16.000000
0.600000	74.090000	32.870000	226.000000	0.000000	141.000000	64.000000	72.000000	0.000000
0.610000	74.090000	32.870000	0.000000	1.000000	141.000000	64.000000	0.000000	0.000000
0.620000	74.090000	32.590000	0.000000	0.000000	143.000000	63.000000	0.000000	-28.000000
0.630000	73.480000	32.460000	0.000000	0.000000	143.000000	63.000000	-61.000000	-13.000000
0.640000	72.630000	32.380000	0.000000	0.000000	143.000000	63.000000	-85.000000	-8.000000
0.650000	71.630000	32.380000	0.000000	0.000000	143.000000	63.000000	-100.000000	0.000000
0.660000	70.630000	32.380000	0.000000	0.000000	143.000000	63.000000	-100.000000	0.000000
0.670000	69.490000	32.450000	0.000000	0.000000	143.000000	63.000000	-114.000000	7.000000
0.680000	68.250000	32.380000	0.000000	0.000000	141.000000	63.000000	-124.000000	-7.000000
0.690000	66.940000	32.290000	0.000000	0.000000	141.000000	63.000000	-131.000000	-9.000000
0.700000	65.580000	32.160000	0.000000	0.000000	141.000000	63.000000	-136.000000	-13.000000
0.710000	64.190000	32.040000	0.000000	0.000000	141.000000	61.000000	-139.000000	-12.000000
0.720000	62.730000	31.890000	0.000000	0.000000	141.000000	61.000000	-146.000000	-15.000000
0.730000	61.320000	31.770000	0.000000	0.000000	139.000000	61.000000	-141.000000	-12.000000
0.740000	60.190000	31.710000	0.000000	0.000000	138.000000	60.000000	-113.000000	-6.000000
0.750000	59.240000	31.710000	0.000000	0.000000	136.000000	60.000000	-95.000000	0.000000
0.760000	58.580000	31.710000	0.000000	0.000000	136.000000	60.000000	-66.000000	0.000000
0.770000	58.070000	31.780000	0.000000	0.000000	134.000000	60.000000	-51.000000	7.000000
0.780000	57.660000	31.890000	0.000000	0.000000	132.000000	59.000000	-41.000000	11.000000
0.790000	57.450000	31.970000	0.000000	0.000000	132.000000	59.000000	-21.000000	8.000000
0.800000	57.300000	32.030000	0.000000	0.000000	134.000000	60.000000	-15.000000	6.000000
0.810000	57.300000	32.030000	0.000000	0.000000	135.000000	60.000000	0.000000	0.000000
0.820000	57.460000	31.940000	0.000000	0.000000	136.000000	61.000000	16.000000	-9.000000
0.830000	57.570000	31.800000	0.000000	0.000000	136.000000	61.000000	11.000000	-14.000000
0.840000	57.670000	31.600000	0.000000	0.000000	137.000000	62.000000	10.000000	-20.000000
0.850000	57.760000	31.350000	0.000000	0.000000	138.000000	63.000000	9.000000	-25.000000
0.860000	57.870000	31.100000	0.000000	0.000000	138.000000	63.000000	11.000000	-25.000000
0.870000	57.870000	30.880000	0.000000	0.000000	138.000000	63.000000	0.000000	-22.000000
0.880000	57.870000	30.630000	0.000000	0.000000	137.000000	62.000000	0.000000	-25.000000
0.890000	57.770000	30.410000	0.000000	0.000000	135.000000	63.000000	-10.000000	-22.000000
0.900000	57.640000	30.200000	0.000000	0.000000	135.000000	63.000000	-13.000000	-21.000000
0.910000	57.500000	30.000000	0.000000	0.000000	133.000000	62.000000	-14.000000	-20.000000
0.920000	57.290000	29.840000	0.000000	0.000000	133.000000	62.000000	-21.000000	-16.000000
0.930000	57.060000	29.710000	0.000000	0.000000	132.000000	63.000000	-23.000000	-13.000000
0.940000	56.810000	29.610000	0.000000	0.000000	133.000000	63.000000	-25.000000	-10.000000
0.950000	56.580000	29.610000	0.000000	0.000000	133.000000	63.000000	-23.000000	0.000000
0.960000	56.360000	29.610000	0.000000	0.000000	135.000000	64.000000	-22.000000	0.000000
0.970000	56.140000	29.670000	0.000000	0.000000	135.000000	64.000000	-22.000000	6.000000
0.980000	55.930000	29.730000	0.000000	0.000000	135.000000	64.000000	-21.000000	6.000000
0.990000	55.750000	29.800000	0.000000	0.000000	133.000000	63.000000	-18.000000	7.000000
1.000000	55.590000	29.910000	0.000000	0.000000	133.000000	63.000000	-16.000000	11.000000
1.010000	55.470000	30.010000	0.000000	0.000000	132.000000	63.000000	-12.000000	10.000000
1.020000	55.380000	30.080000	0.000000	0.000000	132.000000	63.000000	-9.000000	7.000000
1.030000	55.380000	30.150000	0.000000	0.000000	132.000000	63.000000	0.000000	7.000000
1.040000	55.310000	30.150000	0.000000	0.000000	130.000000	62.000000	-7.000000	0.000000
1.050000	55.310000	30.220000	0.000000	0.000000	130.000000	62.000000	0.000000	7.000000
1.060000	55.310000	30.220000	0.000000	0.000000	130.000000	62.000000	0.000000	0.000000
1.070000	55.310000	30.170000	0.000000	0.000000	129.000000	61.000000	0.000000	-5.000000
1.080000	55.310000	30.080000	0.000000	0.000000	131.000000	61.000000	0.000000	-9.000000
1.090000	55.360000	29.970000	0.000000	0.000000	131.000000	61.000000	5.000000	-11.000000
1.100000	55.410000	29.870000	0.000000	0.000000	129.000000	61.000000	5.000000	-10.000000
1.110000	55.480000	29.710000	0.000000	0.000000	129.000000	61.000000	7.000000	-16.000000
1.120000	55.550000	29.550000	0.000000	0.000000	129.000000	61.000000	7.000000	-16.000000
1.130000	55.630000	29.370000	0.000000	0.000000	129.000000	61.000000	8.000000	-18.000000
1.140000	55.630000	29.180000	0.000000	0.000000	129.000000	61.000000	0.000000	-19.000000
1.150000	55.690000	29.040000	0.000000	0.000000	129.000000	61.000000	6.000000	-14.000000
1.160000	55.690000	28.930000	0.000000	0.000000	129.000000	61.000000	0.000000	-11.000000
1.170000	55.750000	28.840000	0.000000	0.000000	129.000000	61.000000	6.000000	-9.000000
1.180000	55.750000	28.840000	0.000000	0.000000	129.000000	61.000000	0.000000	0.000000
1.190000	55.750000	28.840000	49.000000	1.000000	129.000000	61.000000	0.000000	0.000000
1.200000	55.750000	28.840000	91.000000	0.000000	129.000000	61.000000	0.000000	0.000000
1.210000	55.750000	28.840000	170.000000	0.000000	129.000000	61.000000	0.000000	0.000000
1.220000	55.750000	28.840000	241.000000	0.000000	129.000000	61.000000	0.000000	0.000000
1.230000	55.750000	28.840000	312.000000	0.000000	129.000000	61.000000	0.000000	0.000000
1.240000	55.800000	29.100000	353.000000	0.000000	129.000000	61.000000	5.000000	26.000000
1.250000	55.800000	29.400000	388.000000	0.000000	129.000000	61.000000	0.000000	30.000000
1.260000	55.870000	29.780000	417.000000	0.000000	129.000000	61.000000	7.000000	38.000000
1.270000	55.920000	30.220000	420.000000	0.000000	129.000000	61.000000	5.000000	44.000000
1.280000	55.920000	30.710000	418.000000	0.000000	129.000000	61.000000	0.000000	49.000000
1.290000	55.920000	31.400000	422.000000	0.000000	131.000000	61.000000	0.000000	69.000000
1.300000	55.920000	32.240000	422.000000	0.000000	131.000000	61.000000	0.000000	84.000000
1.310000	55.920000	33.190000	418.000000	0.000000	131.000000	61.000000	0.000000	95.000000
1.320000	55.920000	34.030000	423.000000	0.000000	131.000000	61.000000	0.000000	84.000000
1.330000	55.920000	34.500000	438.000000	0.000000	131.000000	61.000000	0.000000	47.000000
1.340000	55.920000	34.720000	441.000000	0.000000	131.000000	61.000000	0.000000	22.000000
1.350000	55.920000	34.720000	438.000000	0.000000	131.000000	61.000000	0.000000	0.000000
1.360000	55.920000	34.720000	423.000000	0.000000	131.000000	61.000000	0.000000	0.000000
1.370000	55.920000	34.720000	422.000000	0.000000	131.000000	61.000000	0.000000	0.000000
1.380000	55.920000	34.570000	423.000000	0.000000	131.000000	61.000000	0.000000	-15.000000
1.390000	55.920000	34.290000	422.000000	0.000000	131.000000	61.000000	0.000000	-28.000000
1.400000	55.980000	33.930000	425.000000	0.000000	131.000000	61.000000	6.000000	-36.000000
1.410000	56.090000	33.440000	425.000000	0.000000	131.000000	61.000000	11.000000	-49.000000
1.420000	56.270000	32.930000	425.000000	0.000000	131.000000	61.000000	18.000000	-51.000000
1.430000	56.460000	32.340000	425.000000	0.000000	132.000000	61.000000	19.000000	-59.000000
1.440000	56.660000	31.790000	423.000000	0.000000	132.000000	61.000000	20.000000	-55.000000
1.450000	56.900000	31.280000	428.000000	0.000000	132.000000	61.000000	24.000000	-51.000000
1.460000	57.140000	30.960000	430.000000	0.000000	135.000000	62.000000	24.000000	-32.000000
1.470000	57.350000	30.790000	448.000000	0.000000	135.000000	62.000000	21.000000	-17.000000
1.480000	57.550000	30.710000	458.000000	0.000000	135.000000	62.000000	20.000000	-8.000000
1.490000	57.620000	30.710000	473.000000	0.000000	137.000000	62.000000	7.000000	0.000000
1.500000	57.710000	30.940000	492.000000	0.000000	137.000000	62.000000	9.000000	23.000000
1.510000	57.820000	31.230000	501.000000	0.000000	138.000000	61.000000	11.000000	29.000000
1.520000	57.820000	31.610000	507.000000	0.000000	138.000000	61.000000	0.000000	38.000000
1.530000	57.820000	32.020000	510.000000	0.000000	138.000000	61.000000	0.000000	41.000000
1.540000	57.820000	32.460000	510.000000	0.000000	138.000000	61.000000	0.000000	44.000000
1.550000	57.820000	32.830000	510.000000	0.000000	137.000000	62.000000	0.000000	37.000000
1.560000	57.820000	33.140000	520.000000	0.000000	135.000000	62.000000	0.000000	31.000000
1.570000	57.770000	33.270000	516.000000	0.000000	135.000000	62.000000	-5.000000	13.000000
1.580000	57.770000	33.270000	515.000000	0.000000	135.000000	62.000000	0.000000	0.000000
1.590000	57.770000	33.270000	509.000000	0.000000	135.000000	62.000000	0.000000	0.000000
1.600000	57.770000	33.270000	501.000000	0.000000	135.000000	62.000000	0.000000	0.000000
1.610000	57.770000	33.140000	501.000000	0.000000	137.000000	62.000000	0.000000	-13.000000
1.620000	57.770000	32.930000	501.000000	0.000000	137.000000	62.000000	0.000000	-21.000000
1.630000	57.830000	32.630000	502.000000	0.000000	137.000000	62.000000	6.000000	-30.000000
1.640000	57.830000	32.260000	504.000000	0.000000	137.000000	62.000000	0.000000	-37.000000
1.650000	57.990000	31.820000	502.000000	0.000000	137.000000	62.000000	16.000000	-44.000000
1.660000	58.120000	31.360000	501.000000	0.000000	137.000000	62.000000	13.000000	-46.000000
1.670000	58.250000	30.880000	501.000000	0.000000	135.000000	62.000000	13.000000	-48.000000
1.680000	58.380000	30.510000	501.000000	0.000000	135.000000	62.000000	13.000000	-37.000000
1.690000	58.490000	30.210000	502.000000	0.000000	135.000000	62.000000	11.000000	-30.000000
1.700000	58.660000	29.990000	499.000000	0.000000	135.000000	62.000000	17.000000	-22.000000
1.710000	58.840000	29.940000	493.000000	0.000000	137.000000	62.000000	18.000000	-5.000000
1.720000	59.020000	30.000000	458.000000	0.000000	137.000000	62.000000	18.000000	6.000000
1.730000	59.220000	30.070000	398.000000	0.000000	137.000000	62.000000	20.000000	7.000000
1.740000	59.410000	30.220000	309.000000	0.000000	138.000000	63.000000	19.000000	15.000000
1.750000	59.560000	30.430000	180.000000	0.000000	138.000000	63.000000	15.000000	21.000000
1.760000	59.670000	30.540000	65.000000	0.000000	138.000000	63.000000	11.000000	11.000000
1.770000	59.670000	30.540000	0.000000	1.000000	138.000000	63.000000	0.000000	0.000000
1.780000	59.860000	30.850000	0.000000	0.000000	138.000000	63.000000	19.000000	31.000000
1.790000	59.960000	31.060000	0.000000	0.000000	138.000000	63.000000	10.000000	21.000000
1.800000	59.960000	31.060000	51.000000	1.000000	138.000000	63.000000	0.000000	0.000000
1.810000	60.070000	31.480000	117.000000	0.000000	140.000000	62.000000	11.000000	42.000000
1.820000	60.070000	31.660000	205.000000	0.000000	140.000000	62.000000	0.000000	18.000000
1.830000	60.070000	31.790000	285.000000	0.000000	140.000000	62.000000	0.000000	13.000000
1.840000	60.010000	31.850000	361.000000	0.000000	140.000000	62.000000	-6.000000	6.000000
1.850000	59.940000	31.850000	389.000000	0.000000	140.000000	62.000000	-7.000000	0.000000
1.860000	59.890000	31.850000	394.000000	0.000000	140.000000	62.000000	-5.000000	0.000000
1.870000	59.780000	31.850000	400.000000	0.000000	140.000000	62.000000	-11.000000	0.000000
1.880000	59.630000	31.850000	400.000000	0.000000	140.000000	62.000000	-15.000000	0.000000
1.890000	59.560000	31.740000	404.000000	0.000000	140.000000	62.000000	-7.000000	-11.000000
1.900000	59.510000	31.650000	404.000000	0.000000	140.000000	62.000000	-5.000000	-9.000000
1.910000	59.510000	31.420000	402.000000	0.000000	140.000000	62.000000	0.000000	-23.000000
1.920000	59.440000	31.190000	402.000000	0.000000	140.000000	62.000000	-7.000000	-23.000000
1.930000	59.440000	30.970000	402.000000	0.000000	140.000000	62.000000	0.000000	-22.000000
1.940000	59.440000	30.790000	402.000000	0.000000	140.000000	62.000000	0.000000	-18.000000
1.950000	59.590000	30.640000	402.000000	0.000000	140.000000	62.000000	15.000000	-15.000000
1.960000	59.760000	30.500000	407.000000	0.000000	140.000000	62.000000	17.000000	-14.000000
1.970000	59.960000	30.440000	422.000000	0.000000	140.000000	62.000000	20.000000	-6.000000
1.980000	60.210000	30.440000	425.000000	0.000000	140.000000	62.000000	25.000000	0.000000
1.990000	60.490000	30.550000	414.000000	0.000000	140.000000	62.000000	28.000000	11.000000
2.000000	60.720000	30.720000	418.000000	0.000000	140.000000	62.000000	23.000000	17.000000
2.010000	60.910000	30.930000	423.000000	0.000000	140.000000	62.000000	19.000000	21.000000
2.020000	61.040000	31.160000	433.000000	0.000000	140.000000	62.000000	13.000000	23.000000
2.030000	61.040000	31.280000	438.000000	0.000000	140.000000	62.000000	0.000000	12.000000
2.040000	60.930000	31.410000	441.000000	0.000000	140.000000	62.000000	-11.000000	13.000000
2.050000	60.780000	31.550000	438.000000	0.000000	140.000000	62.000000	-15.000000	14.000000
2.060000	60.580000	31.630000	423.000000	0.000000	140.000000	62.000000	-20.000000	8.000000
2.070000	60.350000	31.630000	417.000000	0.000000	140.000000	62.000000	-23.000000	0.000000
2.080000	60.150000	31.630000	361.000000	0.000000	140.000000	62.000000	-20.000000	0.000000
2.090000	59.970000	31.700000	267.000000	0.000000	140.000000	62.000000	-18.000000	7.000000
2.100000	59.860000	31.700000	91.000000	0.000000	140.000000	62.000000	-11.000000	0.000000
2.110000	59.860000	31.700000	0.000000	1.000000	140.000000	62.000000	0.000000	0.000000
2.120000	59.810000	31.570000	0.000000	0.000000	140.000000	62.000000	-5.000000	-13.000000
2.130000	59.940000	31.500000	0.000000	0.000000	140.000000	62.000000	13.000000	-7.000000
2.140000	60.140000	31.500000	0.000000	0.000000	140.000000	62.000000	20.000000	0.000000
2.150000	60.390000	31.500000	0.000000	0.000000	140.000000	62.000000	25.000000	0.000000
2.160000	60.670000	31.500000	0.000000	0.000000	140.000000	62.000000	28.000000	0.000000
2.170000	60.970000	31.580000	0.000000	0.000000	140.000000	62.000000	30.000000	8.000000
2.180000	60.970000	31.580000	53.000000	1.000000	140.000000	62.000000	0.000000	0.000000
2.190000	61.390000	31.780000	90.000000	0.000000	140.000000	62.000000	42.000000	20.000000
2.200000	61.490000	31.880000	151.000000	0.000000	140.000000	62.000000	10.000000	10.000000
2.210000	61.490000	31.950000	212.000000	0.000000	140.000000	62.000000	0.000000	7.000000
2.220000	61.490000	32.020000	242.000000	0.000000	140.000000	62.000000	0.000000	7.000000
