t	x	y	pressure	penup	azimuth	inclination	v_x	v_y
0.000000	77.120000	51.160000	139.000000	1.000000	155.000000	52.000000	0.000000	0.000000
0.010000	77.120000	51.160000	211.000000	0.000000	155.000000	52.000000	0.000000	0.000000
0.020000	76.610000	50.290000	306.000000	0.000000	155.000000	52.000000	-51.000000	-87.000000
0.030000	76.410000	48.640000	396.000000	0.000000	155.000000	52.000000	-20.000000	-165.000000
0.040000	76.240000	46.570000	455.000000	0.000000	155.000000	52.000000	-17.000000	-207.000000
0.050000	76.120000	44.210000	494.000000	0.000000	155.000000	52.000000	-12.000000	-236.000000
0.060000	76.120000	42.010000	530.000000	0.000000	154.000000	53.000000	0.000000	-220.000000
0.070000	76.280000	40.150000	553.000000	0.000000	153.000000	54.000000	16.000000	-186.000000
0.080000	76.610000	38.530000	569.000000	0.000000	154.000000	55.000000	33.000000	-162.000000
0.090000	76.910000	37.120000	578.000000	0.000000	153.000000	56.000000	30.000000	-141.000000
0.100000	77.360000	36.250000	592.000000	0.000000	152.000000	57.000000	45.000000	-87.000000
0.110000	77.910000	35.730000	594.000000	0.000000	153.000000	58.000000	55.000000	-52.000000
0.120000	78.420000	35.380000	586.000000	0.000000	153.000000	58.000000	51.000000	-35.000000
0.130000	78.890000	35.380000	592.000000	0.000000	153.000000	59.000000	47.000000	0.000000
0.140000	79.320000	35.590000	595.000000	0.000000	152.000000	60.000000	43.000000	21.000000
0.150000	79.470000	36.030000	585.000000	0.000000	154.000000	60.000000	15.000000	44.000000
0.160000	79.280000	36.870000	533.000000	0.000000	154.000000	60.000000	-19.000000	84.000000
0.170000	78.860000	37.970000	466.000000	0.000000	154.000000	60.000000	-42.000000	110.000000
0.180000	77.440000	39.090000	475.000000	0.000000	154.000000	60.000000	-142.000000	112.000000
0.190000	75.470000	39.610000	546.000000	0.000000	154.000000	60.000000	-197.000000	52.000000
0.200000	73.120000	39.730000	561.000000	0.000000	155.000000	60.000000	-235.000000	12.000000
0.210000	70.560000	39.230000	591.000000	0.000000	155.000000	60.000000	-256.000000	-50.000000
0.220000	68.040000	38.670000	627.000000	0.000000	156.000000	59.000000	-252.000000	-56.000000
0.230000	66.530000	38.190000	647.000000	0.000000	154.000000	58.000000	-151.000000	-48.000000
0.240000	65.660000	37.780000	641.000000	0.000000	154.000000	58.000000	-87.000000	-41.000000
0.250000	65.810000	37.700000	641.000000	0.000000	153.000000	58.000000	15.000000	-8.000000
0.260000	67.030000	37.430000	673.000000	0.000000	153.000000	58.000000	122.000000	-27.000000
0.270000	68.950000	37.030000	697.000000	0.000000	151.000000	58.000000	192.000000	-40.000000
0.280000	71.750000	36.980000	749.000000	0.000000	153.000000	58.000000	280.000000	-5.000000
0.290000	75.370000	37.140000	751.000000	0.000000	153.000000	58.000000	362.000000	16.000000
0.300000	79.530000	37.430000	762.000000	0.000000	153.000000	58.000000	416.000000	29.000000
0.310000	83.470000	37.840000	759.000000	0.000000	154.000000	58.000000	394.000000	41.000000
0.320000	87.080000	38.240000	760.000000	0.000000	156.000000	59.000000	361.000000	40.000000
0.330000	90.480000	38.640000	771.000000	0.000000	157.000000	59.000000	340.000000	40.000000
0.340000	92.700000	38.780000	777.000000	0.000000	159.000000	59.000000	222.000000	14.000000
0.350000	94.020000	38.870000	776.000000	0.000000	159.000000	59.000000	132.000000	9.000000
0.360000	94.740000	38.870000	754.000000	0.000000	161.000000	60.000000	72.000000	0.000000
0.370000	94.640000	38.810000	662.000000	0.000000	161.000000	60.000000	-10.000000	-6.000000
0.380000	93.950000	38.810000	382.000000	0.000000	161.000000	59.000000	-69.000000	0.000000
0.390000	93.950000	38.810000	0.000000	1.000000	161.000000	59.000000	0.000000	0.000000
0.400000	91.260000	38.810000	0.000000	0.000000	161.000000	59.000000	-269.000000	0.000000
0.410000	89.510000	38.920000	0.000000	0.000000	161.000000	59.000000	-175.000000	11.000000
0.420000	87.650000	39.100000	0.000000	0.000000	161.000000	59.000000	-186.000000	18.000000
0.430000	86.090000	39.350000	0.000000	0.000000	161.000000	59.000000	-156.000000	25.000000
0.440000	84.740000	39.700000	0.000000	0.000000	161.000000	59.000000	-135.000000	35.000000
0.450000	83.540000	40.130000	0.000000	0.000000	161.000000	59.000000	-120.000000	43.000000
0.460000	82.550000	40.520000	0.000000	0.000000	161.000000	59.000000	-99.000000	39.000000
0.470000	81.820000	40.880000	0.000000	0.000000	160.000000	58.000000	-73.000000	36.000000
0.480000	81.260000	41.180000	0.000000	0.000000	160.000000	58.000000	-56.000000	30.000000
0.490000	80.910000	41.410000	0.000000	0.000000	159.000000	57.000000	-35.000000	23.000000
0.500000	80.610000	41.590000	0.000000	0.000000	157.000000	57.000000	-30.000000	18.000000
0.510000	80.450000	41.750000	0.000000	0.000000	157.000000	57.000000	-16.000000	16.000000
0.520000	80.380000	41.930000	0.000000	0.000000	158.000000	56.000000	-7.000000	18.000000
0.530000	80.280000	42.170000	0.000000	0.000000	157.000000	56.000000	-10.000000	24.000000
0.540000	80.160000	42.440000	0.000000	0.000000	157.000000	56.000000	-12.000000	27.000000
0.550000	80.030000	42.780000	0.000000	0.000000	158.000000	55.000000	-13.000000	34.000000
0.560000	79.830000	43.130000	0.000000	0.000000	158.000000	55.000000	-20.000000	35.000000
0.570000	79.630000	43.500000	0.000000	0.000000	158.000000	55.000000	-20.000000	37.000000
0.580000	79.440000	43.910000	0.000000	0.000000	158.000000	55.000000	-19.000000	41.000000
0.590000	79.440000	44.370000	0.000000	0.000000	158.000000	55.000000	0.000000	46.000000
0.600000	79.580000	44.870000	0.000000	0.000000	158.000000	55.000000	14.000000	50.000000
0.610000	79.800000	45.480000	0.000000	0.000000	158.000000	55.000000	22.000000	61.000000
0.620000	80.010000	46.100000	0.000000	0.000000	158.000000	55.000000	21.000000	62.000000
0.630000	80.010000	46.100000	139.000000	1.000000	158.000000	55.000000	0.000000	0.000000
0.640000	80.200000	47.210000	275.000000	0.000000	159.000000	55.000000	19.000000	111.000000
0.650000	80.250000	47.530000	379.000000	0.000000	159.000000	55.000000	5.000000	32.000000
0.660000	80.250000	47.750000	443.000000	0.000000	159.000000	55.000000	0.000000	22.000000
0.670000	80.250000	47.810000	477.000000	0.000000	160.000000	55.000000	0.000000	6.000000
0.680000	80.300000	47.690000	497.000000	0.000000	160.000000	55.000000	5.000000	-12.000000
0.690000	80.300000	47.450000	533.000000	0.000000	160.000000	55.000000	0.000000	-24.000000
0.700000	80.300000	46.710000	553.000000	0.000000	160.000000	55.000000	0.000000	-74.000000
0.710000	80.300000	45.600000	565.000000	0.000000	160.000000	55.000000	0.000000	-111.000000
0.720000	80.300000	44.250000	563.000000	0.000000	160.000000	56.000000	0.000000	-135.000000
0.730000	80.300000	42.920000	566.000000	0.000000	160.000000	56.000000	0.000000	-133.000000
0.740000	80.370000	41.940000	572.000000	0.000000	161.000000	57.000000	7.000000	-98.000000
0.750000	80.370000	41.190000	574.000000	0.000000	161.000000	57.000000	0.000000	-75.000000
0.760000	80.520000	40.810000	581.000000	0.000000	161.000000	57.000000	15.000000	-38.000000
0.770000	80.620000	40.720000	659.000000	0.000000	161.000000	57.000000	10.000000	-9.000000
0.780000	80.690000	40.830000	697.000000	0.000000	161.000000	57.000000	7.000000	11.000000
0.790000	80.820000	41.260000	714.000000	0.000000	161.000000	57.000000	13.000000	43.000000
0.800000	80.980000	42.320000	730.000000	0.000000	161.000000	57.000000	16.000000	106.000000
0.810000	81.070000	43.790000	719.000000	0.000000	161.000000	57.000000	9.000000	147.000000
0.820000	81.180000	45.540000	700.000000	0.000000	161.000000	57.000000	11.000000	175.000000
0.830000	81.320000	47.330000	700.000000	0.000000	161.000000	57.000000	14.000000	179.000000
0.840000	81.400000	49.160000	702.000000	0.000000	161.000000	57.000000	8.000000	183.000000
0.850000	81.400000	50.220000	697.000000	0.000000	161.000000	57.000000	0.000000	106.000000
0.860000	81.530000	50.610000	697.000000	0.000000	162.000000	56.000000	13.000000	39.000000
0.870000	81.530000	50.550000	691.000000	0.000000	164.000000	55.000000	0.000000	-6.000000
0.880000	81.530000	50.460000	690.000000	0.000000	164.000000	55.000000	0.000000	-9.000000
0.890000	81.460000	49.930000	702.000000	0.000000	164.000000	54.000000	-7.000000	-53.000000
0.900000	81.390000	49.110000	700.000000	0.000000	164.000000	54.000000	-7.000000	-82.000000
0.910000	81.280000	47.570000	700.000000	0.000000	164.000000	54.000000	-11.000000	-154.000000
0.920000	81.280000	46.080000	691.000000	0.000000	164.000000	54.000000	0.000000	-149.000000
0.930000	81.340000	44.630000	678.000000	0.000000	164.000000	54.000000	6.000000	-145.000000
0.940000	81.590000	43.270000	664.000000	0.000000	164.000000	55.000000	25.000000	-136.000000
0.950000	81.960000	42.310000	637.000000	0.000000	164.000000	55.000000	37.000000	-96.000000
0.960000	82.330000	41.630000	639.000000	0.000000	163.000000	56.000000	37.000000	-68.000000
0.970000	82.620000	41.420000	647.000000	0.000000	162.000000	56.000000	29.000000	-21.000000
0.980000	82.860000	41.520000	655.000000	0.000000	162.000000	56.000000	24.000000	10.000000
0.990000	83.140000	41.830000	661.000000	0.000000	162.000000	56.000000	28.000000	31.000000
1.000000	83.460000	42.000000	661.000000	0.000000	162.000000	56.000000	32.000000	17.000000
1.010000	83.750000	43.020000	661.000000	0.000000	160.000000	55.000000	29.000000	102.000000
1.020000	83.990000	44.610000	661.000000	0.000000	160.000000	56.000000	24.000000	159.000000
1.030000	84.200000	45.340000	661.000000	0.000000	160.000000	56.000000	21.000000	73.000000
1.040000	84.330000	45.600000	656.000000	0.000000	160.000000	56.000000	13.000000	26.000000
1.050000	84.410000	45.550000	652.000000	0.000000	160.000000	56.000000	8.000000	-5.000000
1.060000	84.410000	45.420000	658.000000	0.000000	157.000000	57.000000	0.000000	-13.000000
1.070000	84.340000	44.910000	665.000000	0.000000	157.000000	57.000000	-7.000000	-51.000000
1.080000	84.220000	44.140000	667.000000	0.000000	157.000000	57.000000	-12.000000	-77.000000
1.090000	84.130000	43.340000	668.000000	0.000000	157.000000	57.000000	-9.000000	-80.000000
1.100000	84.130000	42.660000	667.000000	0.000000	157.000000	57.000000	0.000000	-68.000000
1.110000	84.130000	42.070000	668.000000	0.000000	157.000000	57.000000	0.000000	-59.000000
1.120000	84.320000	41.600000	664.000000	0.000000	158.000000	56.000000	19.000000	-47.000000
1.130000	84.660000	41.340000	665.000000	0.000000	158.000000	56.000000	34.000000	-26.000000
1.140000	84.990000	41.210000	667.000000	0.000000	160.000000	56.000000	33.000000	-13.000000
1.150000	85.290000	41.320000	671.000000	0.000000	160.000000	55.000000	30.000000	11.000000
1.160000	85.570000	41.690000	671.000000	0.000000	160.000000	55.000000	28.000000	37.000000
1.170000	85.910000	42.230000	664.000000	0.000000	160.000000	55.000000	34.000000	54.000000
1.180000	86.230000	42.900000	667.000000	0.000000	160.000000	55.000000	32.000000	67.000000
1.190000	86.340000	43.540000	673.000000	0.000000	160.000000	55.000000	11.000000	64.000000
1.200000	86.340000	43.850000	688.000000	0.000000	160.000000	55.000000	0.000000	31.000000
1.210000	86.290000	43.950000	693.000000	0.000000	160.000000	55.000000	-5.000000	10.000000
1.220000	86.240000	43.950000	694.000000	0.000000	160.000000	55.000000	-5.000000	0.000000
1.230000	86.090000	43.600000	693.000000	0.000000	160.000000	55.000000	-15.000000	-35.000000
1.240000	85.870000	43.100000	697.000000	0.000000	160.000000	55.000000	-22.000000	-50.000000
1.250000	85.670000	42.590000	705.000000	0.000000	160.000000	55.000000	-20.000000	-51.000000
1.260000	85.670000	42.150000	703.000000	0.000000	160.000000	55.000000	0.000000	-44.000000
1.270000	85.760000	41.750000	703.000000	0.000000	160.000000	55.000000	9.000000	-40.000000
1.280000	85.910000	41.520000	707.000000	0.000000	160.000000	55.000000	15.000000	-23.000000
1.290000	86.060000	41.400000	710.000000	0.000000	160.000000	55.000000	15.000000	-12.000000
1.300000	86.260000	41.400000	716.000000	0.000000	160.000000	55.000000	20.000000	0.000000
1.310000	86.560000	41.560000	725.000000	0.000000	160.000000	55.000000	30.000000	16.000000
1.320000	86.840000	41.920000	727.000000	0.000000	162.000000	56.000000	28.000000	36.000000
1.330000	87.080000	42.380000	740.000000	0.000000	162.000000	56.000000	24.000000	46.000000
1.340000	87.150000	42.900000	746.000000	0.000000	162.000000	56.000000	7.000000	52.000000
1.350000	87.150000	43.410000	749.000000	0.000000	162.000000	56.000000	0.000000	51.000000
1.360000	87.010000	43.890000	751.000000	0.000000	162.000000	56.000000	-14.000000	48.000000
1.370000	86.820000	44.130000	739.000000	0.000000	162.000000	56.000000	-19.000000	24.000000
1.380000	86.750000	44.220000	700.000000	0.000000	162.000000	56.000000	-7.000000	9.000000
1.390000	86.750000	44.220000	592.000000	0.000000	162.000000	56.000000	0.000000	0.000000
1.400000	86.750000	44.220000	225.000000	0.000000	161.000000	57.000000	0.000000	0.000000
1.410000	86.750000	44.220000	0.000000	1.000000	160.000000	56.000000	0.000000	0.000000
1.420000	86.360000	43.440000	0.000000	0.000000	160.000000	56.000000	-39.000000	-78.000000
1.430000	86.490000	43.250000	0.000000	0.000000	160.000000	56.000000	13.000000	-19.000000
1.440000	86.650000	43.140000	0.000000	0.000000	160.000000	56.000000	16.000000	-11.000000
1.450000	86.900000	43.080000	0.000000	0.000000	160.000000	55.000000	25.000000	-6.000000
1.460000	87.190000	43.080000	0.000000	0.000000	160.000000	55.000000	29.000000	0.000000
1.470000	87.340000	43.230000	0.000000	0.000000	160.000000	55.000000	15.000000	15.000000
1.480000	87.340000	43.380000	0.000000	0.000000	160.000000	55.000000	0.000000	15.000000
1.490000	87.290000	43.480000	0.000000	0.000000	160.000000	55.000000	-5.000000	10.000000
1.500000	87.290000	43.480000	163.000000	1.000000	160.000000	55.000000	0.000000	0.000000
1.510000	87.220000	43.740000	206.000000	0.000000	160.000000	55.000000	-7.000000	26.000000
1.520000	87.220000	43.970000	267.000000	0.000000	160.000000	55.000000	0.000000	23.000000
1.530000	87.270000	44.190000	311.000000	0.000000	160.000000	55.000000	5.000000	22.000000
1.540000	87.440000	44.420000	304.000000	0.000000	160.000000	56.000000	17.000000	23.000000
1.550000	87.440000	44.490000	305.000000	0.000000	160.000000	56.000000	0.000000	7.000000
1.560000	87.440000	44.490000	305.000000	0.000000	160.000000	56.000000	0.000000	0.000000
1.570000	87.440000	44.400000	307.000000	0.000000	160.000000	56.000000	0.000000	-9.000000
1.580000	87.440000	44.400000	315.000000	0.000000	160.000000	56.000000	0.000000	0.000000
1.590000	87.440000	44.320000	351.000000	0.000000	160.000000	56.000000	0.000000	-8.000000
1.600000	87.440000	44.320000	420.000000	0.000000	160.000000	56.000000	0.000000	0.000000
1.610000	87.440000	44.250000	497.000000	0.000000	158.000000	56.000000	0.000000	-7.000000
1.620000	87.440000	44.250000	565.000000	0.000000	160.000000	56.000000	0.000000	0.000000
1.630000	87.440000	44.250000	595.000000	0.000000	160.000000	56.000000	0.000000	0.000000
1.640000	87.440000	44.250000	614.000000	0.000000	160.000000	56.000000	0.000000	0.000000
1.650000	87.440000	44.250000	620.000000	0.000000	160.000000	56.000000	0.000000	0.000000
1.660000	87.440000	44.250000	610.000000	0.000000	160.000000	56.000000	0.000000	0.000000
1.670000	87.440000	44.250000	620.000000	0.000000	160.000000	56.000000	0.000000	0.000000
1.680000	87.440000	44.250000	614.000000	0.000000	160.000000	56.000000	0.000000	0.000000
1.690000	87.440000	44.250000	613.000000	0.000000	160.000000	56.000000	0.000000	0.000000
1.700000	87.440000	44.250000	619.000000	0.000000	160.000000	56.000000	0.000000	0.000000
1.710000	87.440000	44.250000	643.000000	0.000000	160.000000	56.000000	0.000000	0.000000
1.720000	87.520000	44.010000	675.000000	0.000000	160.000000	56.000000	8.000000	-24.000000
1.730000	87.600000	43.690000	714.000000	0.000000	160.000000	56.000000	8.000000	-32.000000
1.740000	87.600000	43.220000	725.000000	0.000000	160.000000	56.000000	0.000000	-47.000000
1.750000	87.690000	42.810000	757.000000	0.000000	160.000000	56.000000	9.000000	-41.000000
1.760000	87.750000	42.440000	761.000000	0.000000	160.000000	56.000000	6.000000	-37.000000
1.770000	87.750000	42.120000	751.000000	0.000000	161.000000	57.000000	0.000000	-32.000000
1.780000	87.750000	42.000000	757.000000	0.000000	162.000000	56.000000	0.000000	-12.000000
1.790000	87.750000	42.000000	793.000000	0.000000	162.000000	56.000000	0.000000	0.000000
1.800000	87.750000	42.000000	826.000000	0.000000	162.000000	56.000000	0.000000	0.000000
1.810000	87.750000	42.220000	822.000000	0.000000	162.000000	56.000000	0.000000	22.000000
1.820000	87.750000	42.500000	828.000000	0.000000	162.000000	56.000000	0.000000	28.000000
1.830000	87.870000	43.070000	834.000000	0.000000	162.000000	56.000000	12.000000	57.000000
1.840000	88.020000	43.730000	834.000000	0.000000	162.000000	56.000000	15.000000	66.000000
1.850000	88.250000	44.440000	834.000000	0.000000	162.000000	56.000000	23.000000	71.000000
1.860000	88.540000	44.740000	831.000000	0.000000	161.000000	57.000000	29.000000	30.000000
1.870000	88.780000	44.860000	827.000000	0.000000	163.000000	57.000000	24.000000	12.000000
1.880000	89.060000	44.860000	808.000000	0.000000	163.000000	57.000000	28.000000	0.000000
1.890000	89.330000	44.710000	757.000000	0.000000	163.000000	57.000000	27.000000	-15.000000
1.900000	89.580000	44.380000	638.000000	0.000000	164.000000	57.000000	25.000000	-33.000000
1.910000	89.790000	43.940000	404.000000	0.000000	164.000000	57.000000	21.000000	-44.000000
1.920000	89.990000	43.480000	25.000000	0.000000	164.000000	57.000000	20.000000	-46.000000
1.930000	89.990000	43.480000	0.000000	1.000000	166.000000	57.000000	0.000000	0.000000
1.940000	90.390000	42.690000	0.000000	0.000000	166.000000	57.000000	40.000000	-79.000000
1.950000	90.510000	42.470000	0.000000	0.000000	166.000000	57.000000	12.000000	-22.000000
1.960000	90.560000	42.410000	0.000000	0.000000	166.000000	57.000000	5.000000	-6.000000
1.970000	90.560000	42.460000	0.000000	0.000000	166.000000	56.000000	0.000000	5.000000
1.980000	90.560000	42.590000	0.000000	0.000000	166.000000	56.000000	0.000000	13.000000
1.990000	90.510000	42.940000	0.000000	0.000000	165.000000	56.000000	-5.000000	35.000000
2.000000	90.510000	43.370000	0.000000	0.000000	166.000000	56.000000	0.000000	43.000000
2.010000	90.510000	43.370000	151.000000	1.000000	166.000000	56.000000	0.000000	0.000000
2.020000	90.580000	44.250000	255.000000	0.000000	168.000000	56.000000	7.000000	88.000000
2.030000	90.580000	44.470000	389.000000	0.000000	168.000000	56.000000	0.000000	22.000000
2.040000	90.720000	44.570000	465.000000	0.000000	169.000000	57.000000	14.000000	10.000000
2.050000	90.800000	44.500000	510.000000	0.000000	170.000000	58.000000	8.000000	-7.000000
2.060000	90.850000	44.420000	562.000000	0.000000	170.000000	58.000000	5.000000	-8.000000
2.070000	91.060000	44.160000	570.000000	0.000000	172.000000	58.000000	21.000000	-26.000000
2.080000	91.210000	43.780000	580.000000	0.000000	172.000000	58.000000	15.000000	-38.000000
2.090000	91.330000	43.420000	589.000000	0.000000	172.000000	58.000000	12.000000	-36.000000
2.100000	91.460000	43.060000	591.000000	0.000000	172.000000	58.000000	13.000000	-36.000000
2.110000	91.520000	42.750000	595.000000	0.000000	172.000000	58.000000	6.000000	-31.000000
2.120000	91.520000	42.470000	586.000000	0.000000	172.000000	58.000000	0.000000	-28.000000
2.130000	91.520000	42.200000	591.000000	0.000000	170.000000	58.000000	0.000000	-27.000000
2.140000	91.520000	42.080000	610.000000	0.000000	171.000000	57.000000	0.000000	-12.000000
2.150000	91.520000	42.080000	667.000000	0.000000	169.000000	57.000000	0.000000	0.000000
2.160000	91.520000	42.080000	731.000000	0.000000	169.000000	57.000000	0.000000	0.000000
2.170000	91.520000	42.080000	785.000000	0.000000	169.000000	57.000000	0.000000	0.000000
2.180000	91.520000	42.080000	797.000000	0.000000	168.000000	56.000000	0.000000	0.000000
2.190000	91.520000	42.080000	815.000000	0.000000	168.000000	56.000000	0.000000	0.000000
2.200000	91.520000	42.080000	817.000000	0.000000	168.000000	56.000000	0.000000	0.000000
2.210000	91.520000	42.080000	836.000000	0.000000	168.000000	56.000000	0.000000	0.000000
