t	x	y	pressure	penup	azimuth	inclination	v_x	v_y
0.000000	53.000000	67.830000	44.000000	1.000000	149.000000	49.000000	0.000000	0.000000
0.010000	53.290000	68.340000	141.000000	0.000000	151.000000	49.000000	29.000000	51.000000
0.020000	53.350000	68.590000	209.000000	0.000000	151.000000	49.000000	6.000000	25.000000
0.030000	53.350000	68.830000	285.000000	0.000000	152.000000	49.000000	0.000000	24.000000
0.040000	53.430000	68.830000	317.000000	0.000000	152.000000	49.000000	8.000000	0.000000
0.050000	53.520000	68.600000	366.000000	0.000000	152.000000	49.000000	9.000000	-23.000000
0.060000	53.660000	68.060000	455.000000	0.000000	153.000000	50.000000	14.000000	-54.000000
0.070000	53.560000	66.760000	514.000000	0.000000	154.000000	49.000000	-10.000000	-130.000000
0.080000	53.300000	64.960000	529.000000	0.000000	154.000000	49.000000	-26.000000	-180.000000
0.090000	52.910000	62.790000	540.000000	0.000000	154.000000	49.000000	-39.000000	-217.000000
0.100000	52.700000	60.930000	539.000000	0.000000	153.000000	50.000000	-21.000000	-186.000000
0.110000	52.620000	59.280000	546.000000	0.000000	153.000000	50.000000	-8.000000	-165.000000
0.120000	52.860000	57.960000	551.000000	0.000000	152.000000	51.000000	24.000000	-132.000000
0.130000	53.220000	57.160000	554.000000	0.000000	151.000000	51.000000	36.000000	-80.000000
0.140000	53.660000	56.710000	554.000000	0.000000	151.000000	51.000000	44.000000	-45.000000
0.150000	54.190000	56.610000	554.000000	0.000000	150.000000	52.000000	53.000000	-10.000000
0.160000	54.690000	56.910000	546.000000	0.000000	149.000000	53.000000	50.000000	30.000000
0.170000	55.170000	57.490000	532.000000	0.000000	148.000000	54.000000	48.000000	58.000000
0.180000	55.520000	58.440000	498.000000	0.000000	148.000000	54.000000	35.000000	95.000000
0.190000	55.410000	59.460000	486.000000	0.000000	148.000000	54.000000	-11.000000	102.000000
0.200000	54.980000	60.520000	498.000000	0.000000	151.000000	53.000000	-43.000000	106.000000
0.210000	54.030000	61.090000	510.000000	0.000000	151.000000	53.000000	-95.000000	57.000000
0.220000	52.680000	61.200000	532.000000	0.000000	152.000000	53.000000	-135.000000	11.000000
0.230000	51.050000	61.000000	564.000000	0.000000	153.000000	53.000000	-163.000000	-20.000000
0.240000	49.470000	60.450000	595.000000	0.000000	154.000000	52.000000	-158.000000	-55.000000
0.250000	48.500000	60.010000	609.000000	0.000000	154.000000	52.000000	-97.000000	-44.000000
0.260000	47.930000	59.650000	614.000000	0.000000	155.000000	51.000000	-57.000000	-36.000000
0.270000	48.160000	59.480000	636.000000	0.000000	156.000000	51.000000	23.000000	-17.000000
0.280000	49.100000	59.290000	673.000000	0.000000	156.000000	51.000000	94.000000	-19.000000
0.290000	50.510000	59.340000	700.000000	0.000000	156.000000	51.000000	141.000000	5.000000
0.300000	53.100000	59.550000	719.000000	0.000000	155.000000	52.000000	259.000000	21.000000
0.310000	56.070000	59.800000	728.000000	0.000000	155.000000	52.000000	297.000000	25.000000
0.320000	59.280000	60.030000	725.000000	0.000000	155.000000	52.000000	321.000000	23.000000
0.330000	61.890000	60.220000	725.000000	0.000000	155.000000	52.000000	261.000000	19.000000
0.340000	64.050000	60.420000	708.000000	0.000000	155.000000	52.000000	216.000000	20.000000
0.350000	65.900000	60.670000	694.000000	0.000000	155.000000	52.000000	185.000000	25.000000
0.360000	66.710000	60.760000	630.000000	0.000000	156.000000	51.000000	81.000000	9.000000
0.370000	66.770000	60.760000	510.000000	0.000000	157.000000	52.000000	6.000000	0.000000
0.380000	66.320000	60.760000	149.000000	0.000000	157.000000	52.000000	-45.000000	0.000000
0.390000	66.320000	60.760000	0.000000	1.000000	157.000000	52.000000	0.000000	0.000000
0.400000	64.310000	60.790000	0.000000	0.000000	157.000000	52.000000	-201.000000	3.000000
0.410000	62.990000	60.940000	0.000000	0.000000	157.000000	52.000000	-132.000000	15.000000
0.420000	61.660000	61.100000	0.000000	0.000000	157.000000	52.000000	-133.000000	16.000000
0.430000	60.410000	61.270000	0.000000	0.000000	159.000000	51.000000	-125.000000	17.000000
0.440000	59.430000	61.440000	0.000000	0.000000	159.000000	51.000000	-98.000000	17.000000
0.450000	58.610000	61.640000	0.000000	0.000000	159.000000	51.000000	-82.000000	20.000000
0.460000	57.720000	61.860000	0.000000	0.000000	159.000000	51.000000	-89.000000	22.000000
0.470000	56.880000	62.010000	0.000000	0.000000	159.000000	51.000000	-84.000000	15.000000
0.480000	56.080000	62.200000	0.000000	0.000000	159.000000	51.000000	-80.000000	19.000000
0.490000	55.640000	62.460000	0.000000	0.000000	158.000000	51.000000	-44.000000	26.000000
0.500000	55.490000	62.760000	0.000000	0.000000	157.000000	51.000000	-15.000000	30.000000
0.510000	55.490000	63.130000	0.000000	0.000000	156.000000	50.000000	0.000000	37.000000
0.520000	55.690000	63.490000	0.000000	0.000000	156.000000	50.000000	20.000000	36.000000
0.530000	55.790000	63.860000	0.000000	0.000000	155.000000	49.000000	10.000000	37.000000
0.540000	55.840000	64.270000	0.000000	0.000000	156.000000	48.000000	5.000000	41.000000
0.550000	55.720000	64.690000	0.000000	0.000000	156.000000	48.000000	-12.000000	42.000000
0.560000	55.620000	65.170000	0.000000	0.000000	155.000000	48.000000	-10.000000	48.000000
0.570000	55.570000	65.740000	0.000000	0.000000	155.000000	48.000000	-5.000000	57.000000
0.580000	55.570000	66.380000	0.000000	0.000000	154.000000	49.000000	0.000000	64.000000
0.590000	55.570000	66.380000	132.000000	1.000000	154.000000	49.000000	0.000000	0.000000
0.600000	55.620000	67.440000	239.000000	0.000000	154.000000	49.000000	5.000000	106.000000
0.610000	55.620000	67.880000	361.000000	0.000000	154.000000	49.000000	0.000000	44.000000
0.620000	55.620000	68.040000	398.000000	0.000000	154.000000	49.000000	0.000000	16.000000
0.630000	55.620000	68.040000	392.000000	0.000000	154.000000	49.000000	0.000000	0.000000
0.640000	55.620000	67.910000	420.000000	0.000000	153.000000	50.000000	0.000000	-13.000000
0.650000	55.620000	67.350000	422.000000	0.000000	153.000000	50.000000	0.000000	-56.000000
0.660000	55.620000	66.490000	443.000000	0.000000	153.000000	50.000000	0.000000	-86.000000
0.670000	55.620000	65.360000	448.000000	0.000000	153.000000	50.000000	0.000000	-113.000000
0.680000	55.540000	64.230000	442.000000	0.000000	153.000000	50.000000	-8.000000	-113.000000
0.690000	55.490000	63.330000	447.000000	0.000000	154.000000	49.000000	-5.000000	-90.000000
0.700000	55.560000	62.600000	450.000000	0.000000	154.000000	49.000000	7.000000	-73.000000
0.710000	55.630000	62.270000	480.000000	0.000000	153.000000	50.000000	7.000000	-33.000000
0.720000	55.700000	62.200000	566.000000	0.000000	153.000000	50.000000	7.000000	-7.000000
0.730000	55.700000	62.300000	597.000000	0.000000	153.000000	50.000000	0.000000	10.000000
0.740000	55.700000	62.750000	610.000000	0.000000	153.000000	50.000000	0.000000	45.000000
0.750000	55.700000	63.600000	622.000000	0.000000	152.000000	49.000000	0.000000	85.000000
0.760000	55.700000	64.710000	647.000000	0.000000	153.000000	50.000000	0.000000	111.000000
0.770000	55.840000	66.040000	642.000000	0.000000	153.000000	50.000000	14.000000	133.000000
0.780000	56.070000	67.340000	645.000000	0.000000	153.000000	50.000000	23.000000	130.000000
0.790000	56.120000	68.330000	647.000000	0.000000	153.000000	50.000000	5.000000	99.000000
0.800000	56.170000	69.110000	636.000000	0.000000	153.000000	50.000000	5.000000	78.000000
0.810000	56.170000	69.240000	645.000000	0.000000	154.000000	49.000000	0.000000	13.000000
0.820000	56.170000	69.180000	641.000000	0.000000	155.000000	47.000000	0.000000	-6.000000
0.830000	56.170000	68.990000	644.000000	0.000000	156.000000	46.000000	0.000000	-19.000000
0.840000	56.170000	68.550000	645.000000	0.000000	156.000000	46.000000	0.000000	-44.000000
0.850000	56.170000	67.790000	645.000000	0.000000	157.000000	46.000000	0.000000	-76.000000
0.860000	56.170000	66.820000	647.000000	0.000000	157.000000	46.000000	0.000000	-97.000000
0.870000	56.340000	65.770000	641.000000	0.000000	156.000000	46.000000	17.000000	-105.000000
0.880000	56.470000	64.630000	631.000000	0.000000	156.000000	46.000000	13.000000	-114.000000
0.890000	56.610000	63.420000	620.000000	0.000000	157.000000	48.000000	14.000000	-121.000000
0.900000	56.760000	62.660000	610.000000	0.000000	156.000000	48.000000	15.000000	-76.000000
0.910000	57.010000	62.220000	609.000000	0.000000	155.000000	49.000000	25.000000	-44.000000
0.920000	57.230000	62.000000	617.000000	0.000000	156.000000	50.000000	22.000000	-22.000000
0.930000	57.440000	62.000000	617.000000	0.000000	156.000000	50.000000	21.000000	0.000000
0.940000	57.650000	62.280000	636.000000	0.000000	157.000000	50.000000	21.000000	28.000000
0.950000	57.840000	62.700000	638.000000	0.000000	157.000000	50.000000	19.000000	42.000000
0.960000	58.100000	63.400000	639.000000	0.000000	157.000000	50.000000	26.000000	70.000000
0.970000	58.360000	64.150000	641.000000	0.000000	158.000000	51.000000	26.000000	75.000000
0.980000	58.470000	64.930000	639.000000	0.000000	158.000000	51.000000	11.000000	78.000000
0.990000	58.470000	65.070000	641.000000	0.000000	159.000000	51.000000	0.000000	14.000000
1.000000	58.470000	65.070000	639.000000	0.000000	159.000000	51.000000	0.000000	0.000000
1.010000	58.470000	64.980000	639.000000	0.000000	159.000000	51.000000	0.000000	-9.000000
1.020000	58.420000	64.720000	639.000000	0.000000	160.000000	51.000000	-5.000000	-26.000000
1.030000	58.370000	64.270000	642.000000	0.000000	160.000000	51.000000	-5.000000	-45.000000
1.040000	58.290000	63.690000	641.000000	0.000000	160.000000	51.000000	-8.000000	-58.000000
1.050000	58.240000	63.080000	645.000000	0.000000	160.000000	51.000000	-5.000000	-61.000000
1.060000	58.310000	62.450000	647.000000	0.000000	161.000000	50.000000	7.000000	-63.000000
1.070000	58.460000	61.820000	642.000000	0.000000	161.000000	50.000000	15.000000	-63.000000
1.080000	58.620000	61.430000	631.000000	0.000000	161.000000	50.000000	16.000000	-39.000000
1.090000	58.810000	61.190000	631.000000	0.000000	161.000000	50.000000	19.000000	-24.000000
1.100000	59.070000	61.190000	631.000000	0.000000	160.000000	51.000000	26.000000	0.000000
1.110000	59.350000	61.300000	631.000000	0.000000	162.000000	52.000000	28.000000	11.000000
1.120000	59.590000	61.530000	630.000000	0.000000	162.000000	52.000000	24.000000	23.000000
1.130000	59.800000	62.000000	630.000000	0.000000	162.000000	52.000000	21.000000	47.000000
1.140000	59.950000	62.430000	638.000000	0.000000	163.000000	52.000000	15.000000	43.000000
1.150000	59.950000	62.770000	636.000000	0.000000	164.000000	52.000000	0.000000	34.000000
1.160000	59.950000	63.040000	650.000000	0.000000	164.000000	52.000000	0.000000	27.000000
1.170000	59.860000	63.160000	668.000000	0.000000	166.000000	52.000000	-9.000000	12.000000
1.180000	59.790000	63.160000	670.000000	0.000000	166.000000	52.000000	-7.000000	0.000000
1.190000	59.790000	63.160000	667.000000	0.000000	166.000000	52.000000	0.000000	0.000000
1.200000	59.720000	63.070000	664.000000	0.000000	166.000000	51.000000	-7.000000	-9.000000
1.210000	59.640000	62.760000	664.000000	0.000000	166.000000	51.000000	-8.000000	-31.000000
1.220000	59.530000	62.300000	664.000000	0.000000	166.000000	51.000000	-11.000000	-46.000000
1.230000	59.530000	61.830000	662.000000	0.000000	166.000000	51.000000	0.000000	-47.000000
1.240000	59.700000	61.460000	643.000000	0.000000	166.000000	51.000000	17.000000	-37.000000
1.250000	59.950000	61.170000	640.000000	0.000000	166.000000	52.000000	25.000000	-29.000000
1.260000	60.240000	61.100000	643.000000	0.000000	166.000000	52.000000	29.000000	-7.000000
1.270000	60.560000	61.240000	652.000000	0.000000	166.000000	52.000000	32.000000	14.000000
1.280000	60.950000	61.530000	662.000000	0.000000	166.000000	52.000000	39.000000	29.000000
1.290000	61.390000	62.000000	662.000000	0.000000	166.000000	52.000000	44.000000	47.000000
1.300000	61.680000	62.500000	673.000000	0.000000	164.000000	52.000000	29.000000	50.000000
1.310000	61.870000	63.020000	669.000000	0.000000	164.000000	52.000000	19.000000	52.000000
1.320000	61.770000	63.180000	675.000000	0.000000	164.000000	52.000000	-10.000000	16.000000
1.330000	61.520000	63.280000	669.000000	0.000000	164.000000	52.000000	-25.000000	10.000000
1.340000	61.170000	63.280000	665.000000	0.000000	164.000000	52.000000	-35.000000	0.000000
1.350000	60.800000	63.220000	633.000000	0.000000	165.000000	51.000000	-37.000000	-6.000000
1.360000	60.550000	63.130000	472.000000	0.000000	166.000000	51.000000	-25.000000	-9.000000
1.370000	60.390000	62.920000	1.000000	1.000000	166.000000	51.000000	0.000000	0.000000
1.380000	60.390000	62.920000	0.000000	0.000000	166.000000	51.000000	0.000000	0.000000
1.390000	60.310000	62.330000	0.000000	0.000000	166.000000	51.000000	-8.000000	-59.000000
1.400000	60.370000	62.130000	0.000000	0.000000	166.000000	51.000000	6.000000	-20.000000
1.410000	60.550000	61.980000	0.000000	0.000000	166.000000	51.000000	18.000000	-15.000000
1.420000	60.860000	61.980000	0.000000	0.000000	165.000000	51.000000	31.000000	0.000000
1.430000	61.250000	61.980000	0.000000	0.000000	165.000000	51.000000	39.000000	0.000000
1.440000	61.530000	62.180000	0.000000	0.000000	164.000000	51.000000	28.000000	20.000000
1.450000	61.770000	62.430000	0.000000	0.000000	164.000000	51.000000	24.000000	25.000000
1.460000	61.970000	62.690000	0.000000	0.000000	164.000000	51.000000	20.000000	26.000000
1.470000	62.040000	62.930000	0.000000	0.000000	162.000000	51.000000	7.000000	24.000000
1.480000	62.040000	62.930000	99.000000	1.000000	162.000000	51.000000	0.000000	0.000000
1.490000	62.160000	63.260000	210.000000	0.000000	162.000000	51.000000	12.000000	33.000000
1.500000	62.160000	63.260000	307.000000	0.000000	162.000000	51.000000	0.000000	0.000000
1.510000	62.160000	63.190000	396.000000	0.000000	164.000000	51.000000	0.000000	-7.000000
1.520000	62.160000	63.190000	460.000000	0.000000	164.000000	51.000000	0.000000	0.000000
1.530000	62.090000	62.610000	507.000000	0.000000	164.000000	51.000000	-7.000000	-58.000000
1.540000	62.090000	62.210000	530.000000	0.000000	164.000000	51.000000	0.000000	-40.000000
1.550000	62.190000	61.760000	544.000000	0.000000	163.000000	52.000000	10.000000	-45.000000
1.560000	62.410000	61.430000	542.000000	0.000000	163.000000	52.000000	22.000000	-33.000000
1.570000	62.510000	61.170000	548.000000	0.000000	163.000000	52.000000	10.000000	-26.000000
1.580000	62.510000	61.030000	591.000000	0.000000	163.000000	52.000000	0.000000	-14.000000
1.590000	62.510000	61.030000	637.000000	0.000000	163.000000	52.000000	0.000000	0.000000
1.600000	62.570000	61.120000	670.000000	0.000000	163.000000	52.000000	6.000000	9.000000
1.610000	62.620000	61.450000	690.000000	0.000000	163.000000	52.000000	5.000000	33.000000
1.620000	62.750000	61.970000	700.000000	0.000000	163.000000	52.000000	13.000000	52.000000
1.630000	62.970000	62.620000	703.000000	0.000000	163.000000	52.000000	22.000000	65.000000
1.640000	63.210000	63.260000	707.000000	0.000000	163.000000	52.000000	24.000000	64.000000
1.650000	63.460000	63.600000	707.000000	0.000000	163.000000	52.000000	25.000000	34.000000
1.660000	63.550000	63.750000	690.000000	0.000000	163.000000	52.000000	9.000000	15.000000
1.670000	63.550000	63.700000	670.000000	0.000000	163.000000	52.000000	0.000000	-5.000000
1.680000	63.680000	63.600000	641.000000	0.000000	163.000000	52.000000	13.000000	-10.000000
1.690000	63.820000	63.250000	512.000000	0.000000	162.000000	52.000000	14.000000	-35.000000
1.700000	63.990000	62.750000	302.000000	0.000000	162.000000	51.000000	17.000000	-50.000000
1.710000	63.990000	62.750000	0.000000	1.000000	162.000000	51.000000	0.000000	0.000000
1.720000	64.360000	62.070000	0.000000	0.000000	162.000000	51.000000	37.000000	-68.000000
1.730000	64.550000	61.860000	0.000000	0.000000	162.000000	51.000000	19.000000	-21.000000
1.740000	64.710000	61.920000	0.000000	0.000000	162.000000	51.000000	16.000000	6.000000
1.750000	64.860000	62.050000	0.000000	0.000000	162.000000	51.000000	15.000000	13.000000
1.760000	64.940000	62.220000	0.000000	0.000000	162.000000	51.000000	8.000000	17.000000
1.770000	64.940000	62.370000	0.000000	0.000000	162.000000	51.000000	0.000000	15.000000
1.780000	64.870000	62.510000	0.000000	0.000000	162.000000	51.000000	-7.000000	14.000000
1.790000	64.810000	62.640000	0.000000	0.000000	162.000000	51.000000	-6.000000	13.000000
1.800000	64.740000	62.770000	0.000000	0.000000	161.000000	50.000000	-7.000000	13.000000
1.810000	64.670000	62.880000	0.000000	0.000000	161.000000	50.000000	-7.000000	11.000000
1.820000	64.670000	62.880000	107.000000	1.000000	161.000000	50.000000	0.000000	0.000000
1.830000	64.620000	63.290000	210.000000	0.000000	162.000000	51.000000	-5.000000	41.000000
1.840000	64.620000	63.510000	304.000000	0.000000	162.000000	51.000000	0.000000	22.000000
1.850000	64.800000	63.720000	400.000000	0.000000	162.000000	51.000000	18.000000	21.000000
1.860000	64.990000	63.870000	445.000000	0.000000	162.000000	51.000000	19.000000	15.000000
1.870000	65.150000	63.870000	491.000000	0.000000	162.000000	51.000000	16.000000	0.000000
1.880000	65.280000	63.680000	519.000000	0.000000	162.000000	51.000000	13.000000	-19.000000
1.890000	65.640000	63.300000	543.000000	0.000000	162.000000	51.000000	36.000000	-38.000000
1.900000	65.960000	62.810000	561.000000	0.000000	164.000000	51.000000	32.000000	-49.000000
1.910000	66.240000	62.250000	562.000000	0.000000	164.000000	51.000000	28.000000	-56.000000
1.920000	66.540000	61.800000	567.000000	0.000000	163.000000	52.000000	30.000000	-45.000000
1.930000	66.710000	61.450000	570.000000	0.000000	163.000000	52.000000	17.000000	-35.000000
1.940000	66.800000	61.180000	563.000000	0.000000	163.000000	52.000000	9.000000	-27.000000
1.950000	66.800000	61.110000	581.000000	0.000000	163.000000	52.000000	0.000000	-7.000000
1.960000	66.740000	61.190000	585.000000	0.000000	163.000000	52.000000	-6.000000	8.000000
1.970000	66.640000	61.370000	595.000000	0.000000	163.000000	52.000000	-10.000000	18.000000
1.980000	66.480000	61.770000	585.000000	0.000000	163.000000	52.000000	-16.000000	40.000000
1.990000	66.170000	62.110000	585.000000	0.000000	163.000000	52.000000	-31.000000	34.000000
2.000000	65.700000	62.260000	592.000000	0.000000	163.000000	52.000000	-47.000000	15.000000
2.010000	65.130000	62.260000	616.000000	0.000000	163.000000	52.000000	-57.000000	0.000000
2.020000	64.690000	62.170000	641.000000	0.000000	163.000000	52.000000	-44.000000	-9.000000
2.030000	64.280000	62.000000	656.000000	0.000000	163.000000	52.000000	-41.000000	-17.000000
2.040000	64.100000	61.780000	679.000000	0.000000	163.000000	52.000000	-18.000000	-22.000000
2.050000	64.100000	61.540000	703.000000	0.000000	163.000000	52.000000	0.000000	-24.000000
2.060000	64.160000	61.310000	733.000000	0.000000	163.000000	52.000000	6.000000	-23.000000
2.070000	64.440000	61.060000	740.000000	0.000000	163.000000	52.000000	28.000000	-25.000000
2.080000	64.840000	60.850000	749.000000	0.000000	163.000000	52.000000	40.000000	-21.000000
2.090000	65.380000	60.770000	746.000000	0.000000	163.000000	52.000000	54.000000	-8.000000
2.100000	65.920000	60.770000	722.000000	0.000000	163.000000	52.000000	54.000000	0.000000
2.110000	66.260000	60.880000	714.000000	0.000000	163.000000	52.000000	34.000000	11.000000
2.120000	66.460000	61.130000	694.000000	0.000000	163.000000	52.000000	20.000000	25.000000
2.130000	66.790000	61.490000	687.000000	0.000000	163.000000	52.000000	33.000000	36.000000
2.140000	67.070000	61.910000	678.000000	0.000000	163.000000	52.000000	28.000000	42.000000
2.150000	67.310000	62.300000	694.000000	0.000000	163.000000	52.000000	24.000000	39.000000
2.160000	67.380000	62.670000	720.000000	0.000000	163.000000	52.000000	7.000000	37.000000
2.170000	67.380000	62.670000	748.000000	0.000000	164.000000	52.000000	0.000000	0.000000
2.180000	67.380000	62.730000	757.000000	0.000000	164.000000	52.000000	0.000000	6.000000
2.190000	67.380000	62.730000	759.000000	0.000000	164.000000	52.000000	0.000000	0.000000
2.200000	67.290000	62.480000	767.000000	0.000000	166.000000	52.000000	-9.000000	-25.000000
2.210000	67.190000	62.160000	773.000000	0.000000	166.000000	52.000000	-10.000000	-32.000000
