t	x	y	pressure	penup	azimuth	inclination	v_x	v_y
0.000000	55.940000	16.670000	215.000000	1.000000	159.000000	48.000000	0.000000	0.000000
0.010000	55.450000	16.910000	232.000000	0.000000	160.000000	48.000000	-49.000000	24.000000
0.020000	55.370000	16.910000	259.000000	0.000000	160.000000	48.000000	-8.000000	0.000000
0.030000	55.310000	16.470000	335.000000	0.000000	161.000000	47.000000	-6.000000	-44.000000
0.040000	55.310000	15.840000	404.000000	0.000000	160.000000	48.000000	0.000000	-63.000000
0.050000	55.390000	14.630000	442.000000	0.000000	160.000000	48.000000	8.000000	-121.000000
0.060000	55.490000	12.870000	456.000000	0.000000	161.000000	49.000000	10.000000	-176.000000
0.070000	55.610000	10.740000	465.000000	0.000000	159.000000	51.000000	12.000000	-213.000000
0.080000	55.770000	9.440000	468.000000	0.000000	160.000000	52.000000	16.000000	-130.000000
0.090000	56.090000	8.300000	469.000000	0.000000	160.000000	53.000000	32.000000	-114.000000
0.100000	56.490000	7.270000	474.000000	0.000000	160.000000	54.000000	40.000000	-103.000000
0.110000	56.910000	6.460000	465.000000	0.000000	161.000000	55.000000	42.000000	-81.000000
0.120000	57.290000	5.890000	474.000000	0.000000	162.000000	56.000000	38.000000	-57.000000
0.130000	57.460000	5.470000	465.000000	0.000000	163.000000	56.000000	17.000000	-42.000000
0.140000	57.460000	5.410000	467.000000	0.000000	165.000000	56.000000	0.000000	-6.000000
0.150000	57.380000	5.710000	439.000000	0.000000	166.000000	56.000000	-8.000000	30.000000
0.160000	57.000000	6.250000	422.000000	0.000000	166.000000	56.000000	-38.000000	54.000000
0.170000	56.430000	7.040000	436.000000	0.000000	167.000000	55.000000	-57.000000	79.000000
0.180000	55.450000	7.830000	442.000000	0.000000	167.000000	55.000000	-98.000000	79.000000
0.190000	54.050000	8.400000	456.000000	0.000000	167.000000	55.000000	-140.000000	57.000000
0.200000	52.370000	8.840000	495.000000	0.000000	167.000000	55.000000	-168.000000	44.000000
0.210000	50.690000	9.020000	522.000000	0.000000	165.000000	55.000000	-168.000000	18.000000
0.220000	49.540000	9.020000	566.000000	0.000000	165.000000	55.000000	-115.000000	0.000000
0.230000	48.740000	9.020000	589.000000	0.000000	165.000000	55.000000	-80.000000	0.000000
0.240000	48.650000	8.910000	586.000000	0.000000	164.000000	55.000000	-9.000000	-11.000000
0.250000	49.070000	8.820000	614.000000	0.000000	164.000000	55.000000	42.000000	-9.000000
0.260000	49.830000	8.730000	622.000000	0.000000	164.000000	55.000000	76.000000	-9.000000
0.270000	51.680000	8.670000	634.000000	0.000000	164.000000	55.000000	185.000000	-6.000000
0.280000	54.370000	8.760000	647.000000	0.000000	164.000000	55.000000	269.000000	9.000000
0.290000	57.630000	8.960000	655.000000	0.000000	164.000000	55.000000	326.000000	20.000000
0.300000	61.010000	9.140000	656.000000	0.000000	164.000000	55.000000	338.000000	18.000000
0.310000	64.120000	9.290000	652.000000	0.000000	164.000000	55.000000	311.000000	15.000000
0.320000	67.040000	9.400000	644.000000	0.000000	165.000000	55.000000	292.000000	11.000000
0.330000	69.080000	9.490000	609.000000	0.000000	165.000000	55.000000	204.000000	9.000000
0.340000	69.900000	9.560000	494.000000	0.000000	167.000000	55.000000	82.000000	7.000000
0.350000	69.900000	9.560000	237.000000	0.000000	168.000000	55.000000	0.000000	0.000000
0.360000	69.900000	9.560000	0.000000	1.000000	170.000000	56.000000	0.000000	0.000000
0.370000	68.280000	9.560000	0.000000	0.000000	170.000000	56.000000	-162.000000	0.000000
0.380000	67.030000	9.630000	0.000000	0.000000	170.000000	56.000000	-125.000000	7.000000
0.390000	65.900000	9.630000	0.000000	0.000000	170.000000	56.000000	-113.000000	0.000000
0.400000	64.790000	9.630000	0.000000	0.000000	170.000000	56.000000	-111.000000	0.000000
0.410000	63.720000	9.630000	0.000000	0.000000	168.000000	55.000000	-107.000000	0.000000
0.420000	62.870000	9.630000	0.000000	0.000000	167.000000	55.000000	-85.000000	0.000000
0.430000	62.180000	9.740000	0.000000	0.000000	165.000000	55.000000	-69.000000	11.000000
0.440000	61.740000	9.900000	0.000000	0.000000	164.000000	54.000000	-44.000000	16.000000
0.450000	61.290000	10.120000	0.000000	0.000000	163.000000	54.000000	-45.000000	22.000000
0.460000	60.870000	10.330000	0.000000	0.000000	162.000000	54.000000	-42.000000	21.000000
0.470000	60.480000	10.560000	0.000000	0.000000	160.000000	53.000000	-39.000000	23.000000
0.480000	60.190000	10.810000	0.000000	0.000000	159.000000	53.000000	-29.000000	25.000000
0.490000	59.950000	11.070000	0.000000	0.000000	158.000000	53.000000	-24.000000	26.000000
0.500000	59.760000	11.310000	0.000000	0.000000	158.000000	53.000000	-19.000000	24.000000
0.510000	59.600000	11.590000	0.000000	0.000000	157.000000	52.000000	-16.000000	28.000000
0.520000	59.490000	11.910000	0.000000	0.000000	157.000000	52.000000	-11.000000	32.000000
0.530000	59.390000	12.260000	0.000000	0.000000	157.000000	52.000000	-10.000000	35.000000
0.540000	59.310000	12.670000	0.000000	0.000000	157.000000	52.000000	-8.000000	41.000000
0.550000	59.230000	13.120000	0.000000	0.000000	157.000000	52.000000	-8.000000	45.000000
0.560000	59.230000	13.650000	0.000000	0.000000	157.000000	52.000000	0.000000	53.000000
0.570000	59.230000	14.240000	0.000000	0.000000	158.000000	52.000000	0.000000	59.000000
0.580000	59.390000	14.880000	0.000000	0.000000	158.000000	52.000000	16.000000	64.000000
0.590000	59.520000	15.370000	0.000000	0.000000	159.000000	51.000000	13.000000	49.000000
0.600000	59.520000	15.370000	110.000000	1.000000	160.000000	51.000000	0.000000	0.000000
0.610000	59.400000	15.940000	158.000000	0.000000	160.000000	51.000000	-12.000000	57.000000
0.620000	59.240000	16.020000	228.000000	0.000000	160.000000	51.000000	-16.000000	8.000000
0.630000	59.090000	15.860000	292.000000	0.000000	162.000000	52.000000	-15.000000	-16.000000
0.640000	58.970000	15.550000	345.000000	0.000000	162.000000	52.000000	-12.000000	-31.000000
0.650000	58.870000	14.800000	356.000000	0.000000	162.000000	52.000000	-10.000000	-75.000000
0.660000	58.790000	13.790000	361.000000	0.000000	161.000000	52.000000	-8.000000	-101.000000
0.670000	58.790000	12.600000	376.000000	0.000000	161.000000	52.000000	0.000000	-119.000000
0.680000	58.790000	11.440000	389.000000	0.000000	160.000000	53.000000	0.000000	-116.000000
0.690000	58.970000	10.730000	391.000000	0.000000	158.000000	54.000000	18.000000	-71.000000
0.700000	59.170000	10.320000	392.000000	0.000000	158.000000	54.000000	20.000000	-41.000000
0.710000	59.270000	10.100000	460.000000	0.000000	159.000000	55.000000	10.000000	-22.000000
0.720000	59.270000	10.100000	569.000000	0.000000	159.000000	55.000000	0.000000	0.000000
0.730000	59.270000	10.230000	588.000000	0.000000	159.000000	55.000000	0.000000	13.000000
0.740000	59.270000	10.610000	605.000000	0.000000	159.000000	55.000000	0.000000	38.000000
0.750000	59.190000	11.650000	616.000000	0.000000	159.000000	55.000000	-8.000000	104.000000
0.760000	59.190000	13.130000	617.000000	0.000000	159.000000	55.000000	0.000000	148.000000
0.770000	59.300000	14.660000	617.000000	0.000000	158.000000	55.000000	11.000000	153.000000
0.780000	59.500000	16.020000	616.000000	0.000000	158.000000	55.000000	20.000000	136.000000
0.790000	59.620000	17.280000	620.000000	0.000000	156.000000	55.000000	12.000000	126.000000
0.800000	59.620000	17.900000	622.000000	0.000000	156.000000	53.000000	0.000000	62.000000
0.810000	59.620000	18.100000	622.000000	0.000000	154.000000	53.000000	0.000000	20.000000
0.820000	59.620000	18.030000	620.000000	0.000000	155.000000	52.000000	0.000000	-7.000000
0.830000	59.620000	17.800000	620.000000	0.000000	156.000000	51.000000	0.000000	-23.000000
0.840000	59.530000	16.930000	622.000000	0.000000	155.000000	51.000000	-9.000000	-87.000000
0.850000	59.430000	15.630000	620.000000	0.000000	155.000000	51.000000	-10.000000	-130.000000
0.860000	59.430000	14.240000	620.000000	0.000000	155.000000	51.000000	0.000000	-139.000000
0.870000	59.630000	12.920000	620.000000	0.000000	156.000000	51.000000	20.000000	-132.000000
0.880000	59.970000	11.660000	611.000000	0.000000	155.000000	52.000000	34.000000	-126.000000
0.890000	60.290000	10.810000	602.000000	0.000000	156.000000	53.000000	32.000000	-85.000000
0.900000	60.570000	10.380000	602.000000	0.000000	157.000000	54.000000	28.000000	-43.000000
0.910000	60.830000	10.230000	605.000000	0.000000	157.000000	54.000000	26.000000	-15.000000
0.920000	61.020000	10.280000	608.000000	0.000000	158.000000	55.000000	19.000000	5.000000
0.930000	61.220000	10.660000	605.000000	0.000000	158.000000	56.000000	20.000000	38.000000
0.940000	61.500000	11.270000	605.000000	0.000000	160.000000	56.000000	28.000000	61.000000
0.950000	61.820000	12.380000	605.000000	0.000000	160.000000	56.000000	32.000000	111.000000
0.960000	62.020000	13.250000	611.000000	0.000000	160.000000	56.000000	20.000000	87.000000
0.970000	62.020000	13.960000	614.000000	0.000000	160.000000	56.000000	0.000000	71.000000
0.980000	61.960000	14.180000	610.000000	0.000000	160.000000	56.000000	-6.000000	22.000000
0.990000	61.960000	14.180000	620.000000	0.000000	160.000000	55.000000	0.000000	0.000000
1.000000	61.900000	14.180000	619.000000	0.000000	160.000000	55.000000	-6.000000	0.000000
1.010000	61.900000	13.820000	620.000000	0.000000	160.000000	55.000000	0.000000	-36.000000
1.020000	61.900000	13.200000	619.000000	0.000000	160.000000	55.000000	0.000000	-62.000000
1.030000	61.900000	12.370000	620.000000	0.000000	160.000000	55.000000	0.000000	-83.000000
1.040000	61.900000	11.400000	619.000000	0.000000	160.000000	55.000000	0.000000	-97.000000
1.050000	61.990000	10.760000	620.000000	0.000000	160.000000	55.000000	9.000000	-64.000000
1.060000	62.210000	10.350000	614.000000	0.000000	160.000000	55.000000	22.000000	-41.000000
1.070000	62.540000	10.030000	608.000000	0.000000	160.000000	55.000000	33.000000	-32.000000
1.080000	62.950000	9.900000	605.000000	0.000000	160.000000	55.000000	41.000000	-13.000000
1.090000	63.260000	9.900000	600.000000	0.000000	160.000000	55.000000	31.000000	0.000000
1.100000	63.520000	10.090000	597.000000	0.000000	160.000000	55.000000	26.000000	19.000000
1.110000	63.740000	10.400000	597.000000	0.000000	160.000000	55.000000	22.000000	31.000000
1.120000	63.860000	10.790000	597.000000	0.000000	160.000000	55.000000	12.000000	39.000000
1.130000	63.860000	11.160000	597.000000	0.000000	160.000000	56.000000	0.000000	37.000000
1.140000	63.860000	11.530000	613.000000	0.000000	160.000000	56.000000	0.000000	37.000000
1.150000	63.680000	11.770000	616.000000	0.000000	160.000000	56.000000	-18.000000	24.000000
1.160000	63.570000	11.920000	617.000000	0.000000	160.000000	56.000000	-11.000000	15.000000
1.170000	63.470000	11.920000	613.000000	0.000000	160.000000	56.000000	-10.000000	0.000000
1.180000	63.470000	11.870000	617.000000	0.000000	160.000000	56.000000	0.000000	-5.000000
1.190000	63.410000	11.550000	616.000000	0.000000	160.000000	56.000000	-6.000000	-32.000000
1.200000	63.330000	11.050000	616.000000	0.000000	160.000000	56.000000	-8.000000	-50.000000
1.210000	63.470000	10.680000	620.000000	0.000000	160.000000	56.000000	14.000000	-37.000000
1.220000	63.650000	10.360000	617.000000	0.000000	160.000000	56.000000	18.000000	-32.000000
1.230000	63.890000	10.080000	616.000000	0.000000	160.000000	56.000000	24.000000	-28.000000
1.240000	64.160000	9.930000	616.000000	0.000000	160.000000	56.000000	27.000000	-15.000000
1.250000	64.450000	9.990000	622.000000	0.000000	160.000000	56.000000	29.000000	6.000000
1.260000	64.740000	10.180000	628.000000	0.000000	160.000000	55.000000	29.000000	19.000000
1.270000	64.960000	10.510000	638.000000	0.000000	160.000000	55.000000	22.000000	33.000000
1.280000	65.130000	10.940000	646.000000	0.000000	160.000000	55.000000	17.000000	43.000000
1.290000	65.210000	11.450000	652.000000	0.000000	160.000000	55.000000	8.000000	51.000000
1.300000	65.080000	12.090000	652.000000	0.000000	160.000000	55.000000	-13.000000	64.000000
1.310000	64.800000	12.500000	636.000000	0.000000	160.000000	56.000000	-28.000000	41.000000
1.320000	64.400000	12.770000	613.000000	0.000000	160.000000	56.000000	-40.000000	27.000000
1.330000	64.020000	12.770000	538.000000	0.000000	160.000000	56.000000	-38.000000	0.000000
1.340000	63.660000	12.580000	307.000000	0.000000	160.000000	56.000000	-36.000000	-19.000000
1.350000	63.660000	12.580000	0.000000	1.000000	160.000000	56.000000	0.000000	0.000000
1.360000	63.370000	11.740000	0.000000	0.000000	160.000000	56.000000	-29.000000	-84.000000
1.370000	63.480000	11.350000	0.000000	0.000000	160.000000	56.000000	11.000000	-39.000000
1.380000	63.900000	11.080000	0.000000	0.000000	160.000000	56.000000	42.000000	-27.000000
1.390000	64.460000	10.910000	0.000000	0.000000	160.000000	56.000000	56.000000	-17.000000
1.400000	65.110000	10.830000	0.000000	0.000000	159.000000	55.000000	65.000000	-8.000000
1.410000	65.700000	10.830000	0.000000	0.000000	160.000000	55.000000	59.000000	0.000000
1.420000	66.130000	10.830000	0.000000	0.000000	161.000000	55.000000	43.000000	0.000000
1.430000	66.440000	11.000000	0.000000	0.000000	161.000000	55.000000	31.000000	17.000000
1.440000	66.560000	11.200000	0.000000	0.000000	163.000000	55.000000	12.000000	20.000000
1.450000	66.560000	11.340000	0.000000	0.000000	163.000000	54.000000	0.000000	14.000000
1.460000	66.430000	11.460000	0.000000	0.000000	163.000000	54.000000	-13.000000	12.000000
1.470000	66.430000	11.460000	142.000000	1.000000	163.000000	54.000000	0.000000	0.000000
1.480000	66.080000	11.520000	239.000000	0.000000	163.000000	55.000000	-35.000000	6.000000
1.490000	65.950000	11.380000	314.000000	0.000000	163.000000	55.000000	-13.000000	-14.000000
1.500000	65.850000	11.130000	377.000000	0.000000	163.000000	55.000000	-10.000000	-25.000000
1.510000	65.850000	10.780000	412.000000	0.000000	162.000000	56.000000	0.000000	-35.000000
1.520000	65.850000	10.430000	436.000000	0.000000	162.000000	56.000000	0.000000	-35.000000
1.530000	65.850000	10.110000	439.000000	0.000000	162.000000	56.000000	0.000000	-32.000000
1.540000	65.930000	9.860000	458.000000	0.000000	160.000000	55.000000	8.000000	-25.000000
1.550000	65.990000	9.650000	473.000000	0.000000	160.000000	55.000000	6.000000	-21.000000
1.560000	65.990000	9.650000	556.000000	0.000000	160.000000	55.000000	0.000000	0.000000
1.570000	65.990000	9.650000	616.000000	0.000000	160.000000	55.000000	0.000000	0.000000
1.580000	65.990000	9.710000	649.000000	0.000000	160.000000	55.000000	0.000000	6.000000
1.590000	65.990000	10.060000	668.000000	0.000000	160.000000	55.000000	0.000000	35.000000
1.600000	65.990000	10.560000	667.000000	0.000000	162.000000	56.000000	0.000000	50.000000
1.610000	66.150000	11.170000	672.000000	0.000000	162.000000	56.000000	16.000000	61.000000
1.620000	66.410000	12.040000	676.000000	0.000000	162.000000	56.000000	26.000000	87.000000
1.630000	66.600000	12.520000	682.000000	0.000000	162.000000	56.000000	19.000000	48.000000
1.640000	66.720000	12.750000	678.000000	0.000000	162.000000	56.000000	12.000000	23.000000
1.650000	66.780000	12.750000	676.000000	0.000000	162.000000	56.000000	6.000000	0.000000
1.660000	66.860000	12.690000	673.000000	0.000000	162.000000	56.000000	8.000000	-6.000000
1.670000	67.090000	12.390000	643.000000	0.000000	163.000000	56.000000	23.000000	-30.000000
1.680000	67.410000	11.950000	540.000000	0.000000	163.000000	56.000000	32.000000	-44.000000
1.690000	67.650000	11.370000	264.000000	0.000000	163.000000	56.000000	24.000000	-58.000000
1.700000	67.650000	11.370000	0.000000	1.000000	165.000000	56.000000	0.000000	0.000000
1.710000	67.760000	10.460000	0.000000	0.000000	165.000000	56.000000	11.000000	-91.000000
1.720000	67.760000	10.180000	0.000000	0.000000	165.000000	56.000000	0.000000	-28.000000
1.730000	67.960000	10.040000	0.000000	0.000000	166.000000	56.000000	20.000000	-14.000000
1.740000	68.230000	10.040000	0.000000	0.000000	166.000000	56.000000	27.000000	0.000000
1.750000	68.440000	10.090000	0.000000	0.000000	168.000000	56.000000	21.000000	5.000000
1.760000	68.610000	10.280000	0.000000	0.000000	168.000000	56.000000	17.000000	19.000000
1.770000	68.740000	10.540000	0.000000	0.000000	168.000000	55.000000	13.000000	26.000000
1.780000	68.860000	10.900000	0.000000	0.000000	168.000000	55.000000	12.000000	36.000000
1.790000	68.860000	10.900000	132.000000	1.000000	170.000000	56.000000	0.000000	0.000000
1.800000	68.910000	11.660000	337.000000	0.000000	170.000000	56.000000	5.000000	76.000000
1.810000	68.860000	12.080000	438.000000	0.000000	170.000000	56.000000	-5.000000	42.000000
1.820000	68.860000	12.390000	567.000000	0.000000	170.000000	56.000000	0.000000	31.000000
1.830000	68.910000	12.520000	617.000000	0.000000	170.000000	56.000000	5.000000	13.000000
1.840000	68.910000	12.520000	617.000000	0.000000	169.000000	57.000000	0.000000	0.000000
1.850000	68.910000	12.520000	624.000000	0.000000	169.000000	57.000000	0.000000	0.000000
1.860000	68.910000	12.440000	624.000000	0.000000	169.000000	57.000000	0.000000	-8.000000
1.870000	68.910000	12.370000	627.000000	0.000000	171.000000	57.000000	0.000000	-7.000000
1.880000	68.960000	12.310000	628.000000	0.000000	171.000000	57.000000	5.000000	-6.000000
1.890000	68.960000	12.260000	627.000000	0.000000	171.000000	57.000000	0.000000	-5.000000
1.900000	68.960000	12.260000	633.000000	0.000000	171.000000	57.000000	0.000000	0.000000
1.910000	68.960000	12.260000	638.000000	0.000000	171.000000	57.000000	0.000000	0.000000
1.920000	68.960000	12.260000	639.000000	0.000000	171.000000	57.000000	0.000000	0.000000
1.930000	68.960000	12.260000	614.000000	0.000000	171.000000	57.000000	0.000000	0.000000
1.940000	68.960000	12.260000	452.000000	0.000000	171.000000	57.000000	0.000000	0.000000
1.950000	68.960000	12.260000	58.000000	0.000000	171.000000	57.000000	0.000000	0.000000
1.960000	68.960000	12.260000	0.000000	1.000000	171.000000	57.000000	0.000000	0.000000
1.970000	68.710000	12.110000	0.000000	0.000000	171.000000	57.000000	-25.000000	-15.000000
1.980000	68.560000	12.000000	0.000000	0.000000	171.000000	57.000000	-15.000000	-11.000000
1.990000	68.560000	11.910000	0.000000	0.000000	171.000000	57.000000	0.000000	-9.000000
2.000000	68.700000	11.910000	0.000000	0.000000	169.000000	57.000000	14.000000	0.000000
2.010000	68.700000	11.810000	0.000000	0.000000	170.000000	56.000000	0.000000	-10.000000
2.020000	68.700000	11.700000	0.000000	0.000000	170.000000	56.000000	0.000000	-11.000000
2.030000	68.620000	11.560000	0.000000	0.000000	170.000000	56.000000	-8.000000	-14.000000
2.040000	68.500000	11.380000	0.000000	0.000000	170.000000	56.000000	-12.000000	-18.000000
2.050000	68.390000	11.230000	0.000000	0.000000	170.000000	55.000000	-11.000000	-15.000000
2.060000	68.280000	11.150000	0.000000	0.000000	170.000000	55.000000	-11.000000	-8.000000
2.070000	68.220000	11.150000	0.000000	0.000000	170.000000	55.000000	-6.000000	0.000000
2.080000	68.220000	11.150000	0.000000	0.000000	170.000000	55.000000	0.000000	0.000000
2.090000	68.220000	11.230000	0.000000	0.000000	170.000000	55.000000	0.000000	8.000000
2.100000	68.220000	11.230000	235.000000	1.000000	170.000000	55.000000	0.000000	0.000000
2.110000	68.370000	11.700000	324.000000	0.000000	170.000000	56.000000	15.000000	47.000000
2.120000	68.500000	12.010000	394.000000	0.000000	170.000000	56.000000	13.000000	31.000000
2.130000	68.700000	12.240000	465.000000	0.000000	170.000000	56.000000	20.000000	23.000000
2.140000	68.920000	12.310000	486.000000	0.000000	169.000000	57.000000	22.000000	7.000000
2.150000	69.100000	12.310000	509.000000	0.000000	169.000000	57.000000	18.000000	0.000000
2.160000	69.230000	11.940000	518.000000	0.000000	169.000000	57.000000	13.000000	-37.000000
2.170000	69.460000	11.520000	532.000000	0.000000	171.000000	57.000000	23.000000	-42.000000
2.180000	69.680000	11.030000	529.000000	0.000000	171.000000	57.000000	22.000000	-49.000000
2.190000	69.790000	10.650000	533.000000	0.000000	172.000000	57.000000	11.000000	-38.000000
2.200000	69.840000	10.390000	535.000000	0.000000	172.000000	57.000000	5.000000	-26.000000
2.210000	69.900000	10.220000	535.000000	0.000000	174.000000	57.000000	6.000000	-17.000000
2.220000	69.900000	10.170000	537.000000	0.000000	174.000000	57.000000	0.000000	-5.000000
