t	x	y	pressure	penup	azimuth	inclination	v_x	v_y
0.000000	53.930000	18.480000	91.000000	1.000000	155.000000	52.000000	0.000000	0.000000
0.010000	53.760000	19.090000	210.000000	0.000000	155.000000	52.000000	-17.000000	61.000000
0.020000	53.620000	19.400000	280.000000	0.000000	155.000000	52.000000	-14.000000	31.000000
0.030000	53.470000	19.730000	351.000000	0.000000	155.000000	52.000000	-15.000000	33.000000
0.040000	53.470000	19.790000	384.000000	0.000000	155.000000	52.000000	0.000000	6.000000
0.050000	53.470000	19.790000	391.000000	0.000000	156.000000	53.000000	0.000000	0.000000
0.060000	53.420000	19.470000	433.000000	0.000000	156.000000	53.000000	-5.000000	-32.000000
0.070000	53.180000	18.940000	465.000000	0.000000	156.000000	53.000000	-24.000000	-53.000000
0.080000	52.940000	17.510000	488.000000	0.000000	158.000000	53.000000	-24.000000	-143.000000
0.090000	52.680000	15.760000	509.000000	0.000000	158.000000	53.000000	-26.000000	-175.000000
0.100000	52.510000	13.800000	522.000000	0.000000	159.000000	53.000000	-17.000000	-196.000000
0.110000	52.410000	11.880000	535.000000	0.000000	158.000000	54.000000	-10.000000	-192.000000
0.120000	52.830000	10.430000	537.000000	0.000000	158.000000	55.000000	42.000000	-145.000000
0.130000	53.300000	9.300000	545.000000	0.000000	159.000000	55.000000	47.000000	-113.000000
0.140000	53.930000	8.380000	551.000000	0.000000	158.000000	56.000000	63.000000	-92.000000
0.150000	54.650000	7.690000	556.000000	0.000000	158.000000	56.000000	72.000000	-69.000000
0.160000	55.210000	7.160000	561.000000	0.000000	159.000000	57.000000	56.000000	-53.000000
0.170000	55.790000	6.900000	561.000000	0.000000	159.000000	57.000000	58.000000	-26.000000
0.180000	56.330000	6.900000	554.000000	0.000000	161.000000	57.000000	54.000000	0.000000
0.190000	56.620000	7.010000	546.000000	0.000000	161.000000	57.000000	29.000000	11.000000
0.200000	56.770000	7.420000	543.000000	0.000000	163.000000	57.000000	15.000000	41.000000
0.210000	56.520000	8.020000	535.000000	0.000000	163.000000	57.000000	-25.000000	60.000000
0.220000	55.810000	8.760000	568.000000	0.000000	164.000000	57.000000	-71.000000	74.000000
0.230000	54.800000	9.330000	586.000000	0.000000	165.000000	56.000000	-101.000000	57.000000
0.240000	53.330000	9.560000	634.000000	0.000000	165.000000	56.000000	-147.000000	23.000000
0.250000	51.630000	9.560000	670.000000	0.000000	165.000000	56.000000	-170.000000	0.000000
0.260000	49.780000	9.560000	685.000000	0.000000	165.000000	56.000000	-185.000000	0.000000
0.270000	48.470000	9.440000	697.000000	0.000000	164.000000	57.000000	-131.000000	-12.000000
0.280000	48.020000	9.290000	700.000000	0.000000	164.000000	57.000000	-45.000000	-15.000000
0.290000	48.150000	9.210000	714.000000	0.000000	164.000000	57.000000	13.000000	-8.000000
0.300000	48.880000	9.210000	725.000000	0.000000	164.000000	57.000000	73.000000	0.000000
0.310000	50.720000	8.980000	755.000000	0.000000	164.000000	57.000000	184.000000	-23.000000
0.320000	53.290000	8.830000	757.000000	0.000000	164.000000	57.000000	257.000000	-15.000000
0.330000	56.440000	8.830000	767.000000	0.000000	164.000000	57.000000	315.000000	0.000000
0.340000	59.880000	8.830000	779.000000	0.000000	164.000000	57.000000	344.000000	0.000000
0.350000	63.500000	8.930000	777.000000	0.000000	166.000000	57.000000	362.000000	10.000000
0.360000	66.690000	8.990000	787.000000	0.000000	166.000000	57.000000	319.000000	6.000000
0.370000	69.370000	9.070000	787.000000	0.000000	167.000000	57.000000	268.000000	8.000000
0.380000	71.710000	9.200000	788.000000	0.000000	167.000000	57.000000	234.000000	13.000000
0.390000	73.150000	9.290000	787.000000	0.000000	169.000000	58.000000	144.000000	9.000000
0.400000	73.720000	9.350000	765.000000	0.000000	169.000000	58.000000	57.000000	6.000000
0.410000	73.720000	9.350000	719.000000	0.000000	170.000000	58.000000	0.000000	0.000000
0.420000	73.320000	9.350000	540.000000	0.000000	170.000000	58.000000	-40.000000	0.000000
0.430000	72.680000	9.270000	195.000000	0.000000	170.000000	58.000000	-64.000000	-8.000000
0.440000	72.680000	9.270000	0.000000	1.000000	170.000000	58.000000	0.000000	0.000000
0.450000	70.830000	9.060000	0.000000	0.000000	170.000000	58.000000	-185.000000	-21.000000
0.460000	69.730000	8.980000	0.000000	0.000000	170.000000	58.000000	-110.000000	-8.000000
0.470000	68.600000	9.100000	0.000000	0.000000	170.000000	58.000000	-113.000000	12.000000
0.480000	67.670000	9.340000	0.000000	0.000000	171.000000	57.000000	-93.000000	24.000000
0.490000	66.740000	9.730000	0.000000	0.000000	171.000000	57.000000	-93.000000	39.000000
0.500000	65.830000	10.130000	0.000000	0.000000	171.000000	57.000000	-91.000000	40.000000
0.510000	64.830000	10.520000	0.000000	0.000000	169.000000	57.000000	-100.000000	39.000000
0.520000	63.780000	10.910000	0.000000	0.000000	168.000000	56.000000	-105.000000	39.000000
0.530000	62.810000	11.280000	0.000000	0.000000	166.000000	56.000000	-97.000000	37.000000
0.540000	62.020000	11.710000	0.000000	0.000000	165.000000	55.000000	-79.000000	43.000000
0.550000	61.350000	12.190000	0.000000	0.000000	163.000000	55.000000	-67.000000	48.000000
0.560000	60.700000	12.580000	0.000000	0.000000	161.000000	55.000000	-65.000000	39.000000
0.570000	59.950000	12.930000	0.000000	0.000000	160.000000	54.000000	-75.000000	35.000000
0.580000	59.140000	13.200000	0.000000	0.000000	158.000000	54.000000	-81.000000	27.000000
0.590000	58.170000	13.400000	0.000000	0.000000	157.000000	54.000000	-97.000000	20.000000
0.600000	57.200000	13.530000	0.000000	0.000000	156.000000	55.000000	-97.000000	13.000000
0.610000	56.650000	13.590000	0.000000	0.000000	156.000000	55.000000	-55.000000	6.000000
0.620000	56.380000	13.590000	0.000000	0.000000	156.000000	55.000000	-27.000000	0.000000
0.630000	56.380000	13.590000	0.000000	0.000000	155.000000	55.000000	0.000000	0.000000
0.640000	56.380000	13.590000	0.000000	0.000000	157.000000	56.000000	0.000000	0.000000
0.650000	56.380000	13.590000	0.000000	0.000000	157.000000	56.000000	0.000000	0.000000
0.660000	56.450000	13.540000	0.000000	0.000000	157.000000	56.000000	7.000000	-5.000000
0.670000	56.390000	13.540000	0.000000	0.000000	157.000000	56.000000	-6.000000	0.000000
0.680000	56.270000	13.650000	0.000000	0.000000	157.000000	56.000000	-12.000000	11.000000
0.690000	56.270000	13.890000	0.000000	0.000000	157.000000	56.000000	0.000000	24.000000
0.700000	56.270000	14.230000	0.000000	0.000000	157.000000	56.000000	0.000000	34.000000
0.710000	56.390000	14.710000	0.000000	0.000000	158.000000	55.000000	12.000000	48.000000
0.720000	56.510000	15.290000	0.000000	0.000000	158.000000	55.000000	12.000000	58.000000
0.730000	56.680000	15.940000	0.000000	0.000000	157.000000	54.000000	17.000000	65.000000
0.740000	56.840000	16.600000	0.000000	0.000000	157.000000	54.000000	16.000000	66.000000
0.750000	56.840000	16.600000	163.000000	1.000000	158.000000	53.000000	0.000000	0.000000
0.760000	56.980000	17.730000	251.000000	0.000000	158.000000	53.000000	14.000000	113.000000
0.770000	56.920000	18.100000	297.000000	0.000000	158.000000	53.000000	-6.000000	37.000000
0.780000	56.920000	18.200000	335.000000	0.000000	158.000000	52.000000	0.000000	10.000000
0.790000	56.920000	18.120000	362.000000	0.000000	158.000000	53.000000	0.000000	-8.000000
0.800000	56.790000	17.910000	399.000000	0.000000	158.000000	53.000000	-13.000000	-21.000000
0.810000	56.660000	16.990000	414.000000	0.000000	158.000000	53.000000	-13.000000	-92.000000
0.820000	56.660000	15.800000	441.000000	0.000000	157.000000	54.000000	0.000000	-119.000000
0.830000	56.590000	14.420000	442.000000	0.000000	157.000000	54.000000	-7.000000	-138.000000
0.840000	56.590000	13.060000	445.000000	0.000000	156.000000	55.000000	0.000000	-136.000000
0.850000	56.740000	11.910000	456.000000	0.000000	156.000000	55.000000	15.000000	-115.000000
0.860000	56.960000	10.900000	458.000000	0.000000	155.000000	55.000000	22.000000	-101.000000
0.870000	57.160000	10.330000	465.000000	0.000000	156.000000	57.000000	20.000000	-57.000000
0.880000	57.350000	10.100000	486.000000	0.000000	156.000000	57.000000	19.000000	-23.000000
0.890000	57.420000	10.100000	588.000000	0.000000	155.000000	58.000000	7.000000	0.000000
0.900000	57.420000	10.190000	619.000000	0.000000	157.000000	58.000000	0.000000	9.000000
0.910000	57.590000	10.830000	637.000000	0.000000	156.000000	59.000000	17.000000	64.000000
0.920000	57.780000	11.850000	643.000000	0.000000	156.000000	59.000000	19.000000	102.000000
0.930000	58.020000	13.400000	638.000000	0.000000	156.000000	59.000000	24.000000	155.000000
0.940000	58.260000	14.980000	644.000000	0.000000	157.000000	58.000000	24.000000	158.000000
0.950000	58.420000	16.590000	644.000000	0.000000	157.000000	58.000000	16.000000	161.000000
0.960000	58.500000	17.780000	647.000000	0.000000	157.000000	57.000000	8.000000	119.000000
0.970000	58.500000	18.340000	637.000000	0.000000	157.000000	57.000000	0.000000	56.000000
0.980000	58.500000	18.470000	637.000000	0.000000	157.000000	56.000000	0.000000	13.000000
0.990000	58.430000	18.470000	647.000000	0.000000	156.000000	55.000000	-7.000000	0.000000
1.000000	58.430000	18.390000	647.000000	0.000000	157.000000	54.000000	0.000000	-8.000000
1.010000	58.430000	17.730000	636.000000	0.000000	157.000000	54.000000	0.000000	-66.000000
1.020000	58.430000	16.680000	647.000000	0.000000	156.000000	53.000000	0.000000	-105.000000
1.030000	58.430000	15.220000	638.000000	0.000000	156.000000	53.000000	0.000000	-146.000000
1.040000	58.560000	13.760000	641.000000	0.000000	157.000000	54.000000	13.000000	-146.000000
1.050000	58.750000	12.450000	640.000000	0.000000	157.000000	54.000000	19.000000	-131.000000
1.060000	59.000000	11.240000	641.000000	0.000000	158.000000	55.000000	25.000000	-121.000000
1.070000	59.310000	10.650000	641.000000	0.000000	157.000000	56.000000	31.000000	-59.000000
1.080000	59.660000	10.340000	641.000000	0.000000	158.000000	56.000000	35.000000	-31.000000
1.090000	59.850000	10.210000	646.000000	0.000000	159.000000	57.000000	19.000000	-13.000000
1.100000	60.000000	10.210000	650.000000	0.000000	158.000000	58.000000	15.000000	0.000000
1.110000	60.130000	10.480000	652.000000	0.000000	160.000000	58.000000	13.000000	27.000000
1.120000	60.310000	10.890000	655.000000	0.000000	160.000000	58.000000	18.000000	41.000000
1.130000	60.500000	11.610000	655.000000	0.000000	160.000000	58.000000	19.000000	72.000000
1.140000	60.720000	12.390000	658.000000	0.000000	160.000000	58.000000	22.000000	78.000000
1.150000	60.830000	13.220000	662.000000	0.000000	160.000000	58.000000	11.000000	83.000000
1.160000	60.830000	13.510000	670.000000	0.000000	160.000000	58.000000	0.000000	29.000000
1.170000	60.830000	13.570000	673.000000	0.000000	160.000000	58.000000	0.000000	6.000000
1.180000	60.830000	13.490000	663.000000	0.000000	160.000000	58.000000	0.000000	-8.000000
1.190000	60.830000	13.170000	666.000000	0.000000	160.000000	58.000000	0.000000	-32.000000
1.200000	60.740000	12.470000	667.000000	0.000000	160.000000	58.000000	-9.000000	-70.000000
1.210000	60.740000	11.520000	667.000000	0.000000	160.000000	58.000000	0.000000	-95.000000
1.220000	60.740000	10.960000	670.000000	0.000000	160.000000	58.000000	0.000000	-56.000000
1.230000	61.030000	10.530000	667.000000	0.000000	160.000000	58.000000	29.000000	-43.000000
1.240000	61.310000	10.190000	669.000000	0.000000	160.000000	58.000000	28.000000	-34.000000
1.250000	61.610000	10.020000	670.000000	0.000000	160.000000	58.000000	30.000000	-17.000000
1.260000	61.930000	10.020000	672.000000	0.000000	160.000000	58.000000	32.000000	0.000000
1.270000	62.130000	10.020000	676.000000	0.000000	160.000000	58.000000	20.000000	0.000000
1.280000	62.250000	10.240000	679.000000	0.000000	160.000000	58.000000	12.000000	22.000000
1.290000	62.370000	10.610000	681.000000	0.000000	158.000000	58.000000	12.000000	37.000000
1.300000	62.370000	11.120000	687.000000	0.000000	158.000000	58.000000	0.000000	51.000000
1.310000	62.370000	11.690000	687.000000	0.000000	159.000000	57.000000	0.000000	57.000000
1.320000	62.140000	12.080000	682.000000	0.000000	158.000000	58.000000	-23.000000	39.000000
1.330000	61.960000	12.350000	636.000000	0.000000	160.000000	58.000000	-18.000000	27.000000
1.340000	61.810000	12.440000	374.000000	0.000000	160.000000	58.000000	-15.000000	9.000000
1.350000	61.810000	12.440000	0.000000	1.000000	160.000000	58.000000	0.000000	0.000000
1.360000	61.750000	12.310000	0.000000	0.000000	160.000000	58.000000	-6.000000	-13.000000
1.370000	61.700000	12.030000	0.000000	0.000000	160.000000	58.000000	-5.000000	-28.000000
1.380000	61.700000	11.810000	0.000000	0.000000	160.000000	58.000000	0.000000	-22.000000
1.390000	61.920000	11.550000	0.000000	0.000000	158.000000	58.000000	22.000000	-26.000000
1.400000	62.270000	11.260000	0.000000	0.000000	159.000000	57.000000	35.000000	-29.000000
1.410000	62.790000	11.100000	0.000000	0.000000	159.000000	57.000000	52.000000	-16.000000
1.420000	63.320000	10.970000	0.000000	0.000000	160.000000	56.000000	53.000000	-13.000000
1.430000	63.840000	10.860000	0.000000	0.000000	158.000000	56.000000	52.000000	-11.000000
1.440000	64.110000	10.780000	0.000000	0.000000	158.000000	56.000000	27.000000	-8.000000
1.450000	64.220000	10.730000	0.000000	0.000000	159.000000	55.000000	11.000000	-5.000000
1.460000	64.050000	10.730000	0.000000	0.000000	159.000000	55.000000	-17.000000	0.000000
1.470000	63.820000	10.670000	0.000000	0.000000	159.000000	55.000000	-23.000000	-6.000000
1.480000	63.560000	10.670000	0.000000	0.000000	159.000000	55.000000	-26.000000	0.000000
1.490000	63.370000	10.740000	0.000000	0.000000	160.000000	55.000000	-19.000000	7.000000
1.500000	63.180000	10.740000	0.000000	0.000000	160.000000	56.000000	-19.000000	0.000000
1.510000	63.030000	10.740000	0.000000	0.000000	160.000000	56.000000	-15.000000	0.000000
1.520000	62.920000	10.740000	0.000000	0.000000	160.000000	56.000000	-11.000000	0.000000
1.530000	62.830000	10.740000	0.000000	0.000000	160.000000	56.000000	-9.000000	0.000000
1.540000	62.740000	10.670000	0.000000	0.000000	159.000000	57.000000	-9.000000	-7.000000
1.550000	62.740000	10.670000	0.000000	0.000000	159.000000	57.000000	0.000000	0.000000
1.560000	62.740000	10.720000	0.000000	0.000000	159.000000	57.000000	0.000000	5.000000
1.570000	62.740000	10.780000	0.000000	0.000000	159.000000	57.000000	0.000000	6.000000
1.580000	62.790000	10.830000	0.000000	0.000000	159.000000	57.000000	5.000000	5.000000
1.590000	62.790000	10.830000	0.000000	0.000000	159.000000	57.000000	0.000000	0.000000
1.600000	62.740000	10.910000	0.000000	0.000000	159.000000	57.000000	-5.000000	8.000000
1.610000	62.680000	10.970000	0.000000	0.000000	159.000000	57.000000	-6.000000	6.000000
1.620000	62.620000	11.020000	0.000000	0.000000	159.000000	57.000000	-6.000000	5.000000
1.630000	62.620000	11.020000	0.000000	0.000000	159.000000	57.000000	0.000000	0.000000
1.640000	62.620000	11.020000	0.000000	0.000000	159.000000	57.000000	0.000000	0.000000
1.650000	62.620000	11.020000	0.000000	0.000000	159.000000	57.000000	0.000000	0.000000
1.660000	62.620000	11.020000	0.000000	0.000000	158.000000	56.000000	0.000000	0.000000
1.670000	62.690000	11.300000	0.000000	0.000000	158.000000	56.000000	7.000000	28.000000
1.680000	62.760000	11.360000	0.000000	0.000000	158.000000	56.000000	7.000000	6.000000
1.690000	62.810000	11.410000	0.000000	0.000000	158.000000	56.000000	5.000000	5.000000
1.700000	62.810000	11.410000	0.000000	0.000000	158.000000	56.000000	0.000000	0.000000
1.710000	62.810000	11.410000	0.000000	0.000000	158.000000	56.000000	0.000000	0.000000
1.720000	62.880000	11.410000	0.000000	0.000000	158.000000	56.000000	7.000000	0.000000
1.730000	62.880000	11.460000	0.000000	0.000000	158.000000	56.000000	0.000000	5.000000
1.740000	62.880000	11.530000	0.000000	0.000000	158.000000	56.000000	0.000000	7.000000
1.750000	62.880000	11.620000	0.000000	0.000000	160.000000	56.000000	0.000000	9.000000
1.760000	62.880000	11.620000	0.000000	0.000000	160.000000	56.000000	0.000000	0.000000
1.770000	62.880000	11.620000	0.000000	0.000000	160.000000	56.000000	0.000000	0.000000
1.780000	62.880000	11.620000	0.000000	0.000000	160.000000	56.000000	0.000000	0.000000
1.790000	62.880000	11.620000	0.000000	0.000000	160.000000	56.000000	0.000000	0.000000
1.800000	62.880000	11.620000	0.000000	0.000000	160.000000	56.000000	0.000000	0.000000
1.810000	62.880000	11.620000	0.000000	0.000000	160.000000	56.000000	0.000000	0.000000
1.820000	62.880000	11.620000	0.000000	0.000000	160.000000	56.000000	0.000000	0.000000
1.830000	62.880000	11.620000	0.000000	0.000000	160.000000	56.000000	0.000000	0.000000
1.840000	62.880000	11.620000	0.000000	0.000000	160.000000	56.000000	0.000000	0.000000
1.850000	62.880000	11.620000	0.000000	0.000000	160.000000	56.000000	0.000000	0.000000
1.860000	62.940000	11.620000	0.000000	0.000000	158.000000	56.000000	6.000000	0.000000
1.870000	62.940000	11.620000	0.000000	0.000000	158.000000	56.000000	0.000000	0.000000
1.880000	63.000000	11.620000	0.000000	0.000000	158.000000	56.000000	6.000000	0.000000
1.890000	63.000000	11.620000	0.000000	0.000000	158.000000	56.000000	0.000000	0.000000
1.900000	63.090000	11.670000	0.000000	0.000000	158.000000	56.000000	9.000000	5.000000
1.910000	63.090000	11.670000	0.000000	0.000000	158.000000	56.000000	0.000000	0.000000
1.920000	63.140000	11.730000	0.000000	0.000000	160.000000	56.000000	5.000000	6.000000
1.930000	63.140000	11.800000	0.000000	0.000000	160.000000	56.000000	0.000000	7.000000
1.940000	63.190000	11.800000	0.000000	0.000000	160.000000	56.000000	5.000000	0.000000
1.950000	63.190000	11.870000	0.000000	0.000000	160.000000	56.000000	0.000000	7.000000
1.960000	63.240000	11.920000	0.000000	0.000000	160.000000	56.000000	5.000000	5.000000
1.970000	63.240000	11.920000	0.000000	0.000000	160.000000	56.000000	0.000000	0.000000
1.980000	63.240000	11.990000	0.000000	0.000000	160.000000	56.000000	0.000000	7.000000
1.990000	63.240000	11.990000	0.000000	0.000000	160.000000	56.000000	0.000000	0.000000
2.000000	63.240000	12.130000	0.000000	0.000000	160.000000	56.000000	0.000000	14.000000
2.010000	63.240000	12.270000	0.000000	0.000000	160.000000	56.000000	0.000000	14.000000
2.020000	63.290000	12.370000	0.000000	0.000000	160.000000	56.000000	5.000000	10.000000
2.030000	63.340000	12.540000	0.000000	0.000000	160.000000	56.000000	5.000000	17.000000
2.040000	63.410000	12.750000	0.000000	0.000000	160.000000	56.000000	7.000000	21.000000
2.050000	63.410000	12.750000	119.000000	1.000000	160.000000	56.000000	0.000000	0.000000
2.060000	63.410000	12.750000	180.000000	0.000000	160.000000	56.000000	0.000000	0.000000
2.070000	63.410000	12.750000	274.000000	0.000000	160.000000	56.000000	0.000000	0.000000
2.080000	63.410000	12.750000	373.000000	0.000000	159.000000	57.000000	0.000000	0.000000
2.090000	63.360000	12.380000	423.000000	0.000000	159.000000	57.000000	-5.000000	-37.000000
2.100000	63.290000	11.700000	463.000000	0.000000	159.000000	57.000000	-7.000000	-68.000000
2.110000	63.290000	11.000000	475.000000	0.000000	159.000000	57.000000	0.000000	-70.000000
2.120000	63.290000	10.500000	491.000000	0.000000	159.000000	57.000000	0.000000	-50.000000
2.130000	63.370000	10.140000	510.000000	0.000000	159.000000	57.000000	8.000000	-36.000000
2.140000	63.370000	9.850000	546.000000	0.000000	159.000000	57.000000	0.000000	-29.000000
2.150000	63.370000	9.690000	592.000000	0.000000	159.000000	57.000000	0.000000	-16.000000
2.160000	63.370000	9.630000	662.000000	0.000000	159.000000	57.000000	0.000000	-6.000000
2.170000	63.370000	9.630000	700.000000	0.000000	159.000000	57.000000	0.000000	0.000000
2.180000	63.370000	9.880000	714.000000	0.000000	159.000000	57.000000	0.000000	25.000000
2.190000	63.420000	10.220000	717.000000	0.000000	159.000000	57.000000	5.000000	34.000000
2.200000	63.560000	10.730000	724.000000	0.000000	159.000000	57.000000	14.000000	51.000000
2.210000	63.770000	11.490000	724.000000	0.000000	159.000000	57.000000	21.000000	76.000000
2.220000	64.050000	12.430000	722.000000	0.000000	159.000000	57.000000	28.000000	94.000000
2.230000	64.280000	12.940000	697.000000	0.000000	159.000000	57.000000	23.000000	51.000000
