t	x	y	pressure	penup	azimuth	inclination	v_x	v_y
0.000000	96.270000	17.400000	10.000000	1.000000	165.000000	49.000000	0.000000	0.000000
0.010000	96.040000	17.750000	46.000000	1.000000	164.000000	50.000000	0.000000	0.000000
0.020000	95.930000	17.990000	55.000000	0.000000	164.000000	51.000000	-11.000000	24.000000
0.030000	95.850000	18.130000	109.000000	0.000000	162.000000	53.000000	-8.000000	14.000000
0.040000	95.850000	18.130000	120.000000	0.000000	162.000000	54.000000	0.000000	0.000000
0.050000	95.790000	18.080000	176.000000	0.000000	161.000000	55.000000	-6.000000	-5.000000
0.060000	95.790000	17.690000	270.000000	0.000000	160.000000	54.000000	0.000000	-39.000000
0.070000	95.790000	17.100000	367.000000	0.000000	160.000000	54.000000	0.000000	-59.000000
0.080000	95.790000	16.110000	420.000000	0.000000	160.000000	53.000000	0.000000	-99.000000
0.090000	95.790000	14.930000	465.000000	0.000000	160.000000	53.000000	0.000000	-118.000000
0.100000	95.790000	13.620000	481.000000	0.000000	161.000000	52.000000	0.000000	-131.000000
0.110000	95.700000	12.620000	510.000000	0.000000	161.000000	52.000000	-9.000000	-100.000000
0.120000	95.700000	11.870000	512.000000	0.000000	161.000000	52.000000	0.000000	-75.000000
0.130000	95.790000	11.300000	515.000000	0.000000	161.000000	52.000000	9.000000	-57.000000
0.140000	95.840000	11.170000	515.000000	0.000000	160.000000	53.000000	5.000000	-13.000000
0.150000	95.840000	11.170000	504.000000	0.000000	160.000000	53.000000	0.000000	0.000000
0.160000	95.840000	11.170000	418.000000	0.000000	160.000000	54.000000	0.000000	0.000000
0.170000	95.840000	11.170000	171.000000	0.000000	161.000000	55.000000	0.000000	0.000000
0.180000	95.840000	11.170000	0.000000	1.000000	161.000000	55.000000	0.000000	0.000000
0.190000	95.990000	11.620000	0.000000	0.000000	161.000000	55.000000	15.000000	45.000000
0.200000	96.220000	12.120000	0.000000	0.000000	161.000000	55.000000	23.000000	50.000000
0.210000	96.500000	12.570000	0.000000	0.000000	161.000000	55.000000	28.000000	45.000000
0.220000	96.800000	13.000000	0.000000	0.000000	163.000000	54.000000	30.000000	43.000000
0.230000	97.130000	13.230000	0.000000	0.000000	164.000000	53.000000	33.000000	23.000000
0.240000	97.460000	13.410000	0.000000	0.000000	165.000000	51.000000	33.000000	18.000000
0.250000	97.810000	13.500000	0.000000	0.000000	167.000000	50.000000	35.000000	9.000000
0.260000	98.150000	13.580000	0.000000	0.000000	167.000000	48.000000	34.000000	8.000000
0.270000	98.500000	13.670000	0.000000	0.000000	168.000000	46.000000	35.000000	9.000000
0.280000	98.750000	13.730000	0.000000	0.000000	170.000000	46.000000	25.000000	6.000000
0.290000	98.950000	13.790000	0.000000	0.000000	171.000000	44.000000	20.000000	6.000000
0.300000	99.130000	13.870000	0.000000	0.000000	171.000000	44.000000	18.000000	8.000000
0.310000	99.210000	13.980000	0.000000	0.000000	172.000000	43.000000	8.000000	11.000000
0.320000	99.210000	14.060000	0.000000	0.000000	173.000000	43.000000	0.000000	8.000000
0.330000	99.140000	14.120000	0.000000	0.000000	173.000000	43.000000	-7.000000	6.000000
0.340000	99.080000	14.120000	0.000000	0.000000	173.000000	43.000000	-6.000000	0.000000
0.350000	99.030000	14.120000	0.000000	0.000000	173.000000	43.000000	-5.000000	0.000000
0.360000	98.960000	14.050000	0.000000	0.000000	172.000000	44.000000	-7.000000	-7.000000
0.370000	98.960000	14.050000	149.000000	1.000000	172.000000	45.000000	0.000000	0.000000
0.380000	98.750000	14.320000	131.000000	0.000000	171.000000	46.000000	-21.000000	27.000000
0.390000	98.630000	14.580000	96.000000	0.000000	170.000000	47.000000	-12.000000	26.000000
0.400000	98.410000	14.700000	98.000000	0.000000	170.000000	48.000000	-22.000000	12.000000
0.410000	98.110000	14.700000	143.000000	0.000000	170.000000	49.000000	-30.000000	0.000000
0.420000	97.710000	14.650000	158.000000	0.000000	169.000000	50.000000	-40.000000	-5.000000
0.430000	97.330000	14.520000	215.000000	0.000000	168.000000	50.000000	-38.000000	-13.000000
0.440000	97.030000	14.310000	239.000000	0.000000	168.000000	50.000000	-30.000000	-21.000000
0.450000	96.810000	14.060000	247.000000	0.000000	167.000000	51.000000	-22.000000	-25.000000
0.460000	96.810000	13.780000	274.000000	0.000000	166.000000	51.000000	0.000000	-28.000000
0.470000	96.970000	13.530000	304.000000	0.000000	166.000000	52.000000	16.000000	-25.000000
0.480000	97.320000	13.280000	335.000000	0.000000	166.000000	52.000000	35.000000	-25.000000
0.490000	97.720000	13.030000	343.000000	0.000000	164.000000	52.000000	40.000000	-25.000000
0.500000	98.100000	12.760000	364.000000	0.000000	165.000000	53.000000	38.000000	-27.000000
0.510000	98.450000	12.490000	373.000000	0.000000	165.000000	53.000000	35.000000	-27.000000
0.520000	98.520000	12.270000	371.000000	0.000000	165.000000	53.000000	7.000000	-22.000000
0.530000	98.440000	12.090000	398.000000	0.000000	165.000000	53.000000	-8.000000	-18.000000
0.540000	98.260000	11.830000	394.000000	0.000000	166.000000	54.000000	-18.000000	-26.000000
0.550000	97.900000	11.610000	392.000000	0.000000	166.000000	54.000000	-36.000000	-22.000000
0.560000	97.530000	11.480000	396.000000	0.000000	166.000000	54.000000	-37.000000	-13.000000
0.570000	97.160000	11.400000	348.000000	0.000000	166.000000	54.000000	-37.000000	-8.000000
0.580000	97.020000	11.400000	260.000000	0.000000	166.000000	54.000000	-14.000000	0.000000
0.590000	96.940000	11.470000	108.000000	0.000000	166.000000	54.000000	-8.000000	7.000000
0.600000	96.940000	11.470000	0.000000	1.000000	166.000000	54.000000	0.000000	0.000000
0.610000	97.210000	11.870000	0.000000	0.000000	166.000000	54.000000	27.000000	40.000000
0.620000	97.640000	12.250000	0.000000	0.000000	166.000000	54.000000	43.000000	38.000000
0.630000	98.070000	12.680000	0.000000	0.000000	166.000000	54.000000	43.000000	43.000000
0.640000	98.490000	13.010000	0.000000	0.000000	166.000000	53.000000	42.000000	33.000000
0.650000	98.790000	13.300000	0.000000	0.000000	167.000000	52.000000	30.000000	29.000000
0.660000	99.000000	13.530000	0.000000	0.000000	169.000000	51.000000	21.000000	23.000000
0.670000	99.200000	13.660000	0.000000	0.000000	170.000000	51.000000	20.000000	13.000000
0.680000	99.290000	13.660000	0.000000	0.000000	170.000000	50.000000	9.000000	0.000000
0.690000	99.290000	13.660000	0.000000	0.000000	172.000000	49.000000	0.000000	0.000000
0.700000	99.290000	13.490000	0.000000	0.000000	172.000000	48.000000	0.000000	-17.000000
0.710000	99.290000	13.440000	0.000000	0.000000	172.000000	48.000000	0.000000	-5.000000
0.720000	99.340000	13.440000	0.000000	0.000000	172.000000	48.000000	5.000000	0.000000
0.730000	99.420000	13.540000	0.000000	0.000000	172.000000	48.000000	8.000000	10.000000
0.740000	99.420000	13.540000	41.000000	1.000000	172.000000	49.000000	0.000000	0.000000
0.750000	99.420000	13.540000	113.000000	0.000000	172.000000	50.000000	0.000000	0.000000
0.760000	99.670000	13.700000	179.000000	0.000000	170.000000	51.000000	25.000000	16.000000
0.770000	99.770000	13.650000	287.000000	0.000000	170.000000	52.000000	10.000000	-5.000000
0.780000	99.860000	13.430000	342.000000	0.000000	170.000000	52.000000	9.000000	-22.000000
0.790000	99.970000	13.110000	367.000000	0.000000	169.000000	51.000000	11.000000	-32.000000
0.800000	100.030000	12.770000	407.000000	0.000000	168.000000	52.000000	6.000000	-34.000000
0.810000	100.030000	12.470000	415.000000	0.000000	168.000000	52.000000	0.000000	-30.000000
0.820000	100.030000	12.340000	423.000000	0.000000	168.000000	52.000000	0.000000	-13.000000
0.830000	100.030000	12.340000	423.000000	0.000000	167.000000	52.000000	0.000000	0.000000
0.840000	100.030000	12.340000	430.000000	0.000000	167.000000	52.000000	0.000000	0.000000
0.850000	100.030000	12.340000	440.000000	0.000000	166.000000	53.000000	0.000000	0.000000
0.860000	100.080000	12.450000	448.000000	0.000000	166.000000	53.000000	5.000000	11.000000
0.870000	100.160000	12.740000	445.000000	0.000000	168.000000	53.000000	8.000000	29.000000
0.880000	100.390000	13.140000	442.000000	0.000000	168.000000	53.000000	23.000000	40.000000
0.890000	100.720000	13.610000	423.000000	0.000000	168.000000	53.000000	33.000000	47.000000
0.900000	101.050000	13.930000	376.000000	0.000000	168.000000	53.000000	33.000000	32.000000
0.910000	101.290000	14.100000	225.000000	0.000000	169.000000	53.000000	24.000000	17.000000
0.920000	101.290000	14.100000	0.000000	1.000000	169.000000	53.000000	0.000000	0.000000
0.930000	101.650000	14.170000	0.000000	0.000000	170.000000	52.000000	36.000000	7.000000
0.940000	101.800000	14.080000	0.000000	0.000000	170.000000	52.000000	15.000000	-9.000000
0.950000	101.930000	14.010000	0.000000	0.000000	170.000000	51.000000	13.000000	-7.000000
0.960000	102.200000	14.010000	0.000000	0.000000	170.000000	50.000000	27.000000	0.000000
0.970000	102.610000	14.010000	0.000000	0.000000	170.000000	48.000000	41.000000	0.000000
0.980000	103.100000	14.010000	0.000000	0.000000	170.000000	47.000000	49.000000	0.000000
0.990000	103.610000	14.010000	0.000000	0.000000	170.000000	46.000000	51.000000	0.000000
1.000000	103.960000	13.950000	0.000000	0.000000	170.000000	45.000000	35.000000	-6.000000
1.010000	104.200000	13.820000	0.000000	0.000000	170.000000	44.000000	24.000000	-13.000000
1.020000	104.200000	13.730000	0.000000	0.000000	170.000000	43.000000	0.000000	-9.000000
1.030000	104.200000	13.680000	0.000000	0.000000	170.000000	43.000000	0.000000	-5.000000
1.040000	104.200000	13.680000	0.000000	0.000000	170.000000	42.000000	0.000000	0.000000
1.050000	104.140000	13.770000	0.000000	0.000000	170.000000	43.000000	-6.000000	9.000000
1.060000	104.060000	13.870000	0.000000	0.000000	170.000000	43.000000	-8.000000	10.000000
1.070000	103.980000	13.950000	0.000000	0.000000	170.000000	43.000000	-8.000000	8.000000
1.080000	103.980000	14.060000	0.000000	0.000000	169.000000	44.000000	0.000000	11.000000
1.090000	103.980000	14.200000	0.000000	0.000000	169.000000	44.000000	0.000000	14.000000
1.100000	103.980000	14.360000	0.000000	0.000000	170.000000	44.000000	0.000000	16.000000
1.110000	103.980000	14.580000	0.000000	0.000000	170.000000	44.000000	0.000000	22.000000
1.120000	104.040000	14.850000	0.000000	0.000000	170.000000	45.000000	6.000000	27.000000
1.130000	104.090000	15.120000	0.000000	0.000000	170.000000	45.000000	5.000000	27.000000
1.140000	104.170000	15.330000	0.000000	0.000000	170.000000	45.000000	8.000000	21.000000
1.150000	104.170000	15.330000	51.000000	1.000000	170.000000	45.000000	0.000000	0.000000
1.160000	104.170000	15.330000	127.000000	0.000000	170.000000	45.000000	0.000000	0.000000
1.170000	104.170000	15.330000	190.000000	0.000000	170.000000	46.000000	0.000000	0.000000
1.180000	104.400000	15.070000	244.000000	0.000000	170.000000	46.000000	23.000000	-26.000000
1.190000	104.400000	14.690000	279.000000	0.000000	170.000000	46.000000	0.000000	-38.000000
1.200000	104.270000	14.260000	292.000000	0.000000	170.000000	46.000000	-13.000000	-43.000000
1.210000	104.060000	13.830000	297.000000	0.000000	169.000000	46.000000	-21.000000	-43.000000
1.220000	103.840000	13.420000	301.000000	0.000000	169.000000	46.000000	-22.000000	-41.000000
1.230000	103.510000	13.030000	299.000000	0.000000	169.000000	47.000000	-33.000000	-39.000000
1.240000	103.110000	12.750000	277.000000	0.000000	169.000000	48.000000	-40.000000	-28.000000
1.250000	102.720000	12.570000	237.000000	0.000000	170.000000	49.000000	-39.000000	-18.000000
1.260000	102.350000	12.450000	181.000000	0.000000	169.000000	50.000000	-37.000000	-12.000000
1.270000	102.040000	12.550000	130.000000	0.000000	169.000000	50.000000	-31.000000	10.000000
1.280000	101.790000	12.760000	91.000000	0.000000	169.000000	50.000000	-25.000000	21.000000
1.290000	101.700000	13.050000	101.000000	0.000000	169.000000	50.000000	-9.000000	29.000000
1.300000	101.700000	13.360000	109.000000	0.000000	169.000000	50.000000	0.000000	31.000000
1.310000	101.850000	13.630000	149.000000	0.000000	169.000000	50.000000	15.000000	27.000000
1.320000	102.120000	13.850000	195.000000	0.000000	169.000000	50.000000	27.000000	22.000000
1.330000	102.480000	14.070000	251.000000	0.000000	169.000000	50.000000	36.000000	22.000000
1.340000	102.860000	14.130000	280.000000	0.000000	169.000000	50.000000	38.000000	6.000000
1.350000	103.200000	14.130000	311.000000	0.000000	169.000000	50.000000	34.000000	0.000000
1.360000	103.490000	13.910000	329.000000	0.000000	169.000000	50.000000	29.000000	-22.000000
1.370000	103.760000	13.700000	369.000000	0.000000	169.000000	50.000000	27.000000	-21.000000
1.380000	104.090000	13.450000	387.000000	0.000000	169.000000	50.000000	33.000000	-25.000000
1.390000	104.380000	13.150000	399.000000	0.000000	169.000000	50.000000	29.000000	-30.000000
1.400000	104.640000	12.860000	391.000000	0.000000	169.000000	50.000000	26.000000	-29.000000
1.410000	104.820000	12.640000	348.000000	0.000000	169.000000	50.000000	18.000000	-22.000000
1.420000	104.930000	12.470000	249.000000	0.000000	170.000000	50.000000	11.000000	-17.000000
1.430000	104.930000	12.360000	1.000000	1.000000	170.000000	51.000000	0.000000	0.000000
1.440000	104.930000	12.360000	0.000000	0.000000	170.000000	51.000000	0.000000	0.000000
1.450000	104.720000	12.310000	0.000000	0.000000	170.000000	51.000000	-21.000000	-5.000000
1.460000	104.430000	12.610000	0.000000	0.000000	170.000000	51.000000	-29.000000	30.000000
1.470000	104.050000	13.000000	0.000000	0.000000	170.000000	50.000000	-38.000000	39.000000
1.480000	103.600000	13.450000	0.000000	0.000000	170.000000	49.000000	-45.000000	45.000000
1.490000	103.290000	13.720000	0.000000	0.000000	170.000000	47.000000	-31.000000	27.000000
1.500000	102.740000	13.930000	0.000000	0.000000	170.000000	45.000000	-55.000000	21.000000
1.510000	102.040000	14.020000	0.000000	0.000000	169.000000	44.000000	-70.000000	9.000000
1.520000	101.290000	14.020000	0.000000	0.000000	168.000000	41.000000	-75.000000	0.000000
1.530000	100.390000	14.110000	0.000000	0.000000	168.000000	39.000000	-90.000000	9.000000
1.540000	99.390000	14.180000	0.000000	0.000000	168.000000	38.000000	-100.000000	7.000000
1.550000	98.290000	14.180000	0.000000	0.000000	168.000000	38.000000	-110.000000	0.000000
1.560000	97.150000	14.250000	0.000000	0.000000	168.000000	37.000000	-114.000000	7.000000
1.570000	95.970000	14.250000	0.000000	0.000000	169.000000	38.000000	-118.000000	0.000000
1.580000	95.130000	14.250000	0.000000	0.000000	169.000000	38.000000	-84.000000	0.000000
1.590000	94.460000	14.160000	0.000000	0.000000	169.000000	39.000000	-67.000000	-9.000000
1.600000	93.890000	14.100000	0.000000	0.000000	170.000000	41.000000	-57.000000	-6.000000
1.610000	93.480000	14.100000	0.000000	0.000000	170.000000	41.000000	-41.000000	0.000000
1.620000	93.270000	14.100000	0.000000	0.000000	170.000000	42.000000	-21.000000	0.000000
1.630000	93.180000	14.100000	0.000000	0.000000	170.000000	42.000000	-9.000000	0.000000
1.640000	93.180000	14.100000	0.000000	0.000000	170.000000	43.000000	0.000000	0.000000
1.650000	93.290000	14.100000	0.000000	0.000000	170.000000	43.000000	11.000000	0.000000
1.660000	93.440000	14.200000	0.000000	0.000000	169.000000	44.000000	15.000000	10.000000
1.670000	93.590000	14.340000	0.000000	0.000000	169.000000	44.000000	15.000000	14.000000
1.680000	93.740000	14.470000	0.000000	0.000000	170.000000	44.000000	15.000000	13.000000
1.690000	93.860000	14.580000	0.000000	0.000000	170.000000	44.000000	12.000000	11.000000
1.700000	93.940000	14.730000	0.000000	0.000000	170.000000	44.000000	8.000000	15.000000
1.710000	94.000000	14.870000	0.000000	0.000000	170.000000	44.000000	6.000000	14.000000
1.720000	94.000000	15.030000	0.000000	0.000000	170.000000	44.000000	0.000000	16.000000
1.730000	94.000000	15.200000	0.000000	0.000000	170.000000	44.000000	0.000000	17.000000
1.740000	93.950000	15.310000	0.000000	0.000000	170.000000	44.000000	-5.000000	11.000000
1.750000	93.820000	15.430000	0.000000	0.000000	170.000000	44.000000	-13.000000	12.000000
1.760000	93.670000	15.580000	0.000000	0.000000	170.000000	44.000000	-15.000000	15.000000
1.770000	93.510000	15.760000	0.000000	0.000000	170.000000	44.000000	-16.000000	18.000000
1.780000	93.400000	15.960000	0.000000	0.000000	170.000000	44.000000	-11.000000	20.000000
1.790000	93.290000	16.200000	0.000000	0.000000	170.000000	44.000000	-11.000000	24.000000
1.800000	93.170000	16.480000	0.000000	0.000000	170.000000	44.000000	-12.000000	28.000000
1.810000	93.060000	16.660000	0.000000	0.000000	170.000000	44.000000	-11.000000	18.000000
1.820000	92.950000	16.810000	0.000000	0.000000	170.000000	44.000000	-11.000000	15.000000
1.830000	92.840000	16.890000	0.000000	0.000000	170.000000	44.000000	-11.000000	8.000000
1.840000	92.680000	16.890000	0.000000	0.000000	170.000000	44.000000	-16.000000	0.000000
1.850000	92.490000	16.890000	0.000000	0.000000	170.000000	44.000000	-19.000000	0.000000
1.860000	92.250000	16.890000	0.000000	0.000000	170.000000	44.000000	-24.000000	0.000000
1.870000	92.010000	16.810000	0.000000	0.000000	170.000000	44.000000	-24.000000	-8.000000
1.880000	91.770000	16.810000	0.000000	0.000000	170.000000	44.000000	-24.000000	0.000000
1.890000	91.520000	16.810000	0.000000	0.000000	171.000000	44.000000	-25.000000	0.000000
1.900000	91.370000	16.810000	0.000000	0.000000	171.000000	44.000000	-15.000000	0.000000
1.910000	91.250000	16.860000	0.000000	0.000000	171.000000	44.000000	-12.000000	5.000000
1.920000	91.150000	16.860000	0.000000	0.000000	171.000000	44.000000	-10.000000	0.000000
1.930000	91.060000	16.860000	0.000000	0.000000	172.000000	45.000000	-9.000000	0.000000
1.940000	91.010000	16.780000	0.000000	0.000000	172.000000	45.000000	-5.000000	-8.000000
1.950000	91.010000	16.780000	0.000000	0.000000	172.000000	45.000000	0.000000	0.000000
1.960000	90.950000	16.780000	0.000000	0.000000	173.000000	45.000000	-6.000000	0.000000
1.970000	90.950000	16.780000	0.000000	0.000000	173.000000	45.000000	0.000000	0.000000
1.980000	90.950000	16.780000	0.000000	0.000000	173.000000	45.000000	0.000000	0.000000
1.990000	90.950000	16.780000	12.000000	0.000000	173.000000	45.000000	0.000000	0.000000
2.000000	90.950000	16.780000	20.000000	1.000000	173.000000	45.000000	0.000000	0.000000
2.010000	90.950000	16.780000	13.000000	1.000000	173.000000	45.000000	0.000000	0.000000
2.020000	90.950000	16.780000	1.000000	0.000000	173.000000	45.000000	0.000000	0.000000
2.030000	90.950000	16.780000	0.000000	0.000000	173.000000	45.000000	0.000000	0.000000
2.040000	91.250000	16.740000	0.000000	0.000000	173.000000	45.000000	30.000000	-4.000000
2.050000	91.350000	16.680000	0.000000	0.000000	173.000000	45.000000	10.000000	-6.000000
2.060000	91.460000	16.730000	0.000000	0.000000	173.000000	45.000000	11.000000	5.000000
2.070000	91.670000	16.850000	0.000000	0.000000	173.000000	45.000000	21.000000	12.000000
2.080000	91.940000	17.020000	0.000000	0.000000	173.000000	46.000000	27.000000	17.000000
2.090000	92.190000	17.170000	0.000000	0.000000	172.000000	46.000000	25.000000	15.000000
2.100000	92.410000	17.310000	0.000000	0.000000	171.000000	48.000000	22.000000	14.000000
2.110000	92.600000	17.310000	0.000000	0.000000	170.000000	49.000000	19.000000	0.000000
2.120000	92.700000	17.380000	0.000000	0.000000	168.000000	50.000000	10.000000	7.000000
2.130000	92.800000	17.380000	0.000000	0.000000	166.000000	52.000000	10.000000	0.000000
2.140000	92.890000	17.380000	0.000000	0.000000	165.000000	53.000000	9.000000	0.000000
2.150000	92.970000	17.470000	0.000000	0.000000	163.000000	55.000000	8.000000	9.000000
2.160000	93.050000	17.470000	0.000000	0.000000	162.000000	56.000000	8.000000	0.000000
2.170000	93.130000	17.520000	0.000000	0.000000	161.000000	57.000000	8.000000	5.000000
2.180000	93.130000	17.600000	0.000000	0.000000	160.000000	56.000000	0.000000	8.000000
2.190000	93.180000	17.600000	0.000000	0.000000	160.000000	56.000000	5.000000	0.000000
2.200000	93.180000	17.600000	0.000000	0.000000	160.000000	56.000000	0.000000	0.000000
2.210000	93.180000	17.600000	0.000000	0.000000	160.000000	56.000000	0.000000	0.000000
2.220000	93.180000	17.600000	0.000000	0.000000	160.000000	56.000000	0.000000	0.000000
2.230000	93.180000	17.600000	0.000000	0.000000	161.000000	57.000000	0.000000	0.000000
