t	x	y	pressure	penup	azimuth	inclination	v_x	v_y
0.000000	18.930000	18.280000	76.000000	1.000000	163.000000	50.000000	0.000000	0.000000
0.010000	18.930000	18.280000	109.000000	0.000000	162.000000	52.000000	0.000000	0.000000
0.020000	18.930000	18.280000	139.000000	0.000000	162.000000	53.000000	0.000000	0.000000
0.030000	18.930000	18.280000	175.000000	0.000000	162.000000	54.000000	0.000000	0.000000
0.040000	18.930000	18.280000	208.000000	0.000000	161.000000	55.000000	0.000000	0.000000
0.050000	18.980000	17.490000	226.000000	0.000000	163.000000	55.000000	5.000000	-79.000000
0.060000	18.980000	16.550000	247.000000	0.000000	163.000000	54.000000	0.000000	-94.000000
0.070000	19.060000	15.580000	265.000000	0.000000	164.000000	53.000000	8.000000	-97.000000
0.080000	19.230000	14.560000	269.000000	0.000000	166.000000	51.000000	17.000000	-102.000000
0.090000	19.310000	13.560000	269.000000	0.000000	167.000000	50.000000	8.000000	-100.000000
0.100000	19.310000	12.760000	277.000000	0.000000	167.000000	49.000000	0.000000	-80.000000
0.110000	19.430000	12.090000	277.000000	0.000000	169.000000	48.000000	12.000000	-67.000000
0.120000	19.500000	11.680000	280.000000	0.000000	169.000000	48.000000	7.000000	-41.000000
0.130000	19.500000	11.430000	214.000000	0.000000	169.000000	47.000000	0.000000	-25.000000
0.140000	19.500000	11.300000	1.000000	1.000000	170.000000	48.000000	0.000000	0.000000
0.150000	19.500000	11.300000	0.000000	0.000000	170.000000	48.000000	0.000000	0.000000
0.160000	19.420000	11.520000	0.000000	0.000000	170.000000	49.000000	-8.000000	22.000000
0.170000	19.260000	11.900000	0.000000	0.000000	170.000000	49.000000	-16.000000	38.000000
0.180000	19.310000	12.310000	0.000000	0.000000	170.000000	48.000000	5.000000	41.000000
0.190000	19.410000	12.640000	0.000000	0.000000	169.000000	46.000000	10.000000	33.000000
0.200000	19.600000	12.930000	0.000000	0.000000	170.000000	46.000000	19.000000	29.000000
0.210000	19.950000	13.020000	0.000000	0.000000	169.000000	44.000000	35.000000	9.000000
0.220000	20.400000	13.100000	0.000000	0.000000	169.000000	44.000000	45.000000	8.000000
0.230000	20.960000	13.100000	0.000000	0.000000	169.000000	41.000000	56.000000	0.000000
0.240000	21.530000	13.100000	0.000000	0.000000	170.000000	41.000000	57.000000	0.000000
0.250000	22.050000	12.970000	0.000000	0.000000	169.000000	39.000000	52.000000	-13.000000
0.260000	22.540000	12.850000	0.000000	0.000000	169.000000	39.000000	49.000000	-12.000000
0.270000	22.840000	12.740000	0.000000	0.000000	169.000000	39.000000	30.000000	-11.000000
0.280000	22.960000	12.630000	0.000000	0.000000	169.000000	39.000000	12.000000	-11.000000
0.290000	22.960000	12.530000	0.000000	0.000000	170.000000	39.000000	0.000000	-10.000000
0.300000	22.770000	12.480000	0.000000	0.000000	170.000000	39.000000	-19.000000	-5.000000
0.310000	22.540000	12.480000	0.000000	0.000000	170.000000	39.000000	-23.000000	0.000000
0.320000	22.280000	12.430000	0.000000	0.000000	170.000000	39.000000	-26.000000	-5.000000
0.330000	21.960000	12.430000	0.000000	0.000000	171.000000	39.000000	-32.000000	0.000000
0.340000	21.660000	12.430000	0.000000	0.000000	171.000000	39.000000	-30.000000	0.000000
0.350000	21.450000	12.430000	0.000000	0.000000	171.000000	39.000000	-21.000000	0.000000
0.360000	21.350000	12.570000	0.000000	0.000000	171.000000	39.000000	-10.000000	14.000000
0.370000	21.350000	12.570000	0.000000	0.000000	171.000000	39.000000	0.000000	0.000000
0.380000	21.350000	12.570000	0.000000	0.000000	171.000000	39.000000	0.000000	0.000000
0.390000	21.730000	12.910000	0.000000	0.000000	171.000000	40.000000	38.000000	34.000000
0.400000	21.910000	12.990000	0.000000	0.000000	171.000000	40.000000	18.000000	8.000000
0.410000	22.080000	12.990000	0.000000	0.000000	171.000000	40.000000	17.000000	0.000000
0.420000	22.230000	13.060000	0.000000	0.000000	171.000000	40.000000	15.000000	7.000000
0.430000	22.380000	13.060000	0.000000	0.000000	171.000000	40.000000	15.000000	0.000000
0.440000	22.470000	13.110000	0.000000	0.000000	170.000000	41.000000	9.000000	5.000000
0.450000	22.530000	13.110000	0.000000	0.000000	170.000000	41.000000	6.000000	0.000000
0.460000	22.530000	13.200000	0.000000	0.000000	170.000000	41.000000	0.000000	9.000000
0.470000	22.530000	13.200000	0.000000	0.000000	170.000000	41.000000	0.000000	0.000000
0.480000	22.410000	13.260000	0.000000	0.000000	170.000000	41.000000	-12.000000	6.000000
0.490000	22.240000	13.260000	0.000000	0.000000	170.000000	41.000000	-17.000000	0.000000
0.500000	22.080000	13.260000	0.000000	0.000000	170.000000	41.000000	-16.000000	0.000000
0.510000	21.890000	13.260000	0.000000	0.000000	170.000000	41.000000	-19.000000	0.000000
0.520000	21.680000	13.180000	0.000000	0.000000	170.000000	41.000000	-21.000000	-8.000000
0.530000	21.530000	13.180000	0.000000	0.000000	170.000000	41.000000	-15.000000	0.000000
0.540000	21.380000	13.180000	0.000000	0.000000	170.000000	41.000000	-15.000000	0.000000
0.550000	21.230000	13.180000	0.000000	0.000000	170.000000	41.000000	-15.000000	0.000000
0.560000	21.090000	13.180000	0.000000	0.000000	170.000000	41.000000	-14.000000	0.000000
0.570000	20.960000	13.180000	0.000000	0.000000	170.000000	41.000000	-13.000000	0.000000
0.580000	20.830000	13.230000	0.000000	0.000000	170.000000	41.000000	-13.000000	5.000000
0.590000	20.690000	13.280000	0.000000	0.000000	170.000000	41.000000	-14.000000	5.000000
0.600000	20.590000	13.280000	0.000000	0.000000	170.000000	41.000000	-10.000000	0.000000
0.610000	20.540000	13.280000	0.000000	0.000000	170.000000	41.000000	-5.000000	0.000000
0.620000	20.540000	13.280000	0.000000	0.000000	170.000000	41.000000	0.000000	0.000000
0.630000	20.640000	13.400000	0.000000	0.000000	170.000000	41.000000	10.000000	12.000000
0.640000	20.760000	13.540000	0.000000	0.000000	170.000000	41.000000	12.000000	14.000000
0.650000	20.910000	13.700000	0.000000	0.000000	170.000000	41.000000	15.000000	16.000000
0.660000	21.100000	13.850000	0.000000	0.000000	170.000000	41.000000	19.000000	15.000000
0.670000	21.300000	13.980000	0.000000	0.000000	170.000000	41.000000	20.000000	13.000000
0.680000	21.530000	14.150000	0.000000	0.000000	170.000000	41.000000	23.000000	17.000000
0.690000	21.810000	14.350000	0.000000	0.000000	170.000000	41.000000	28.000000	20.000000
0.700000	22.130000	14.570000	0.000000	0.000000	170.000000	41.000000	32.000000	22.000000
0.710000	22.460000	14.790000	0.000000	0.000000	170.000000	42.000000	33.000000	22.000000
0.720000	22.790000	14.980000	0.000000	0.000000	170.000000	42.000000	33.000000	19.000000
0.730000	23.030000	15.200000	0.000000	0.000000	170.000000	42.000000	24.000000	22.000000
0.740000	23.030000	15.200000	55.000000	1.000000	169.000000	42.000000	0.000000	0.000000
0.750000	23.190000	15.570000	91.000000	0.000000	169.000000	42.000000	16.000000	37.000000
0.760000	23.020000	15.680000	112.000000	0.000000	168.000000	43.000000	-17.000000	11.000000
0.770000	22.820000	15.680000	122.000000	0.000000	167.000000	43.000000	-20.000000	0.000000
0.780000	22.450000	15.680000	149.000000	0.000000	167.000000	43.000000	-37.000000	0.000000
0.790000	22.040000	15.540000	163.000000	0.000000	167.000000	44.000000	-41.000000	-14.000000
0.800000	21.600000	15.360000	173.000000	0.000000	168.000000	44.000000	-44.000000	-18.000000
0.810000	21.220000	15.150000	190.000000	0.000000	168.000000	44.000000	-38.000000	-21.000000
0.820000	20.990000	14.940000	200.000000	0.000000	168.000000	44.000000	-23.000000	-21.000000
0.830000	20.870000	14.720000	203.000000	0.000000	169.000000	44.000000	-12.000000	-22.000000
0.840000	20.870000	14.510000	215.000000	0.000000	169.000000	45.000000	0.000000	-21.000000
0.850000	21.070000	14.280000	222.000000	0.000000	169.000000	45.000000	20.000000	-23.000000
0.860000	21.390000	14.070000	209.000000	0.000000	170.000000	46.000000	32.000000	-21.000000
0.870000	21.930000	13.820000	209.000000	0.000000	169.000000	46.000000	54.000000	-25.000000
0.880000	22.480000	13.530000	206.000000	0.000000	169.000000	46.000000	55.000000	-29.000000
0.890000	23.000000	13.220000	202.000000	0.000000	169.000000	47.000000	52.000000	-31.000000
0.900000	23.300000	12.890000	184.000000	0.000000	168.000000	47.000000	30.000000	-33.000000
0.910000	23.470000	12.580000	132.000000	0.000000	167.000000	48.000000	17.000000	-31.000000
0.920000	23.470000	12.270000	137.000000	0.000000	167.000000	49.000000	0.000000	-31.000000
0.930000	23.150000	11.980000	141.000000	0.000000	166.000000	49.000000	-32.000000	-29.000000
0.940000	22.650000	11.780000	168.000000	0.000000	165.000000	50.000000	-50.000000	-20.000000
0.950000	22.070000	11.630000	212.000000	0.000000	165.000000	50.000000	-58.000000	-15.000000
0.960000	21.440000	11.700000	228.000000	0.000000	165.000000	50.000000	-63.000000	7.000000
0.970000	20.780000	11.890000	235.000000	0.000000	167.000000	50.000000	-66.000000	19.000000
0.980000	20.240000	12.150000	245.000000	0.000000	167.000000	50.000000	-54.000000	26.000000
0.990000	20.000000	12.510000	228.000000	0.000000	167.000000	50.000000	-24.000000	36.000000
1.000000	20.000000	12.840000	110.000000	0.000000	168.000000	50.000000	0.000000	33.000000
1.010000	20.000000	12.840000	0.000000	1.000000	168.000000	49.000000	0.000000	0.000000
1.020000	20.850000	13.480000	0.000000	0.000000	168.000000	49.000000	85.000000	64.000000
1.030000	21.620000	13.790000	0.000000	0.000000	169.000000	48.000000	77.000000	31.000000
1.040000	22.250000	14.050000	0.000000	0.000000	169.000000	48.000000	63.000000	26.000000
1.050000	22.690000	14.250000	0.000000	0.000000	169.000000	47.000000	44.000000	20.000000
1.060000	23.000000	14.390000	0.000000	0.000000	168.000000	46.000000	31.000000	14.000000
1.070000	23.360000	14.450000	0.000000	0.000000	169.000000	45.000000	36.000000	6.000000
1.080000	23.540000	14.450000	0.000000	0.000000	169.000000	45.000000	18.000000	0.000000
1.090000	23.610000	14.300000	0.000000	0.000000	168.000000	44.000000	7.000000	-15.000000
1.100000	23.610000	14.150000	0.000000	0.000000	168.000000	43.000000	0.000000	-15.000000
1.110000	23.610000	14.000000	0.000000	0.000000	170.000000	43.000000	0.000000	-15.000000
1.120000	23.610000	13.900000	0.000000	0.000000	170.000000	42.000000	0.000000	-10.000000
1.130000	23.510000	13.800000	0.000000	0.000000	170.000000	42.000000	-10.000000	-10.000000
1.140000	23.430000	13.730000	0.000000	0.000000	170.000000	41.000000	-8.000000	-7.000000
1.150000	23.380000	13.680000	0.000000	0.000000	170.000000	41.000000	-5.000000	-5.000000
1.160000	23.380000	13.630000	0.000000	0.000000	170.000000	41.000000	0.000000	-5.000000
1.170000	23.320000	13.630000	0.000000	0.000000	171.000000	40.000000	-6.000000	0.000000
1.180000	23.320000	13.630000	0.000000	0.000000	171.000000	40.000000	0.000000	0.000000
1.190000	23.320000	13.580000	0.000000	0.000000	170.000000	41.000000	0.000000	-5.000000
1.200000	23.260000	13.580000	0.000000	0.000000	170.000000	41.000000	-6.000000	0.000000
1.210000	23.320000	13.580000	0.000000	0.000000	170.000000	41.000000	6.000000	0.000000
1.220000	23.410000	13.580000	0.000000	0.000000	170.000000	42.000000	9.000000	0.000000
1.230000	23.550000	13.580000	0.000000	0.000000	170.000000	42.000000	14.000000	0.000000
1.240000	23.720000	13.580000	0.000000	0.000000	170.000000	42.000000	17.000000	0.000000
1.250000	23.920000	13.490000	0.000000	0.000000	170.000000	42.000000	20.000000	-9.000000
1.260000	24.160000	13.490000	0.000000	0.000000	170.000000	43.000000	24.000000	0.000000
1.270000	24.390000	13.390000	0.000000	0.000000	171.000000	43.000000	23.000000	-10.000000
1.280000	24.580000	13.390000	0.000000	0.000000	171.000000	43.000000	19.000000	0.000000
1.290000	24.670000	13.290000	0.000000	0.000000	171.000000	43.000000	9.000000	-10.000000
1.300000	24.670000	13.210000	0.000000	0.000000	171.000000	43.000000	0.000000	-8.000000
1.310000	24.670000	13.160000	0.000000	0.000000	171.000000	43.000000	0.000000	-5.000000
1.320000	24.610000	13.070000	0.000000	0.000000	172.000000	43.000000	-6.000000	-9.000000
1.330000	24.510000	12.970000	0.000000	0.000000	172.000000	43.000000	-10.000000	-10.000000
1.340000	24.380000	12.860000	0.000000	0.000000	172.000000	43.000000	-13.000000	-11.000000
1.350000	24.240000	12.780000	0.000000	0.000000	171.000000	44.000000	-14.000000	-8.000000
1.360000	24.110000	12.710000	0.000000	0.000000	171.000000	44.000000	-13.000000	-7.000000
1.370000	24.000000	12.650000	0.000000	0.000000	171.000000	44.000000	-11.000000	-6.000000
1.380000	23.900000	12.650000	0.000000	0.000000	171.000000	45.000000	-10.000000	0.000000
1.390000	23.820000	12.650000	0.000000	0.000000	171.000000	45.000000	-8.000000	0.000000
1.400000	23.820000	12.650000	0.000000	0.000000	171.000000	45.000000	0.000000	0.000000
1.410000	23.820000	12.750000	0.000000	0.000000	171.000000	45.000000	0.000000	10.000000
1.420000	23.900000	12.880000	0.000000	0.000000	171.000000	45.000000	8.000000	13.000000
1.430000	23.980000	12.880000	0.000000	0.000000	171.000000	45.000000	8.000000	0.000000
1.440000	24.070000	12.960000	0.000000	0.000000	171.000000	45.000000	9.000000	8.000000
1.450000	24.140000	12.960000	0.000000	0.000000	171.000000	46.000000	7.000000	0.000000
1.460000	24.200000	13.050000	0.000000	0.000000	171.000000	46.000000	6.000000	9.000000
1.470000	24.200000	13.100000	0.000000	0.000000	171.000000	46.000000	0.000000	5.000000
1.480000	24.260000	13.100000	0.000000	0.000000	171.000000	46.000000	6.000000	0.000000
1.490000	24.310000	13.160000	0.000000	0.000000	171.000000	45.000000	5.000000	6.000000
1.500000	24.370000	13.160000	0.000000	0.000000	171.000000	45.000000	6.000000	0.000000
1.510000	24.420000	13.160000	0.000000	0.000000	171.000000	45.000000	5.000000	0.000000
1.520000	24.470000	13.160000	0.000000	0.000000	171.000000	45.000000	5.000000	0.000000
1.530000	24.470000	13.160000	0.000000	0.000000	171.000000	45.000000	0.000000	0.000000
1.540000	24.470000	13.110000	0.000000	0.000000	171.000000	45.000000	0.000000	-5.000000
1.550000	24.390000	13.110000	0.000000	0.000000	171.000000	45.000000	-8.000000	0.000000
1.560000	24.300000	13.110000	0.000000	0.000000	171.000000	45.000000	-9.000000	0.000000
1.570000	24.230000	13.060000	0.000000	0.000000	171.000000	45.000000	-7.000000	-5.000000
1.580000	24.180000	13.060000	0.000000	0.000000	171.000000	45.000000	-5.000000	0.000000
1.590000	24.120000	13.060000	0.000000	0.000000	171.000000	46.000000	-6.000000	0.000000
1.600000	24.070000	13.060000	0.000000	0.000000	171.000000	46.000000	-5.000000	0.000000
1.610000	24.070000	13.160000	0.000000	0.000000	171.000000	46.000000	0.000000	10.000000
1.620000	24.070000	13.290000	0.000000	0.000000	171.000000	46.000000	0.000000	13.000000
1.630000	24.070000	13.420000	0.000000	0.000000	171.000000	45.000000	0.000000	13.000000
1.640000	24.070000	13.580000	0.000000	0.000000	171.000000	45.000000	0.000000	16.000000
1.650000	24.070000	13.580000	0.000000	0.000000	171.000000	45.000000	0.000000	0.000000
1.660000	24.140000	14.060000	0.000000	0.000000	170.000000	45.000000	7.000000	48.000000
1.670000	24.140000	14.350000	0.000000	0.000000	170.000000	44.000000	0.000000	29.000000
1.680000	24.210000	14.640000	0.000000	0.000000	170.000000	44.000000	7.000000	29.000000
1.690000	24.210000	15.020000	0.000000	0.000000	170.000000	44.000000	0.000000	38.000000
1.700000	24.320000	15.340000	0.000000	0.000000	170.000000	44.000000	11.000000	32.000000
1.710000	24.420000	15.630000	0.000000	0.000000	170.000000	44.000000	10.000000	29.000000
1.720000	24.420000	15.630000	47.000000	1.000000	170.000000	44.000000	0.000000	0.000000
1.730000	24.500000	15.350000	48.000000	0.000000	169.000000	44.000000	8.000000	-28.000000
1.740000	24.500000	15.150000	51.000000	0.000000	169.000000	44.000000	0.000000	-20.000000
1.750000	24.500000	14.600000	71.000000	0.000000	169.000000	44.000000	0.000000	-55.000000
1.760000	24.500000	14.040000	98.000000	0.000000	169.000000	45.000000	0.000000	-56.000000
1.770000	24.550000	13.440000	103.000000	0.000000	168.000000	46.000000	5.000000	-60.000000
1.780000	24.620000	12.850000	109.000000	0.000000	168.000000	47.000000	7.000000	-59.000000
1.790000	24.710000	12.400000	91.000000	0.000000	169.000000	48.000000	9.000000	-45.000000
1.800000	24.830000	12.040000	95.000000	0.000000	169.000000	48.000000	12.000000	-36.000000
1.810000	24.890000	11.980000	105.000000	0.000000	168.000000	49.000000	6.000000	-6.000000
1.820000	24.890000	12.030000	141.000000	0.000000	168.000000	50.000000	0.000000	5.000000
1.830000	24.890000	12.160000	149.000000	0.000000	168.000000	50.000000	0.000000	13.000000
1.840000	24.890000	12.540000	184.000000	0.000000	168.000000	50.000000	0.000000	38.000000
1.850000	24.890000	13.040000	190.000000	0.000000	168.000000	50.000000	0.000000	50.000000
1.860000	24.780000	13.610000	214.000000	0.000000	168.000000	50.000000	-11.000000	57.000000
1.870000	24.720000	14.130000	265.000000	0.000000	168.000000	50.000000	-6.000000	52.000000
1.880000	24.660000	14.640000	270.000000	0.000000	168.000000	50.000000	-6.000000	51.000000
1.890000	24.850000	14.970000	287.000000	0.000000	168.000000	50.000000	19.000000	33.000000
1.900000	25.090000	15.200000	274.000000	0.000000	168.000000	50.000000	24.000000	23.000000
1.910000	25.390000	15.280000	287.000000	0.000000	168.000000	49.000000	30.000000	8.000000
1.920000	25.840000	15.340000	230.000000	0.000000	168.000000	49.000000	45.000000	6.000000
1.930000	26.390000	15.390000	93.000000	0.000000	169.000000	50.000000	55.000000	5.000000
1.940000	26.390000	15.390000	0.000000	1.000000	170.000000	49.000000	0.000000	0.000000
1.950000	27.230000	15.390000	0.000000	0.000000	170.000000	49.000000	84.000000	0.000000
1.960000	27.610000	15.390000	0.000000	0.000000	170.000000	49.000000	38.000000	0.000000
1.970000	27.890000	15.470000	0.000000	0.000000	170.000000	48.000000	28.000000	8.000000
1.980000	28.180000	15.560000	0.000000	0.000000	170.000000	48.000000	29.000000	9.000000
1.990000	28.410000	15.640000	0.000000	0.000000	170.000000	48.000000	23.000000	8.000000
2.000000	28.600000	15.720000	0.000000	0.000000	170.000000	47.000000	19.000000	8.000000
2.010000	28.760000	15.720000	0.000000	0.000000	169.000000	46.000000	16.000000	0.000000
2.020000	28.870000	15.650000	0.000000	0.000000	169.000000	46.000000	11.000000	-7.000000
2.030000	28.940000	15.650000	0.000000	0.000000	168.000000	46.000000	7.000000	0.000000
2.040000	28.940000	15.650000	0.000000	0.000000	169.000000	45.000000	0.000000	0.000000
2.050000	28.990000	15.650000	0.000000	0.000000	169.000000	45.000000	5.000000	0.000000
2.060000	28.990000	15.650000	0.000000	0.000000	168.000000	45.000000	0.000000	0.000000
2.070000	28.910000	15.590000	0.000000	0.000000	168.000000	45.000000	-8.000000	-6.000000
2.080000	28.750000	15.590000	0.000000	0.000000	168.000000	45.000000	-16.000000	0.000000
2.090000	28.530000	15.460000	0.000000	0.000000	168.000000	45.000000	-22.000000	-13.000000
2.100000	28.270000	15.460000	0.000000	0.000000	168.000000	45.000000	-26.000000	0.000000
2.110000	28.120000	15.400000	0.000000	0.000000	168.000000	45.000000	-15.000000	-6.000000
2.120000	27.980000	15.400000	0.000000	0.000000	168.000000	45.000000	-14.000000	0.000000
2.130000	27.870000	15.400000	0.000000	0.000000	168.000000	45.000000	-11.000000	0.000000
2.140000	27.790000	15.400000	0.000000	0.000000	168.000000	45.000000	-8.000000	0.000000
2.150000	27.720000	15.400000	0.000000	0.000000	168.000000	45.000000	-7.000000	0.000000
2.160000	27.720000	15.400000	0.000000	0.000000	168.000000	45.000000	0.000000	0.000000
2.170000	27.600000	15.400000	0.000000	0.000000	168.000000	45.000000	-12.000000	0.000000
2.180000	27.510000	15.460000	0.000000	0.000000	168.000000	45.000000	-9.000000	6.000000
2.190000	27.430000	15.520000	0.000000	0.000000	168.000000	45.000000	-8.000000	6.000000
2.200000	27.430000	15.520000	0.000000	0.000000	168.000000	45.000000	0.000000	0.000000
2.210000	27.430000	15.620000	0.000000	0.000000	168.000000	45.000000	0.000000	10.000000
2.220000	27.560000	15.700000	0.000000	0.000000	168.000000	45.000000	13.000000	8.000000
2.230000	27.710000	15.700000	0.000000	0.000000	169.000000	45.000000	15.000000	0.000000
2.240000	27.710000	15.700000	108.000000	1.000000	169.000000	45.000000	0.000000	0.000000
2.250000	27.980000	15.900000	115.000000	0.000000	170.000000	46.000000	27.000000	20.000000
