t	x	y	pressure	penup	azimuth	inclination	v_x	v_y
0.000000	54.750000	18.320000	186.000000	1.000000	124.000000	60.000000	0.000000	0.000000
0.010000	54.770000	18.610000	254.000000	0.000000	123.000000	59.000000	2.000000	29.000000
0.020000	54.670000	18.610000	361.000000	0.000000	124.000000	58.000000	-10.000000	0.000000
0.030000	54.670000	18.610000	448.000000	0.000000	124.000000	58.000000	0.000000	0.000000
0.040000	54.610000	18.610000	491.000000	0.000000	123.000000	58.000000	-6.000000	0.000000
0.050000	54.610000	18.560000	564.000000	0.000000	124.000000	57.000000	0.000000	-5.000000
0.060000	54.610000	18.160000	602.000000	0.000000	124.000000	57.000000	0.000000	-40.000000
0.070000	54.710000	17.530000	643.000000	0.000000	124.000000	57.000000	10.000000	-63.000000
0.080000	54.780000	16.780000	697.000000	0.000000	124.000000	57.000000	7.000000	-75.000000
0.090000	54.870000	15.850000	742.000000	0.000000	124.000000	58.000000	9.000000	-93.000000
0.100000	54.960000	14.810000	780.000000	0.000000	124.000000	58.000000	9.000000	-104.000000
0.110000	55.060000	13.760000	799.000000	0.000000	123.000000	59.000000	10.000000	-105.000000
0.120000	55.140000	12.870000	815.000000	0.000000	119.000000	60.000000	8.000000	-89.000000
0.130000	55.200000	12.080000	829.000000	0.000000	118.000000	60.000000	6.000000	-79.000000
0.140000	55.300000	11.450000	832.000000	0.000000	114.000000	61.000000	10.000000	-63.000000
0.150000	55.430000	11.070000	817.000000	0.000000	113.000000	61.000000	13.000000	-38.000000
0.160000	55.430000	10.860000	824.000000	0.000000	112.000000	62.000000	0.000000	-21.000000
0.170000	55.510000	10.790000	783.000000	0.000000	110.000000	63.000000	8.000000	-7.000000
0.180000	55.510000	10.790000	717.000000	0.000000	108.000000	63.000000	0.000000	0.000000
0.190000	55.510000	10.790000	530.000000	0.000000	106.000000	63.000000	0.000000	0.000000
0.200000	55.440000	11.030000	161.000000	0.000000	106.000000	63.000000	-7.000000	24.000000
0.210000	55.440000	11.030000	0.000000	1.000000	106.000000	63.000000	0.000000	0.000000
0.220000	55.440000	11.690000	0.000000	0.000000	106.000000	63.000000	0.000000	66.000000
0.230000	55.530000	12.030000	0.000000	0.000000	106.000000	63.000000	9.000000	34.000000
0.240000	55.750000	12.350000	0.000000	0.000000	108.000000	63.000000	22.000000	32.000000
0.250000	56.090000	12.640000	0.000000	0.000000	108.000000	63.000000	34.000000	29.000000
0.260000	56.470000	12.920000	0.000000	0.000000	111.000000	64.000000	38.000000	28.000000
0.270000	57.030000	13.240000	0.000000	0.000000	111.000000	64.000000	56.000000	32.000000
0.280000	57.700000	13.580000	0.000000	0.000000	113.000000	63.000000	67.000000	34.000000
0.290000	58.280000	13.900000	0.000000	0.000000	115.000000	63.000000	58.000000	32.000000
0.300000	58.620000	14.180000	0.000000	0.000000	116.000000	63.000000	34.000000	28.000000
0.310000	58.800000	14.380000	0.000000	0.000000	118.000000	62.000000	18.000000	20.000000
0.320000	58.800000	14.380000	214.000000	1.000000	118.000000	62.000000	0.000000	0.000000
0.330000	58.800000	14.380000	320.000000	0.000000	120.000000	62.000000	0.000000	0.000000
0.340000	58.400000	14.700000	441.000000	0.000000	120.000000	62.000000	-40.000000	32.000000
0.350000	58.240000	14.830000	491.000000	0.000000	117.000000	61.000000	-16.000000	13.000000
0.360000	58.080000	15.000000	570.000000	0.000000	117.000000	61.000000	-16.000000	17.000000
0.370000	57.950000	15.130000	610.000000	0.000000	117.000000	61.000000	-13.000000	13.000000
0.380000	57.850000	15.240000	664.000000	0.000000	117.000000	61.000000	-10.000000	11.000000
0.390000	57.750000	15.310000	669.000000	0.000000	117.000000	61.000000	-10.000000	7.000000
0.400000	57.520000	15.310000	690.000000	0.000000	117.000000	61.000000	-23.000000	0.000000
0.410000	57.210000	15.310000	717.000000	0.000000	117.000000	61.000000	-31.000000	0.000000
0.420000	56.780000	15.130000	727.000000	0.000000	117.000000	61.000000	-43.000000	-18.000000
0.430000	56.380000	14.820000	755.000000	0.000000	117.000000	61.000000	-40.000000	-31.000000
0.440000	56.040000	14.440000	755.000000	0.000000	117.000000	61.000000	-34.000000	-38.000000
0.450000	55.890000	14.150000	755.000000	0.000000	115.000000	62.000000	-15.000000	-29.000000
0.460000	55.890000	13.910000	760.000000	0.000000	115.000000	62.000000	0.000000	-24.000000
0.470000	56.080000	13.680000	763.000000	0.000000	114.000000	62.000000	19.000000	-23.000000
0.480000	56.520000	13.440000	763.000000	0.000000	114.000000	62.000000	44.000000	-24.000000
0.490000	57.110000	13.220000	750.000000	0.000000	112.000000	62.000000	59.000000	-22.000000
0.500000	57.700000	13.010000	760.000000	0.000000	110.000000	63.000000	59.000000	-21.000000
0.510000	58.260000	12.730000	767.000000	0.000000	110.000000	63.000000	56.000000	-28.000000
0.520000	58.570000	12.400000	777.000000	0.000000	108.000000	63.000000	31.000000	-33.000000
0.530000	58.720000	12.020000	787.000000	0.000000	108.000000	63.000000	15.000000	-38.000000
0.540000	58.720000	11.600000	806.000000	0.000000	106.000000	63.000000	0.000000	-42.000000
0.550000	58.640000	11.110000	833.000000	0.000000	106.000000	63.000000	-8.000000	-49.000000
0.560000	58.400000	10.800000	863.000000	0.000000	106.000000	63.000000	-24.000000	-31.000000
0.570000	58.060000	10.660000	858.000000	0.000000	106.000000	63.000000	-34.000000	-14.000000
0.580000	57.710000	10.560000	870.000000	0.000000	106.000000	63.000000	-35.000000	-10.000000
0.590000	57.360000	10.560000	870.000000	0.000000	104.000000	63.000000	-35.000000	0.000000
0.600000	56.960000	10.640000	858.000000	0.000000	104.000000	63.000000	-40.000000	8.000000
0.610000	56.530000	10.840000	861.000000	0.000000	104.000000	63.000000	-43.000000	20.000000
0.620000	56.180000	11.080000	818.000000	0.000000	104.000000	63.000000	-35.000000	24.000000
0.630000	55.860000	11.340000	746.000000	0.000000	104.000000	63.000000	-32.000000	26.000000
0.640000	55.760000	11.690000	641.000000	0.000000	104.000000	63.000000	-10.000000	35.000000
0.650000	55.760000	12.020000	486.000000	0.000000	104.000000	63.000000	0.000000	33.000000
0.660000	55.980000	12.280000	182.000000	0.000000	104.000000	63.000000	22.000000	26.000000
0.670000	55.980000	12.280000	0.000000	1.000000	104.000000	63.000000	0.000000	0.000000
0.680000	56.750000	12.790000	0.000000	0.000000	104.000000	63.000000	77.000000	51.000000
0.690000	57.310000	13.060000	0.000000	0.000000	106.000000	63.000000	56.000000	27.000000
0.700000	57.870000	13.340000	0.000000	0.000000	106.000000	63.000000	56.000000	28.000000
0.710000	58.310000	13.540000	0.000000	0.000000	108.000000	63.000000	44.000000	20.000000
0.720000	58.680000	13.710000	0.000000	0.000000	109.000000	62.000000	37.000000	17.000000
0.730000	58.990000	13.840000	0.000000	0.000000	111.000000	61.000000	31.000000	13.000000
0.740000	59.230000	13.970000	0.000000	0.000000	112.000000	60.000000	24.000000	13.000000
0.750000	59.420000	14.090000	0.000000	0.000000	113.000000	60.000000	19.000000	12.000000
0.760000	59.420000	14.200000	0.000000	0.000000	114.000000	59.000000	0.000000	11.000000
0.770000	59.350000	14.310000	0.000000	0.000000	114.000000	59.000000	-7.000000	11.000000
0.780000	59.190000	14.450000	0.000000	0.000000	114.000000	59.000000	-16.000000	14.000000
0.790000	59.190000	14.450000	219.000000	1.000000	114.000000	59.000000	0.000000	0.000000
0.800000	58.910000	14.840000	282.000000	0.000000	114.000000	59.000000	-28.000000	39.000000
0.810000	58.790000	15.020000	396.000000	0.000000	115.000000	60.000000	-12.000000	18.000000
0.820000	58.790000	15.160000	477.000000	0.000000	114.000000	61.000000	0.000000	14.000000
0.830000	58.790000	15.210000	520.000000	0.000000	114.000000	61.000000	0.000000	5.000000
0.840000	58.910000	15.210000	556.000000	0.000000	115.000000	62.000000	12.000000	0.000000
0.850000	59.100000	15.210000	572.000000	0.000000	115.000000	62.000000	19.000000	0.000000
0.860000	59.300000	15.070000	592.000000	0.000000	115.000000	62.000000	20.000000	-14.000000
0.870000	59.510000	14.880000	586.000000	0.000000	114.000000	62.000000	21.000000	-19.000000
0.880000	59.720000	14.480000	599.000000	0.000000	114.000000	62.000000	21.000000	-40.000000
0.890000	59.950000	13.950000	611.000000	0.000000	114.000000	62.000000	23.000000	-53.000000
0.900000	60.080000	13.320000	616.000000	0.000000	112.000000	62.000000	13.000000	-63.000000
0.910000	60.140000	12.640000	624.000000	0.000000	112.000000	62.000000	6.000000	-68.000000
0.920000	60.190000	11.920000	641.000000	0.000000	110.000000	63.000000	5.000000	-72.000000
0.930000	60.240000	11.320000	636.000000	0.000000	108.000000	63.000000	5.000000	-60.000000
0.940000	60.240000	10.950000	656.000000	0.000000	108.000000	63.000000	0.000000	-37.000000
0.950000	60.240000	10.730000	707.000000	0.000000	106.000000	63.000000	0.000000	-22.000000
0.960000	60.190000	10.730000	760.000000	0.000000	106.000000	63.000000	-5.000000	0.000000
0.970000	60.190000	10.790000	812.000000	0.000000	104.000000	63.000000	0.000000	6.000000
0.980000	60.090000	10.890000	832.000000	0.000000	104.000000	63.000000	-10.000000	10.000000
0.990000	59.980000	11.270000	833.000000	0.000000	102.000000	63.000000	-11.000000	38.000000
1.000000	59.850000	11.890000	834.000000	0.000000	102.000000	63.000000	-13.000000	62.000000
1.010000	59.740000	12.680000	836.000000	0.000000	102.000000	63.000000	-11.000000	79.000000
1.020000	59.790000	13.510000	834.000000	0.000000	102.000000	63.000000	5.000000	83.000000
1.030000	59.930000	14.340000	836.000000	0.000000	102.000000	63.000000	14.000000	83.000000
1.040000	60.110000	14.880000	836.000000	0.000000	104.000000	63.000000	18.000000	54.000000
1.050000	60.330000	15.230000	830.000000	0.000000	104.000000	62.000000	22.000000	35.000000
1.060000	60.620000	15.350000	828.000000	0.000000	105.000000	62.000000	29.000000	12.000000
1.070000	60.970000	15.450000	819.000000	0.000000	107.000000	62.000000	35.000000	10.000000
1.080000	61.330000	15.310000	826.000000	0.000000	109.000000	62.000000	36.000000	-14.000000
1.090000	61.600000	15.030000	809.000000	0.000000	111.000000	61.000000	27.000000	-28.000000
1.100000	61.810000	14.650000	790.000000	0.000000	111.000000	61.000000	21.000000	-38.000000
1.110000	61.930000	14.350000	767.000000	0.000000	111.000000	61.000000	12.000000	-30.000000
1.120000	62.050000	14.100000	696.000000	0.000000	111.000000	61.000000	12.000000	-25.000000
1.130000	62.050000	13.870000	617.000000	0.000000	111.000000	61.000000	0.000000	-23.000000
1.140000	62.050000	13.760000	443.000000	0.000000	109.000000	62.000000	0.000000	-11.000000
1.150000	62.050000	13.760000	0.000000	1.000000	107.000000	62.000000	0.000000	0.000000
1.160000	61.960000	13.690000	0.000000	0.000000	107.000000	62.000000	-9.000000	-7.000000
1.170000	61.810000	13.810000	0.000000	0.000000	107.000000	62.000000	-15.000000	12.000000
1.180000	61.810000	14.040000	0.000000	0.000000	107.000000	61.000000	0.000000	23.000000
1.190000	61.880000	14.290000	0.000000	0.000000	107.000000	61.000000	7.000000	25.000000
1.200000	62.150000	14.580000	0.000000	0.000000	107.000000	61.000000	27.000000	29.000000
1.210000	62.540000	14.890000	0.000000	0.000000	108.000000	61.000000	39.000000	31.000000
1.220000	62.940000	15.170000	0.000000	0.000000	112.000000	60.000000	40.000000	28.000000
1.230000	63.310000	15.450000	0.000000	0.000000	113.000000	59.000000	37.000000	28.000000
1.240000	63.510000	15.680000	0.000000	0.000000	114.000000	59.000000	20.000000	23.000000
1.250000	63.510000	15.680000	305.000000	1.000000	116.000000	58.000000	0.000000	0.000000
1.260000	63.450000	15.970000	394.000000	0.000000	117.000000	58.000000	-6.000000	29.000000
1.270000	63.320000	16.130000	514.000000	0.000000	117.000000	58.000000	-13.000000	16.000000
1.280000	63.230000	16.130000	578.000000	0.000000	120.000000	58.000000	-9.000000	0.000000
1.290000	63.170000	16.130000	586.000000	0.000000	118.000000	59.000000	-6.000000	0.000000
1.300000	63.230000	15.990000	609.000000	0.000000	118.000000	59.000000	6.000000	-14.000000
1.310000	63.360000	15.620000	620.000000	0.000000	119.000000	60.000000	13.000000	-37.000000
1.320000	63.550000	15.080000	611.000000	0.000000	118.000000	60.000000	19.000000	-54.000000
1.330000	63.840000	14.550000	617.000000	0.000000	118.000000	60.000000	29.000000	-53.000000
1.340000	64.190000	13.990000	619.000000	0.000000	116.000000	60.000000	35.000000	-56.000000
1.350000	64.530000	13.420000	622.000000	0.000000	114.000000	61.000000	34.000000	-57.000000
1.360000	64.770000	12.840000	622.000000	0.000000	113.000000	61.000000	24.000000	-58.000000
1.370000	64.950000	12.360000	627.000000	0.000000	112.000000	62.000000	18.000000	-48.000000
1.380000	64.950000	11.940000	634.000000	0.000000	110.000000	63.000000	0.000000	-42.000000
1.390000	64.950000	11.810000	655.000000	0.000000	108.000000	63.000000	0.000000	-13.000000
1.400000	64.950000	11.810000	702.000000	0.000000	106.000000	63.000000	0.000000	0.000000
1.410000	64.850000	11.810000	727.000000	0.000000	106.000000	63.000000	-10.000000	0.000000
1.420000	64.690000	11.980000	730.000000	0.000000	106.000000	63.000000	-16.000000	17.000000
1.430000	64.470000	12.290000	748.000000	0.000000	106.000000	63.000000	-22.000000	31.000000
1.440000	64.180000	12.710000	754.000000	0.000000	106.000000	63.000000	-29.000000	42.000000
1.450000	63.890000	13.110000	760.000000	0.000000	106.000000	63.000000	-29.000000	40.000000
1.460000	63.520000	13.480000	758.000000	0.000000	106.000000	63.000000	-37.000000	37.000000
1.470000	63.080000	13.660000	753.000000	0.000000	106.000000	63.000000	-44.000000	18.000000
1.480000	62.750000	13.740000	753.000000	0.000000	106.000000	63.000000	-33.000000	8.000000
1.490000	62.430000	13.600000	751.000000	0.000000	106.000000	63.000000	-32.000000	-14.000000
1.500000	62.120000	13.410000	753.000000	0.000000	105.000000	62.000000	-31.000000	-19.000000
1.510000	61.940000	12.970000	750.000000	0.000000	105.000000	62.000000	-18.000000	-44.000000
1.520000	61.800000	12.370000	763.000000	0.000000	105.000000	62.000000	-14.000000	-60.000000
1.530000	61.860000	11.790000	758.000000	0.000000	105.000000	62.000000	6.000000	-58.000000
1.540000	62.040000	11.300000	757.000000	0.000000	105.000000	62.000000	18.000000	-49.000000
1.550000	62.460000	11.050000	751.000000	0.000000	104.000000	62.000000	42.000000	-25.000000
1.560000	62.980000	10.930000	754.000000	0.000000	104.000000	62.000000	52.000000	-12.000000
1.570000	63.570000	10.930000	754.000000	0.000000	104.000000	62.000000	59.000000	0.000000
1.580000	64.090000	11.200000	754.000000	0.000000	104.000000	62.000000	52.000000	27.000000
1.590000	64.510000	11.550000	754.000000	0.000000	104.000000	62.000000	42.000000	35.000000
1.600000	64.850000	12.100000	754.000000	0.000000	104.000000	62.000000	34.000000	55.000000
1.610000	64.990000	12.620000	760.000000	0.000000	104.000000	62.000000	14.000000	52.000000
1.620000	65.060000	13.070000	765.000000	0.000000	104.000000	62.000000	7.000000	45.000000
1.630000	65.060000	13.410000	800.000000	0.000000	104.000000	63.000000	0.000000	34.000000
1.640000	65.060000	13.540000	840.000000	0.000000	104.000000	63.000000	0.000000	13.000000
1.650000	65.060000	13.540000	861.000000	0.000000	104.000000	63.000000	0.000000	0.000000
1.660000	65.060000	13.460000	866.000000	0.000000	106.000000	63.000000	0.000000	-8.000000
1.670000	65.060000	13.330000	869.000000	0.000000	106.000000	63.000000	0.000000	-13.000000
1.680000	65.060000	13.000000	864.000000	0.000000	106.000000	63.000000	0.000000	-33.000000
1.690000	65.150000	12.570000	864.000000	0.000000	106.000000	63.000000	9.000000	-43.000000
1.700000	65.490000	12.250000	863.000000	0.000000	107.000000	64.000000	34.000000	-32.000000
1.710000	65.990000	12.050000	848.000000	0.000000	107.000000	64.000000	50.000000	-20.000000
1.720000	66.570000	11.930000	824.000000	0.000000	107.000000	64.000000	58.000000	-12.000000
1.730000	67.120000	11.880000	759.000000	0.000000	108.000000	65.000000	55.000000	-5.000000
1.740000	67.470000	11.880000	630.000000	0.000000	108.000000	65.000000	35.000000	0.000000
1.750000	67.710000	11.880000	244.000000	0.000000	108.000000	65.000000	24.000000	0.000000
1.760000	67.710000	11.880000	0.000000	1.000000	108.000000	66.000000	0.000000	0.000000
1.770000	67.310000	11.880000	0.000000	0.000000	108.000000	66.000000	-40.000000	0.000000
1.780000	66.750000	11.880000	0.000000	0.000000	109.000000	67.000000	-56.000000	0.000000
1.790000	66.160000	11.950000	0.000000	0.000000	109.000000	67.000000	-59.000000	7.000000
1.800000	65.490000	12.030000	0.000000	0.000000	111.000000	67.000000	-67.000000	8.000000
1.810000	64.760000	12.170000	0.000000	0.000000	114.000000	66.000000	-73.000000	14.000000
1.820000	64.150000	12.390000	0.000000	0.000000	116.000000	66.000000	-61.000000	22.000000
1.830000	62.910000	12.660000	0.000000	0.000000	119.000000	64.000000	-124.000000	27.000000
1.840000	61.260000	12.940000	0.000000	0.000000	121.000000	63.000000	-165.000000	28.000000
1.850000	59.950000	13.190000	0.000000	0.000000	122.000000	60.000000	-131.000000	25.000000
1.860000	58.630000	13.370000	0.000000	0.000000	124.000000	58.000000	-132.000000	18.000000
1.870000	57.240000	13.510000	0.000000	0.000000	124.000000	57.000000	-139.000000	14.000000
1.880000	55.810000	13.670000	0.000000	0.000000	126.000000	56.000000	-143.000000	16.000000
1.890000	54.570000	13.900000	0.000000	0.000000	127.000000	55.000000	-124.000000	23.000000
1.900000	53.370000	14.180000	0.000000	0.000000	129.000000	55.000000	-120.000000	28.000000
1.910000	52.490000	14.560000	0.000000	0.000000	130.000000	54.000000	-88.000000	38.000000
1.920000	51.810000	15.110000	0.000000	0.000000	130.000000	54.000000	-68.000000	55.000000
1.930000	51.700000	15.770000	0.000000	0.000000	131.000000	54.000000	-11.000000	66.000000
1.940000	52.180000	16.460000	0.000000	0.000000	133.000000	54.000000	48.000000	69.000000
1.950000	53.060000	17.070000	0.000000	0.000000	131.000000	55.000000	88.000000	61.000000
1.960000	53.060000	17.070000	175.000000	1.000000	131.000000	55.000000	0.000000	0.000000
1.970000	53.110000	17.900000	173.000000	0.000000	131.000000	55.000000	5.000000	83.000000
1.980000	53.250000	17.990000	228.000000	0.000000	130.000000	55.000000	14.000000	9.000000
1.990000	53.250000	17.990000	309.000000	0.000000	129.000000	56.000000	0.000000	0.000000
2.000000	53.340000	17.770000	404.000000	0.000000	128.000000	57.000000	9.000000	-22.000000
2.010000	53.390000	17.320000	491.000000	0.000000	127.000000	57.000000	5.000000	-45.000000
2.020000	53.580000	16.700000	591.000000	0.000000	127.000000	57.000000	19.000000	-62.000000
2.030000	53.830000	15.730000	645.000000	0.000000	126.000000	58.000000	25.000000	-97.000000
2.040000	54.160000	14.700000	676.000000	0.000000	127.000000	59.000000	33.000000	-103.000000
2.050000	54.460000	13.560000	697.000000	0.000000	125.000000	59.000000	30.000000	-114.000000
2.060000	54.710000	12.290000	716.000000	0.000000	124.000000	60.000000	25.000000	-127.000000
2.070000	54.880000	10.930000	728.000000	0.000000	122.000000	61.000000	17.000000	-136.000000
2.080000	55.000000	9.980000	748.000000	0.000000	120.000000	62.000000	12.000000	-95.000000
2.090000	55.110000	9.310000	751.000000	0.000000	118.000000	62.000000	11.000000	-67.000000
2.100000	55.220000	8.830000	768.000000	0.000000	117.000000	63.000000	11.000000	-48.000000
2.110000	55.280000	8.550000	777.000000	0.000000	116.000000	64.000000	6.000000	-28.000000
2.120000	55.280000	8.470000	805.000000	0.000000	116.000000	64.000000	0.000000	-8.000000
2.130000	55.280000	8.520000	815.000000	0.000000	116.000000	64.000000	0.000000	5.000000
2.140000	55.000000	8.720000	818.000000	0.000000	116.000000	64.000000	-28.000000	20.000000
2.150000	54.620000	9.050000	821.000000	0.000000	116.000000	64.000000	-38.000000	33.000000
2.160000	54.010000	9.470000	817.000000	0.000000	117.000000	63.000000	-61.000000	42.000000
2.170000	53.300000	9.880000	812.000000	0.000000	117.000000	63.000000	-71.000000	41.000000
2.180000	52.530000	10.240000	814.000000	0.000000	117.000000	63.000000	-77.000000	36.000000
2.190000	51.530000	10.510000	821.000000	0.000000	116.000000	64.000000	-100.000000	27.000000
2.200000	50.540000	10.680000	830.000000	0.000000	116.000000	64.000000	-99.000000	17.000000
2.210000	49.600000	10.680000	819.000000	0.000000	116.000000	64.000000	-94.000000	0.000000
