t	x	y	pressure	penup	azimuth	inclination	v_x	v_y
0.000000	20.950000	35.710000	179.000000	1.000000	130.000000	58.000000	0.000000	0.000000
0.010000	20.950000	36.000000	311.000000	0.000000	130.000000	58.000000	0.000000	29.000000
0.020000	20.950000	36.000000	455.000000	0.000000	130.000000	58.000000	0.000000	0.000000
0.030000	20.950000	36.060000	566.000000	0.000000	130.000000	58.000000	0.000000	6.000000
0.040000	20.950000	36.060000	630.000000	0.000000	130.000000	58.000000	0.000000	0.000000
0.050000	20.950000	36.060000	662.000000	0.000000	131.000000	58.000000	0.000000	0.000000
0.060000	20.890000	35.980000	699.000000	0.000000	131.000000	58.000000	-6.000000	-8.000000
0.070000	20.890000	35.700000	731.000000	0.000000	131.000000	58.000000	0.000000	-28.000000
0.080000	20.890000	35.270000	740.000000	0.000000	131.000000	58.000000	0.000000	-43.000000
0.090000	20.890000	34.740000	751.000000	0.000000	131.000000	58.000000	0.000000	-53.000000
0.100000	20.950000	34.030000	787.000000	0.000000	131.000000	58.000000	6.000000	-71.000000
0.110000	21.020000	33.210000	820.000000	0.000000	131.000000	58.000000	7.000000	-82.000000
0.120000	21.070000	32.320000	843.000000	0.000000	131.000000	58.000000	5.000000	-89.000000
0.130000	21.120000	31.490000	854.000000	0.000000	131.000000	58.000000	5.000000	-83.000000
0.140000	21.120000	30.770000	872.000000	0.000000	129.000000	59.000000	0.000000	-72.000000
0.150000	21.120000	30.100000	888.000000	0.000000	128.000000	58.000000	0.000000	-67.000000
0.160000	21.170000	29.540000	890.000000	0.000000	128.000000	58.000000	5.000000	-56.000000
0.170000	21.220000	29.240000	888.000000	0.000000	128.000000	58.000000	5.000000	-30.000000
0.180000	21.220000	29.110000	879.000000	0.000000	128.000000	58.000000	0.000000	-13.000000
0.190000	21.220000	29.110000	845.000000	0.000000	128.000000	58.000000	0.000000	0.000000
0.200000	21.220000	29.110000	748.000000	0.000000	128.000000	58.000000	0.000000	0.000000
0.210000	21.220000	29.210000	472.000000	0.000000	127.000000	57.000000	0.000000	10.000000
0.220000	21.220000	29.210000	0.000000	1.000000	127.000000	57.000000	0.000000	0.000000
0.230000	21.220000	29.720000	0.000000	0.000000	127.000000	57.000000	0.000000	51.000000
0.240000	21.470000	30.110000	0.000000	0.000000	127.000000	57.000000	25.000000	39.000000
0.250000	21.820000	30.550000	0.000000	0.000000	127.000000	57.000000	35.000000	44.000000
0.260000	22.240000	30.900000	0.000000	0.000000	127.000000	57.000000	42.000000	35.000000
0.270000	22.710000	31.220000	0.000000	0.000000	127.000000	57.000000	47.000000	32.000000
0.280000	23.280000	31.490000	0.000000	0.000000	127.000000	57.000000	57.000000	27.000000
0.290000	23.890000	31.710000	0.000000	0.000000	126.000000	57.000000	61.000000	22.000000
0.300000	24.470000	31.920000	0.000000	0.000000	128.000000	57.000000	58.000000	21.000000
0.310000	24.860000	32.120000	0.000000	0.000000	128.000000	57.000000	39.000000	20.000000
0.320000	25.140000	32.310000	0.000000	0.000000	128.000000	57.000000	28.000000	19.000000
0.330000	25.140000	32.480000	0.000000	0.000000	131.000000	57.000000	0.000000	17.000000
0.340000	25.140000	32.480000	173.000000	1.000000	131.000000	57.000000	0.000000	0.000000
0.350000	25.020000	32.800000	279.000000	0.000000	131.000000	57.000000	-12.000000	32.000000
0.360000	24.820000	32.950000	364.000000	0.000000	131.000000	58.000000	-20.000000	15.000000
0.370000	24.630000	33.070000	493.000000	0.000000	131.000000	58.000000	-19.000000	12.000000
0.380000	24.380000	33.170000	544.000000	0.000000	131.000000	58.000000	-25.000000	10.000000
0.390000	24.090000	33.170000	583.000000	0.000000	131.000000	58.000000	-29.000000	0.000000
0.400000	23.750000	33.170000	634.000000	0.000000	131.000000	58.000000	-34.000000	0.000000
0.410000	23.370000	33.080000	682.000000	0.000000	131.000000	58.000000	-38.000000	-9.000000
0.420000	22.950000	32.950000	707.000000	0.000000	131.000000	58.000000	-42.000000	-13.000000
0.430000	22.550000	32.800000	739.000000	0.000000	130.000000	58.000000	-40.000000	-15.000000
0.440000	22.410000	32.690000	740.000000	0.000000	130.000000	58.000000	-14.000000	-11.000000
0.450000	22.410000	32.630000	742.000000	0.000000	130.000000	58.000000	0.000000	-6.000000
0.460000	22.560000	32.560000	745.000000	0.000000	130.000000	58.000000	15.000000	-7.000000
0.470000	22.740000	32.370000	748.000000	0.000000	128.000000	57.000000	18.000000	-19.000000
0.480000	23.230000	32.220000	748.000000	0.000000	128.000000	57.000000	49.000000	-15.000000
0.490000	23.900000	32.100000	754.000000	0.000000	128.000000	57.000000	67.000000	-12.000000
0.500000	24.570000	31.910000	757.000000	0.000000	130.000000	56.000000	67.000000	-19.000000
0.510000	25.220000	31.640000	755.000000	0.000000	130.000000	56.000000	65.000000	-27.000000
0.520000	25.590000	31.320000	757.000000	0.000000	131.000000	57.000000	37.000000	-32.000000
0.530000	25.770000	30.870000	763.000000	0.000000	130.000000	58.000000	18.000000	-45.000000
0.540000	25.770000	30.340000	763.000000	0.000000	130.000000	58.000000	0.000000	-53.000000
0.550000	25.650000	29.790000	753.000000	0.000000	131.000000	58.000000	-12.000000	-55.000000
0.560000	25.350000	29.360000	759.000000	0.000000	131.000000	58.000000	-30.000000	-43.000000
0.570000	25.000000	29.020000	767.000000	0.000000	129.000000	59.000000	-35.000000	-34.000000
0.580000	24.610000	28.860000	777.000000	0.000000	129.000000	59.000000	-39.000000	-16.000000
0.590000	24.180000	28.860000	783.000000	0.000000	129.000000	59.000000	-43.000000	0.000000
0.600000	23.790000	28.860000	783.000000	0.000000	128.000000	59.000000	-39.000000	0.000000
0.610000	23.330000	29.080000	797.000000	0.000000	128.000000	59.000000	-46.000000	22.000000
0.620000	22.820000	29.390000	760.000000	0.000000	127.000000	59.000000	-51.000000	31.000000
0.630000	22.600000	29.780000	710.000000	0.000000	127.000000	59.000000	-22.000000	39.000000
0.640000	22.440000	30.100000	622.000000	0.000000	126.000000	58.000000	-16.000000	32.000000
0.650000	22.440000	30.400000	490.000000	0.000000	126.000000	58.000000	0.000000	30.000000
0.660000	22.600000	30.630000	251.000000	0.000000	124.000000	57.000000	16.000000	23.000000
0.670000	22.600000	30.630000	0.000000	1.000000	126.000000	57.000000	0.000000	0.000000
0.680000	23.190000	30.850000	0.000000	0.000000	126.000000	57.000000	59.000000	22.000000
0.690000	23.630000	30.960000	0.000000	0.000000	125.000000	56.000000	44.000000	11.000000
0.700000	24.180000	31.080000	0.000000	0.000000	127.000000	56.000000	55.000000	12.000000
0.710000	24.840000	31.220000	0.000000	0.000000	127.000000	56.000000	66.000000	14.000000
0.720000	25.560000	31.420000	0.000000	0.000000	127.000000	56.000000	72.000000	20.000000
0.730000	26.350000	31.610000	0.000000	0.000000	128.000000	57.000000	79.000000	19.000000
0.740000	27.020000	31.800000	0.000000	0.000000	128.000000	57.000000	67.000000	19.000000
0.750000	27.420000	32.000000	0.000000	0.000000	128.000000	57.000000	40.000000	20.000000
0.760000	27.670000	32.210000	0.000000	0.000000	130.000000	56.000000	25.000000	21.000000
0.770000	27.530000	32.360000	0.000000	0.000000	130.000000	56.000000	-14.000000	15.000000
0.780000	27.300000	32.520000	0.000000	0.000000	130.000000	56.000000	-23.000000	16.000000
0.790000	27.300000	32.520000	233.000000	1.000000	130.000000	56.000000	0.000000	0.000000
0.800000	26.690000	32.890000	349.000000	0.000000	130.000000	56.000000	-61.000000	37.000000
0.810000	26.400000	33.060000	468.000000	0.000000	128.000000	57.000000	-29.000000	17.000000
0.820000	26.310000	33.140000	542.000000	0.000000	130.000000	58.000000	-9.000000	8.000000
0.830000	26.310000	33.140000	561.000000	0.000000	130.000000	58.000000	0.000000	0.000000
0.840000	26.420000	33.070000	570.000000	0.000000	130.000000	58.000000	11.000000	-7.000000
0.850000	26.530000	32.960000	561.000000	0.000000	128.000000	58.000000	11.000000	-11.000000
0.860000	26.690000	32.640000	560.000000	0.000000	128.000000	58.000000	16.000000	-32.000000
0.870000	26.870000	32.180000	564.000000	0.000000	129.000000	59.000000	18.000000	-46.000000
0.880000	27.060000	31.670000	567.000000	0.000000	129.000000	59.000000	19.000000	-51.000000
0.890000	27.190000	31.140000	569.000000	0.000000	129.000000	59.000000	13.000000	-53.000000
0.900000	27.280000	30.570000	569.000000	0.000000	131.000000	58.000000	9.000000	-57.000000
0.910000	27.380000	30.030000	569.000000	0.000000	131.000000	58.000000	10.000000	-54.000000
0.920000	27.380000	29.660000	578.000000	0.000000	131.000000	58.000000	0.000000	-37.000000
0.930000	27.430000	29.400000	595.000000	0.000000	129.000000	59.000000	5.000000	-26.000000
0.940000	27.380000	29.320000	667.000000	0.000000	129.000000	59.000000	-5.000000	-8.000000
0.950000	27.330000	29.320000	720.000000	0.000000	131.000000	60.000000	-5.000000	0.000000
0.960000	27.330000	29.490000	777.000000	0.000000	131.000000	60.000000	0.000000	17.000000
0.970000	27.260000	29.700000	797.000000	0.000000	131.000000	60.000000	-7.000000	21.000000
0.980000	27.260000	30.110000	814.000000	0.000000	131.000000	60.000000	0.000000	41.000000
0.990000	27.260000	30.650000	826.000000	0.000000	131.000000	60.000000	0.000000	54.000000
1.000000	27.350000	31.210000	826.000000	0.000000	131.000000	60.000000	9.000000	56.000000
1.010000	27.520000	31.830000	827.000000	0.000000	129.000000	59.000000	17.000000	62.000000
1.020000	27.780000	32.480000	826.000000	0.000000	131.000000	60.000000	26.000000	65.000000
1.030000	28.040000	33.080000	829.000000	0.000000	131.000000	60.000000	26.000000	60.000000
1.040000	28.290000	33.330000	824.000000	0.000000	131.000000	60.000000	25.000000	25.000000
1.050000	28.460000	33.330000	821.000000	0.000000	131.000000	60.000000	17.000000	0.000000
1.060000	28.660000	33.330000	809.000000	0.000000	131.000000	60.000000	20.000000	0.000000
1.070000	28.910000	33.070000	784.000000	0.000000	131.000000	60.000000	25.000000	-26.000000
1.080000	29.160000	32.700000	720.000000	0.000000	132.000000	60.000000	25.000000	-37.000000
1.090000	29.340000	32.380000	624.000000	0.000000	134.000000	60.000000	18.000000	-32.000000
1.100000	29.490000	32.050000	425.000000	0.000000	134.000000	60.000000	15.000000	-33.000000
1.110000	29.490000	32.050000	0.000000	1.000000	134.000000	60.000000	0.000000	0.000000
1.120000	29.760000	31.600000	0.000000	0.000000	134.000000	60.000000	27.000000	-45.000000
1.130000	29.900000	31.510000	0.000000	0.000000	134.000000	60.000000	14.000000	-9.000000
1.140000	29.980000	31.570000	0.000000	0.000000	134.000000	60.000000	8.000000	6.000000
1.150000	29.980000	31.700000	0.000000	0.000000	132.000000	59.000000	0.000000	13.000000
1.160000	30.120000	31.880000	0.000000	0.000000	132.000000	59.000000	14.000000	18.000000
1.170000	30.220000	32.070000	0.000000	0.000000	132.000000	59.000000	10.000000	19.000000
1.180000	30.320000	32.270000	0.000000	0.000000	131.000000	58.000000	10.000000	20.000000
1.190000	30.400000	32.490000	0.000000	0.000000	131.000000	58.000000	8.000000	22.000000
1.200000	30.460000	32.690000	0.000000	0.000000	130.000000	58.000000	6.000000	20.000000
1.210000	30.460000	32.830000	0.000000	0.000000	130.000000	58.000000	0.000000	14.000000
1.220000	30.460000	32.830000	242.000000	1.000000	130.000000	58.000000	0.000000	0.000000
1.230000	30.460000	33.120000	389.000000	0.000000	128.000000	57.000000	0.000000	29.000000
1.240000	30.460000	33.200000	496.000000	0.000000	128.000000	57.000000	0.000000	8.000000
1.250000	30.460000	33.250000	542.000000	0.000000	128.000000	57.000000	0.000000	5.000000
1.260000	30.580000	33.250000	606.000000	0.000000	128.000000	57.000000	12.000000	0.000000
1.270000	30.760000	33.120000	611.000000	0.000000	128.000000	57.000000	18.000000	-13.000000
1.280000	30.990000	32.860000	627.000000	0.000000	130.000000	58.000000	23.000000	-26.000000
1.290000	31.260000	32.490000	641.000000	0.000000	130.000000	58.000000	27.000000	-37.000000
1.300000	31.530000	31.990000	643.000000	0.000000	130.000000	58.000000	27.000000	-50.000000
1.310000	31.780000	31.480000	650.000000	0.000000	131.000000	58.000000	25.000000	-51.000000
1.320000	31.970000	30.970000	650.000000	0.000000	131.000000	58.000000	19.000000	-51.000000
1.330000	32.150000	30.510000	652.000000	0.000000	131.000000	58.000000	18.000000	-46.000000
1.340000	32.260000	30.170000	652.000000	0.000000	132.000000	59.000000	11.000000	-34.000000
1.350000	32.260000	29.920000	662.000000	0.000000	132.000000	59.000000	0.000000	-25.000000
1.360000	32.260000	29.920000	676.000000	0.000000	132.000000	59.000000	0.000000	0.000000
1.370000	32.260000	29.920000	703.000000	0.000000	131.000000	60.000000	0.000000	0.000000
1.380000	32.160000	30.040000	728.000000	0.000000	131.000000	60.000000	-10.000000	12.000000
1.390000	31.990000	30.270000	750.000000	0.000000	131.000000	60.000000	-17.000000	23.000000
1.400000	31.750000	30.580000	768.000000	0.000000	131.000000	60.000000	-24.000000	31.000000
1.410000	31.420000	30.940000	779.000000	0.000000	131.000000	60.000000	-33.000000	36.000000
1.420000	31.040000	31.140000	776.000000	0.000000	131.000000	60.000000	-38.000000	20.000000
1.430000	30.590000	31.300000	776.000000	0.000000	131.000000	60.000000	-45.000000	16.000000
1.440000	30.180000	31.380000	773.000000	0.000000	132.000000	59.000000	-41.000000	8.000000
1.450000	29.850000	31.300000	770.000000	0.000000	132.000000	59.000000	-33.000000	-8.000000
1.460000	29.610000	31.110000	771.000000	0.000000	132.000000	59.000000	-24.000000	-19.000000
1.470000	29.430000	30.690000	776.000000	0.000000	132.000000	59.000000	-18.000000	-42.000000
1.480000	29.280000	30.280000	773.000000	0.000000	132.000000	59.000000	-15.000000	-41.000000
1.490000	29.330000	29.880000	770.000000	0.000000	132.000000	59.000000	5.000000	-40.000000
1.500000	29.500000	29.560000	771.000000	0.000000	132.000000	59.000000	17.000000	-32.000000
1.510000	29.930000	29.300000	774.000000	0.000000	131.000000	60.000000	43.000000	-26.000000
1.520000	30.540000	29.090000	773.000000	0.000000	131.000000	60.000000	61.000000	-21.000000
1.530000	31.270000	29.090000	776.000000	0.000000	131.000000	60.000000	73.000000	0.000000
1.540000	31.910000	29.280000	776.000000	0.000000	131.000000	60.000000	64.000000	19.000000
1.550000	32.370000	29.550000	780.000000	0.000000	131.000000	60.000000	46.000000	27.000000
1.560000	32.700000	29.780000	788.000000	0.000000	131.000000	60.000000	33.000000	23.000000
1.570000	32.860000	29.990000	787.000000	0.000000	131.000000	60.000000	16.000000	21.000000
1.580000	32.860000	30.200000	809.000000	0.000000	131.000000	60.000000	0.000000	21.000000
1.590000	32.860000	30.420000	818.000000	0.000000	129.000000	59.000000	0.000000	22.000000
1.600000	32.690000	30.520000	823.000000	0.000000	129.000000	59.000000	-17.000000	10.000000
1.610000	32.570000	30.520000	818.000000	0.000000	129.000000	59.000000	-12.000000	0.000000
1.620000	32.510000	30.520000	814.000000	0.000000	129.000000	59.000000	-6.000000	0.000000
1.630000	32.510000	30.270000	814.000000	0.000000	129.000000	59.000000	0.000000	-25.000000
1.640000	32.510000	29.890000	800.000000	0.000000	129.000000	59.000000	0.000000	-38.000000
1.650000	32.770000	29.620000	796.000000	0.000000	129.000000	59.000000	26.000000	-27.000000
1.660000	33.120000	29.330000	755.000000	0.000000	129.000000	59.000000	35.000000	-29.000000
1.670000	33.630000	29.120000	685.000000	0.000000	129.000000	59.000000	51.000000	-21.000000
1.680000	34.060000	28.980000	521.000000	0.000000	131.000000	60.000000	43.000000	-14.000000
1.690000	34.440000	28.860000	110.000000	0.000000	129.000000	60.000000	38.000000	-12.000000
1.700000	34.440000	28.860000	0.000000	1.000000	129.000000	60.000000	0.000000	0.000000
1.710000	34.520000	28.860000	0.000000	0.000000	129.000000	60.000000	8.000000	0.000000
1.720000	34.240000	28.930000	0.000000	0.000000	129.000000	60.000000	-28.000000	7.000000
1.730000	33.860000	29.080000	0.000000	0.000000	129.000000	60.000000	-38.000000	15.000000
1.740000	33.280000	29.270000	0.000000	0.000000	129.000000	60.000000	-58.000000	19.000000
1.750000	32.570000	29.450000	0.000000	0.000000	129.000000	60.000000	-71.000000	18.000000
1.760000	31.590000	29.610000	0.000000	0.000000	129.000000	60.000000	-98.000000	16.000000
1.770000	30.610000	29.990000	0.000000	0.000000	129.000000	60.000000	-98.000000	38.000000
1.780000	29.190000	30.540000	0.000000	0.000000	128.000000	59.000000	-142.000000	55.000000
1.790000	27.470000	30.950000	0.000000	0.000000	128.000000	59.000000	-172.000000	41.000000
1.800000	25.960000	31.320000	0.000000	0.000000	128.000000	58.000000	-151.000000	37.000000
1.810000	24.470000	31.620000	0.000000	0.000000	127.000000	57.000000	-149.000000	30.000000
1.820000	22.990000	31.820000	0.000000	0.000000	128.000000	57.000000	-148.000000	20.000000
1.830000	21.620000	31.970000	0.000000	0.000000	129.000000	56.000000	-137.000000	15.000000
1.840000	20.260000	32.080000	0.000000	0.000000	129.000000	56.000000	-136.000000	11.000000
1.850000	19.230000	32.250000	0.000000	0.000000	129.000000	55.000000	-103.000000	17.000000
1.860000	18.420000	32.450000	0.000000	0.000000	129.000000	55.000000	-81.000000	20.000000
1.870000	18.000000	32.850000	0.000000	0.000000	129.000000	55.000000	-42.000000	40.000000
1.880000	17.880000	33.260000	0.000000	0.000000	130.000000	54.000000	-12.000000	41.000000
1.890000	17.950000	33.690000	0.000000	0.000000	131.000000	55.000000	7.000000	43.000000
1.900000	18.000000	34.460000	0.000000	0.000000	131.000000	55.000000	5.000000	77.000000
1.910000	18.000000	34.910000	0.000000	0.000000	132.000000	55.000000	0.000000	45.000000
1.920000	18.000000	35.160000	0.000000	0.000000	132.000000	57.000000	0.000000	25.000000
1.930000	18.000000	35.160000	51.000000	1.000000	134.000000	57.000000	0.000000	0.000000
1.940000	18.000000	35.160000	195.000000	0.000000	135.000000	58.000000	0.000000	0.000000
1.950000	18.000000	35.160000	285.000000	0.000000	134.000000	58.000000	0.000000	0.000000
1.960000	18.000000	35.160000	369.000000	0.000000	135.000000	59.000000	0.000000	0.000000
1.970000	18.000000	35.160000	420.000000	0.000000	135.000000	59.000000	0.000000	0.000000
1.980000	18.000000	35.160000	494.000000	0.000000	134.000000	60.000000	0.000000	0.000000
1.990000	17.850000	34.470000	546.000000	0.000000	134.000000	60.000000	-15.000000	-69.000000
2.000000	18.010000	33.720000	580.000000	0.000000	134.000000	60.000000	16.000000	-75.000000
2.010000	18.210000	32.630000	595.000000	0.000000	134.000000	60.000000	20.000000	-109.000000
2.020000	18.450000	31.310000	606.000000	0.000000	134.000000	60.000000	24.000000	-132.000000
2.030000	18.640000	30.040000	617.000000	0.000000	135.000000	59.000000	19.000000	-127.000000
2.040000	18.800000	28.950000	610.000000	0.000000	135.000000	59.000000	16.000000	-109.000000
2.050000	18.970000	27.990000	622.000000	0.000000	134.000000	60.000000	17.000000	-96.000000
2.060000	19.070000	27.160000	634.000000	0.000000	132.000000	59.000000	10.000000	-83.000000
2.070000	19.070000	26.590000	645.000000	0.000000	132.000000	59.000000	0.000000	-57.000000
2.080000	19.070000	26.190000	646.000000	0.000000	131.000000	60.000000	0.000000	-40.000000
2.090000	19.070000	26.140000	669.000000	0.000000	129.000000	60.000000	0.000000	-5.000000
2.100000	19.070000	26.210000	678.000000	0.000000	128.000000	61.000000	0.000000	7.000000
2.110000	18.910000	26.350000	700.000000	0.000000	126.000000	61.000000	-16.000000	14.000000
2.120000	18.550000	26.710000	693.000000	0.000000	127.000000	62.000000	-36.000000	36.000000
2.130000	18.060000	27.250000	694.000000	0.000000	127.000000	62.000000	-49.000000	54.000000
2.140000	17.410000	27.920000	694.000000	0.000000	127.000000	62.000000	-65.000000	67.000000
2.150000	16.640000	28.450000	700.000000	0.000000	127.000000	62.000000	-77.000000	53.000000
2.160000	15.790000	28.760000	707.000000	0.000000	129.000000	61.000000	-85.000000	31.000000
2.170000	14.880000	28.920000	717.000000	0.000000	129.000000	61.000000	-91.000000	16.000000
2.180000	13.860000	28.870000	730.000000	0.000000	131.000000	61.000000	-102.000000	-5.000000
2.190000	12.760000	28.790000	728.000000	0.000000	131.000000	61.000000	-110.000000	-8.000000
2.200000	11.830000	28.640000	737.000000	0.000000	131.000000	61.000000	-93.000000	-15.000000
2.210000	11.370000	28.460000	730.000000	0.000000	132.000000	61.000000	-46.000000	-18.000000
