t	x	y	pressure	penup	azimuth	inclination	v_x	v_y
0.000000	19.010000	18.930000	98.000000	1.000000	131.000000	58.000000	0.000000	0.000000
0.010000	19.010000	18.930000	247.000000	0.000000	132.000000	58.000000	0.000000	0.000000
0.020000	19.010000	18.930000	310.000000	0.000000	134.000000	58.000000	0.000000	0.000000
0.030000	19.010000	18.930000	397.000000	0.000000	135.000000	58.000000	0.000000	0.000000
0.040000	19.010000	18.930000	460.000000	0.000000	136.000000	58.000000	0.000000	0.000000
0.050000	19.010000	18.930000	516.000000	0.000000	136.000000	58.000000	0.000000	0.000000
0.060000	19.010000	18.930000	560.000000	0.000000	138.000000	58.000000	0.000000	0.000000
0.070000	19.200000	18.600000	620.000000	0.000000	138.000000	58.000000	19.000000	-33.000000
0.080000	19.270000	18.130000	636.000000	0.000000	139.000000	58.000000	7.000000	-47.000000
0.090000	19.270000	17.540000	664.000000	0.000000	139.000000	58.000000	0.000000	-59.000000
0.100000	19.340000	16.830000	702.000000	0.000000	139.000000	58.000000	7.000000	-71.000000
0.110000	19.410000	16.030000	737.000000	0.000000	140.000000	58.000000	7.000000	-80.000000
0.120000	19.490000	15.250000	759.000000	0.000000	143.000000	57.000000	8.000000	-78.000000
0.130000	19.540000	14.470000	788.000000	0.000000	144.000000	57.000000	5.000000	-78.000000
0.140000	19.540000	13.820000	794.000000	0.000000	145.000000	56.000000	0.000000	-65.000000
0.150000	19.670000	13.270000	799.000000	0.000000	145.000000	56.000000	13.000000	-55.000000
0.160000	19.730000	12.810000	803.000000	0.000000	148.000000	56.000000	6.000000	-46.000000
0.170000	19.730000	12.590000	806.000000	0.000000	148.000000	56.000000	0.000000	-22.000000
0.180000	19.790000	12.540000	799.000000	0.000000	148.000000	56.000000	6.000000	-5.000000
0.190000	19.790000	12.540000	779.000000	0.000000	147.000000	56.000000	0.000000	0.000000
0.200000	19.790000	12.540000	690.000000	0.000000	147.000000	56.000000	0.000000	0.000000
0.210000	19.790000	12.830000	499.000000	0.000000	146.000000	57.000000	0.000000	29.000000
0.220000	19.790000	13.170000	161.000000	0.000000	146.000000	57.000000	0.000000	34.000000
0.230000	19.790000	13.170000	0.000000	1.000000	146.000000	57.000000	0.000000	0.000000
0.240000	20.030000	13.950000	0.000000	0.000000	146.000000	57.000000	24.000000	78.000000
0.250000	20.370000	14.330000	0.000000	0.000000	147.000000	56.000000	34.000000	38.000000
0.260000	20.800000	14.680000	0.000000	0.000000	145.000000	56.000000	43.000000	35.000000
0.270000	21.350000	14.980000	0.000000	0.000000	146.000000	55.000000	55.000000	30.000000
0.280000	21.870000	15.240000	0.000000	0.000000	146.000000	54.000000	52.000000	26.000000
0.290000	22.360000	15.460000	0.000000	0.000000	147.000000	53.000000	49.000000	22.000000
0.300000	22.820000	15.670000	0.000000	0.000000	147.000000	52.000000	46.000000	21.000000
0.310000	23.110000	15.860000	0.000000	0.000000	148.000000	51.000000	29.000000	19.000000
0.320000	23.280000	16.030000	0.000000	0.000000	148.000000	50.000000	17.000000	17.000000
0.330000	23.280000	16.030000	130.000000	1.000000	148.000000	50.000000	0.000000	0.000000
0.340000	23.130000	16.310000	307.000000	0.000000	148.000000	50.000000	-15.000000	28.000000
0.350000	22.870000	16.450000	379.000000	0.000000	147.000000	49.000000	-26.000000	14.000000
0.360000	22.630000	16.590000	498.000000	0.000000	147.000000	49.000000	-24.000000	14.000000
0.370000	22.330000	16.670000	570.000000	0.000000	147.000000	49.000000	-30.000000	8.000000
0.380000	21.990000	16.720000	616.000000	0.000000	147.000000	49.000000	-34.000000	5.000000
0.390000	21.700000	16.720000	636.000000	0.000000	148.000000	50.000000	-29.000000	0.000000
0.400000	21.360000	16.720000	667.000000	0.000000	148.000000	50.000000	-34.000000	0.000000
0.410000	21.000000	16.570000	687.000000	0.000000	148.000000	50.000000	-36.000000	-15.000000
0.420000	20.650000	16.400000	702.000000	0.000000	149.000000	49.000000	-35.000000	-17.000000
0.430000	20.540000	16.250000	696.000000	0.000000	148.000000	50.000000	-11.000000	-15.000000
0.440000	20.540000	16.120000	691.000000	0.000000	150.000000	50.000000	0.000000	-13.000000
0.450000	20.640000	15.990000	697.000000	0.000000	150.000000	50.000000	10.000000	-13.000000
0.460000	20.920000	15.790000	697.000000	0.000000	150.000000	50.000000	28.000000	-20.000000
0.470000	21.340000	15.580000	700.000000	0.000000	149.000000	51.000000	42.000000	-21.000000
0.480000	21.850000	15.380000	702.000000	0.000000	149.000000	51.000000	51.000000	-20.000000
0.490000	22.320000	15.180000	703.000000	0.000000	149.000000	51.000000	47.000000	-20.000000
0.500000	22.650000	14.890000	705.000000	0.000000	148.000000	51.000000	33.000000	-29.000000
0.510000	22.880000	14.580000	703.000000	0.000000	147.000000	52.000000	23.000000	-31.000000
0.520000	22.990000	14.210000	707.000000	0.000000	147.000000	52.000000	11.000000	-37.000000
0.530000	22.990000	13.760000	707.000000	0.000000	146.000000	53.000000	0.000000	-45.000000
0.540000	22.810000	13.320000	708.000000	0.000000	145.000000	54.000000	-18.000000	-44.000000
0.550000	22.570000	12.910000	716.000000	0.000000	144.000000	54.000000	-24.000000	-41.000000
0.560000	22.270000	12.690000	719.000000	0.000000	144.000000	54.000000	-30.000000	-22.000000
0.570000	21.920000	12.570000	727.000000	0.000000	144.000000	56.000000	-35.000000	-12.000000
0.580000	21.590000	12.570000	728.000000	0.000000	144.000000	56.000000	-33.000000	0.000000
0.590000	21.200000	12.640000	727.000000	0.000000	143.000000	56.000000	-39.000000	7.000000
0.600000	20.750000	12.850000	727.000000	0.000000	143.000000	56.000000	-45.000000	21.000000
0.610000	20.280000	13.120000	694.000000	0.000000	143.000000	56.000000	-47.000000	27.000000
0.620000	20.080000	13.370000	650.000000	0.000000	143.000000	56.000000	-20.000000	25.000000
0.630000	20.080000	13.600000	560.000000	0.000000	143.000000	56.000000	0.000000	23.000000
0.640000	20.080000	13.810000	398.000000	0.000000	143.000000	56.000000	0.000000	21.000000
0.650000	20.390000	13.990000	47.000000	0.000000	144.000000	56.000000	31.000000	18.000000
0.660000	20.390000	13.990000	0.000000	1.000000	144.000000	56.000000	0.000000	0.000000
0.670000	21.130000	14.200000	0.000000	0.000000	145.000000	55.000000	74.000000	21.000000
0.680000	21.670000	14.360000	0.000000	0.000000	145.000000	55.000000	54.000000	16.000000
0.690000	22.330000	14.580000	0.000000	0.000000	145.000000	54.000000	66.000000	22.000000
0.700000	22.960000	14.790000	0.000000	0.000000	145.000000	54.000000	63.000000	21.000000
0.710000	23.570000	14.980000	0.000000	0.000000	146.000000	53.000000	61.000000	19.000000
0.720000	24.020000	15.190000	0.000000	0.000000	145.000000	53.000000	45.000000	21.000000
0.730000	24.280000	15.400000	0.000000	0.000000	146.000000	52.000000	26.000000	21.000000
0.740000	24.410000	15.580000	0.000000	0.000000	146.000000	52.000000	13.000000	18.000000
0.750000	24.290000	15.700000	0.000000	0.000000	147.000000	51.000000	-12.000000	12.000000
0.760000	24.110000	15.860000	0.000000	0.000000	147.000000	51.000000	-18.000000	16.000000
0.770000	23.890000	16.060000	0.000000	0.000000	147.000000	51.000000	-22.000000	20.000000
0.780000	23.890000	16.060000	151.000000	1.000000	148.000000	50.000000	0.000000	0.000000
0.790000	23.540000	16.410000	275.000000	0.000000	148.000000	50.000000	-35.000000	35.000000
0.800000	23.460000	16.580000	361.000000	0.000000	148.000000	50.000000	-8.000000	17.000000
0.810000	23.460000	16.630000	453.000000	0.000000	148.000000	50.000000	0.000000	5.000000
0.820000	23.460000	16.630000	493.000000	0.000000	148.000000	50.000000	0.000000	0.000000
0.830000	23.460000	16.530000	513.000000	0.000000	146.000000	50.000000	0.000000	-10.000000
0.840000	23.590000	16.400000	540.000000	0.000000	146.000000	50.000000	13.000000	-13.000000
0.850000	23.690000	16.160000	543.000000	0.000000	146.000000	50.000000	10.000000	-24.000000
0.860000	23.810000	15.790000	551.000000	0.000000	145.000000	51.000000	12.000000	-37.000000
0.870000	23.970000	15.330000	554.000000	0.000000	147.000000	51.000000	16.000000	-46.000000
0.880000	24.130000	14.840000	564.000000	0.000000	147.000000	51.000000	16.000000	-49.000000
0.890000	24.270000	14.340000	565.000000	0.000000	146.000000	52.000000	14.000000	-50.000000
0.900000	24.350000	13.840000	565.000000	0.000000	145.000000	53.000000	8.000000	-50.000000
0.910000	24.400000	13.480000	566.000000	0.000000	145.000000	54.000000	5.000000	-36.000000
0.920000	24.400000	13.210000	611.000000	0.000000	144.000000	54.000000	0.000000	-27.000000
0.930000	24.400000	13.150000	690.000000	0.000000	143.000000	55.000000	0.000000	-6.000000
0.940000	24.400000	13.210000	754.000000	0.000000	141.000000	56.000000	0.000000	6.000000
0.950000	24.310000	13.350000	788.000000	0.000000	142.000000	57.000000	-9.000000	14.000000
0.960000	24.240000	13.580000	827.000000	0.000000	142.000000	57.000000	-7.000000	23.000000
0.970000	24.180000	13.970000	836.000000	0.000000	140.000000	58.000000	-6.000000	39.000000
0.980000	24.130000	14.480000	852.000000	0.000000	140.000000	58.000000	-5.000000	51.000000
0.990000	24.130000	14.960000	861.000000	0.000000	142.000000	57.000000	0.000000	48.000000
1.000000	24.230000	15.440000	867.000000	0.000000	140.000000	56.000000	10.000000	48.000000
1.010000	24.410000	15.920000	863.000000	0.000000	141.000000	56.000000	18.000000	48.000000
1.020000	24.640000	16.320000	861.000000	0.000000	143.000000	55.000000	23.000000	40.000000
1.030000	24.910000	16.620000	857.000000	0.000000	144.000000	54.000000	27.000000	30.000000
1.040000	25.220000	16.710000	852.000000	0.000000	145.000000	54.000000	31.000000	9.000000
1.050000	25.580000	16.710000	828.000000	0.000000	146.000000	53.000000	36.000000	0.000000
1.060000	25.840000	16.500000	829.000000	0.000000	147.000000	52.000000	26.000000	-21.000000
1.070000	26.050000	16.280000	802.000000	0.000000	148.000000	53.000000	21.000000	-22.000000
1.080000	26.180000	15.940000	765.000000	0.000000	148.000000	53.000000	13.000000	-34.000000
1.090000	26.250000	15.550000	697.000000	0.000000	148.000000	53.000000	7.000000	-39.000000
1.100000	26.250000	15.270000	580.000000	0.000000	149.000000	53.000000	0.000000	-28.000000
1.110000	26.340000	15.110000	344.000000	0.000000	148.000000	54.000000	9.000000	-16.000000
1.120000	26.340000	15.110000	0.000000	1.000000	148.000000	54.000000	0.000000	0.000000
1.130000	26.340000	15.040000	0.000000	0.000000	147.000000	55.000000	0.000000	-7.000000
1.140000	26.340000	15.270000	0.000000	0.000000	147.000000	55.000000	0.000000	23.000000
1.150000	26.410000	15.550000	0.000000	0.000000	147.000000	55.000000	7.000000	28.000000
1.160000	26.570000	15.850000	0.000000	0.000000	147.000000	55.000000	16.000000	30.000000
1.170000	26.800000	16.150000	0.000000	0.000000	147.000000	55.000000	23.000000	30.000000
1.180000	27.010000	16.440000	0.000000	0.000000	147.000000	53.000000	21.000000	29.000000
1.190000	27.190000	16.700000	0.000000	0.000000	147.000000	53.000000	18.000000	26.000000
1.200000	27.240000	16.920000	0.000000	0.000000	146.000000	54.000000	5.000000	22.000000
1.210000	27.240000	16.920000	252.000000	1.000000	144.000000	54.000000	0.000000	0.000000
1.220000	27.180000	17.220000	418.000000	0.000000	143.000000	55.000000	-6.000000	30.000000
1.230000	27.180000	17.290000	545.000000	0.000000	141.000000	56.000000	0.000000	7.000000
1.240000	27.180000	17.290000	610.000000	0.000000	139.000000	57.000000	0.000000	0.000000
1.250000	27.180000	17.290000	638.000000	0.000000	138.000000	58.000000	0.000000	0.000000
1.260000	27.250000	17.180000	675.000000	0.000000	136.000000	60.000000	7.000000	-11.000000
1.270000	27.430000	17.010000	690.000000	0.000000	136.000000	60.000000	18.000000	-17.000000
1.280000	27.680000	16.710000	714.000000	0.000000	136.000000	60.000000	25.000000	-30.000000
1.290000	27.990000	16.320000	727.000000	0.000000	139.000000	60.000000	31.000000	-39.000000
1.300000	28.340000	15.910000	722.000000	0.000000	142.000000	58.000000	35.000000	-41.000000
1.310000	28.670000	15.560000	720.000000	0.000000	143.000000	57.000000	33.000000	-35.000000
1.320000	28.990000	15.250000	722.000000	0.000000	146.000000	57.000000	32.000000	-31.000000
1.330000	29.240000	14.960000	730.000000	0.000000	147.000000	56.000000	25.000000	-29.000000
1.340000	29.460000	14.760000	730.000000	0.000000	147.000000	56.000000	22.000000	-20.000000
1.350000	29.520000	14.630000	734.000000	0.000000	147.000000	56.000000	6.000000	-13.000000
1.360000	29.520000	14.630000	750.000000	0.000000	147.000000	56.000000	0.000000	0.000000
1.370000	29.520000	14.630000	788.000000	0.000000	147.000000	56.000000	0.000000	0.000000
1.380000	29.460000	14.760000	791.000000	0.000000	146.000000	57.000000	-6.000000	13.000000
1.390000	29.300000	14.960000	794.000000	0.000000	146.000000	57.000000	-16.000000	20.000000
1.400000	29.040000	15.220000	793.000000	0.000000	144.000000	57.000000	-26.000000	26.000000
1.410000	28.730000	15.470000	790.000000	0.000000	144.000000	57.000000	-31.000000	25.000000
1.420000	28.390000	15.710000	788.000000	0.000000	144.000000	57.000000	-34.000000	24.000000
1.430000	28.040000	15.790000	796.000000	0.000000	145.000000	56.000000	-35.000000	8.000000
1.440000	27.570000	15.790000	791.000000	0.000000	145.000000	56.000000	-47.000000	0.000000
1.450000	27.130000	15.610000	788.000000	0.000000	146.000000	55.000000	-44.000000	-18.000000
1.460000	26.760000	15.420000	784.000000	0.000000	146.000000	55.000000	-37.000000	-19.000000
1.470000	26.580000	15.150000	785.000000	0.000000	146.000000	55.000000	-18.000000	-27.000000
1.480000	26.520000	14.830000	782.000000	0.000000	147.000000	55.000000	-6.000000	-32.000000
1.490000	26.700000	14.480000	777.000000	0.000000	146.000000	55.000000	18.000000	-35.000000
1.500000	26.930000	14.230000	776.000000	0.000000	146.000000	55.000000	23.000000	-25.000000
1.510000	27.360000	14.050000	777.000000	0.000000	145.000000	56.000000	43.000000	-18.000000
1.520000	27.920000	14.050000	776.000000	0.000000	145.000000	56.000000	56.000000	0.000000
1.530000	28.460000	14.160000	777.000000	0.000000	144.000000	57.000000	54.000000	11.000000
1.540000	28.870000	14.390000	779.000000	0.000000	144.000000	57.000000	41.000000	23.000000
1.550000	29.190000	14.710000	777.000000	0.000000	143.000000	57.000000	32.000000	32.000000
1.560000	29.340000	15.020000	779.000000	0.000000	143.000000	57.000000	15.000000	31.000000
1.570000	29.340000	15.320000	784.000000	0.000000	143.000000	57.000000	0.000000	30.000000
1.580000	29.340000	15.550000	787.000000	0.000000	143.000000	57.000000	0.000000	23.000000
1.590000	29.240000	15.650000	793.000000	0.000000	144.000000	57.000000	-10.000000	10.000000
1.600000	29.190000	15.650000	790.000000	0.000000	144.000000	57.000000	-5.000000	0.000000
1.610000	29.190000	15.650000	794.000000	0.000000	145.000000	56.000000	0.000000	0.000000
1.620000	29.190000	15.350000	787.000000	0.000000	145.000000	56.000000	0.000000	-30.000000
1.630000	29.190000	14.910000	790.000000	0.000000	146.000000	55.000000	0.000000	-44.000000
1.640000	29.460000	14.530000	790.000000	0.000000	145.000000	56.000000	27.000000	-38.000000
1.650000	29.850000	14.160000	785.000000	0.000000	145.000000	56.000000	39.000000	-37.000000
1.660000	30.540000	13.800000	757.000000	0.000000	144.000000	57.000000	69.000000	-36.000000
1.670000	31.230000	13.560000	628.000000	0.000000	143.000000	57.000000	69.000000	-24.000000
1.680000	31.760000	13.390000	146.000000	0.000000	142.000000	58.000000	53.000000	-17.000000
1.690000	31.760000	13.390000	0.000000	1.000000	141.000000	59.000000	0.000000	0.000000
1.700000	32.340000	13.410000	0.000000	0.000000	141.000000	60.000000	58.000000	2.000000
1.710000	32.230000	13.640000	0.000000	0.000000	141.000000	60.000000	-11.000000	23.000000
1.720000	31.940000	13.910000	0.000000	0.000000	141.000000	60.000000	-29.000000	27.000000
1.730000	31.440000	14.200000	0.000000	0.000000	141.000000	59.000000	-50.000000	29.000000
1.740000	30.700000	14.500000	0.000000	0.000000	142.000000	58.000000	-74.000000	30.000000
1.750000	29.800000	14.760000	0.000000	0.000000	143.000000	56.000000	-90.000000	26.000000
1.760000	28.730000	14.980000	0.000000	0.000000	144.000000	54.000000	-107.000000	22.000000
1.770000	27.390000	14.980000	0.000000	0.000000	143.000000	53.000000	-134.000000	0.000000
1.780000	25.860000	14.830000	0.000000	0.000000	144.000000	51.000000	-153.000000	-15.000000
1.790000	24.690000	14.580000	0.000000	0.000000	145.000000	50.000000	-117.000000	-25.000000
1.800000	23.520000	14.390000	0.000000	0.000000	146.000000	49.000000	-117.000000	-19.000000
1.810000	22.380000	14.230000	0.000000	0.000000	147.000000	48.000000	-114.000000	-16.000000
1.820000	21.240000	14.080000	0.000000	0.000000	148.000000	47.000000	-114.000000	-15.000000
1.830000	20.090000	14.010000	0.000000	0.000000	150.000000	47.000000	-115.000000	-7.000000
1.840000	19.240000	14.010000	0.000000	0.000000	151.000000	46.000000	-85.000000	0.000000
1.850000	18.600000	14.060000	0.000000	0.000000	153.000000	46.000000	-64.000000	5.000000
1.860000	18.190000	14.220000	0.000000	0.000000	154.000000	45.000000	-41.000000	16.000000
1.870000	17.990000	14.430000	0.000000	0.000000	154.000000	45.000000	-20.000000	21.000000
1.880000	17.940000	14.800000	0.000000	0.000000	154.000000	45.000000	-5.000000	37.000000
1.890000	18.000000	15.230000	0.000000	0.000000	153.000000	45.000000	6.000000	43.000000
1.900000	18.060000	15.700000	0.000000	0.000000	152.000000	45.000000	6.000000	47.000000
1.910000	18.160000	16.300000	0.000000	0.000000	153.000000	46.000000	10.000000	60.000000
1.920000	18.290000	16.950000	0.000000	0.000000	152.000000	46.000000	13.000000	65.000000
1.930000	18.440000	17.630000	0.000000	0.000000	150.000000	48.000000	15.000000	68.000000
1.940000	18.520000	18.240000	0.000000	0.000000	148.000000	50.000000	8.000000	61.000000
1.950000	18.520000	18.560000	0.000000	0.000000	146.000000	52.000000	0.000000	32.000000
1.960000	18.520000	18.690000	0.000000	0.000000	143.000000	53.000000	0.000000	13.000000
1.970000	18.520000	18.690000	18.000000	1.000000	141.000000	55.000000	0.000000	0.000000
1.980000	17.970000	19.060000	130.000000	0.000000	139.000000	56.000000	-55.000000	37.000000
1.990000	17.760000	19.340000	233.000000	0.000000	139.000000	57.000000	-21.000000	28.000000
2.000000	17.580000	19.340000	324.000000	0.000000	138.000000	58.000000	-18.000000	0.000000
2.010000	17.480000	19.340000	361.000000	0.000000	138.000000	59.000000	-10.000000	0.000000
2.020000	17.480000	19.270000	448.000000	0.000000	138.000000	59.000000	0.000000	-7.000000
2.030000	17.680000	18.950000	510.000000	0.000000	141.000000	59.000000	20.000000	-32.000000
2.040000	18.000000	18.450000	536.000000	0.000000	142.000000	59.000000	32.000000	-50.000000
2.050000	18.450000	17.670000	567.000000	0.000000	142.000000	59.000000	45.000000	-78.000000
2.060000	18.860000	16.660000	591.000000	0.000000	142.000000	59.000000	41.000000	-101.000000
2.070000	19.160000	15.500000	613.000000	0.000000	143.000000	59.000000	30.000000	-116.000000
2.080000	19.410000	14.270000	650.000000	0.000000	146.000000	58.000000	25.000000	-123.000000
2.090000	19.720000	13.040000	659.000000	0.000000	147.000000	58.000000	31.000000	-123.000000
2.100000	20.040000	11.810000	669.000000	0.000000	148.000000	57.000000	32.000000	-123.000000
2.110000	20.380000	10.960000	693.000000	0.000000	148.000000	57.000000	34.000000	-85.000000
2.120000	20.680000	10.350000	691.000000	0.000000	149.000000	56.000000	30.000000	-61.000000
2.130000	20.850000	9.970000	700.000000	0.000000	149.000000	56.000000	17.000000	-38.000000
2.140000	20.960000	9.810000	717.000000	0.000000	149.000000	56.000000	11.000000	-16.000000
2.150000	20.960000	9.810000	725.000000	0.000000	149.000000	56.000000	0.000000	0.000000
2.160000	20.910000	9.870000	728.000000	0.000000	148.000000	57.000000	-5.000000	6.000000
2.170000	20.640000	10.140000	727.000000	0.000000	150.000000	57.000000	-27.000000	27.000000
2.180000	20.200000	10.540000	710.000000	0.000000	150.000000	57.000000	-44.000000	40.000000
2.190000	19.550000	11.000000	670.000000	0.000000	150.000000	57.000000	-65.000000	46.000000
2.200000	18.680000	11.510000	653.000000	0.000000	150.000000	57.000000	-87.000000	51.000000
2.210000	17.670000	12.060000	655.000000	0.000000	152.000000	57.000000	-101.000000	55.000000
