t	x	y	pressure	penup	azimuth	inclination	v_x	v_y
0.000000	55.180000	68.720000	30.000000	1.000000	143.000000	49.000000	0.000000	0.000000
0.010000	55.120000	69.040000	65.000000	0.000000	143.000000	49.000000	-6.000000	32.000000
0.020000	55.120000	69.300000	98.000000	0.000000	144.000000	48.000000	0.000000	26.000000
0.030000	55.120000	69.660000	142.000000	0.000000	144.000000	48.000000	0.000000	36.000000
0.040000	55.200000	69.830000	151.000000	0.000000	145.000000	47.000000	8.000000	17.000000
0.050000	55.200000	69.960000	165.000000	0.000000	146.000000	47.000000	0.000000	13.000000
0.060000	55.200000	69.850000	168.000000	0.000000	146.000000	47.000000	0.000000	-11.000000
0.070000	55.200000	69.600000	180.000000	0.000000	147.000000	46.000000	0.000000	-25.000000
0.080000	55.070000	68.730000	178.000000	0.000000	146.000000	46.000000	-13.000000	-87.000000
0.090000	54.890000	67.730000	193.000000	0.000000	146.000000	46.000000	-18.000000	-100.000000
0.100000	54.680000	66.650000	212.000000	0.000000	145.000000	46.000000	-21.000000	-108.000000
0.110000	54.530000	65.690000	222.000000	0.000000	144.000000	47.000000	-15.000000	-96.000000
0.120000	54.530000	64.940000	206.000000	0.000000	143.000000	48.000000	0.000000	-75.000000
0.130000	54.580000	64.320000	211.000000	0.000000	144.000000	48.000000	5.000000	-62.000000
0.140000	54.770000	63.820000	216.000000	0.000000	143.000000	49.000000	19.000000	-50.000000
0.150000	54.910000	63.530000	216.000000	0.000000	142.000000	49.000000	14.000000	-29.000000
0.160000	55.000000	63.370000	225.000000	0.000000	142.000000	49.000000	9.000000	-16.000000
0.170000	55.090000	63.370000	232.000000	0.000000	142.000000	49.000000	9.000000	0.000000
0.180000	55.090000	63.370000	228.000000	0.000000	142.000000	49.000000	0.000000	0.000000
0.190000	55.090000	63.370000	225.000000	0.000000	142.000000	49.000000	0.000000	0.000000
0.200000	54.850000	63.520000	221.000000	0.000000	143.000000	49.000000	-24.000000	15.000000
0.210000	54.470000	63.690000	216.000000	0.000000	143.000000	49.000000	-38.000000	17.000000
0.220000	53.980000	63.880000	207.000000	0.000000	143.000000	49.000000	-49.000000	19.000000
0.230000	53.270000	63.950000	209.000000	0.000000	143.000000	49.000000	-71.000000	7.000000
0.240000	52.320000	64.010000	206.000000	0.000000	144.000000	49.000000	-95.000000	6.000000
0.250000	51.220000	63.930000	211.000000	0.000000	144.000000	49.000000	-110.000000	-8.000000
0.260000	50.140000	63.770000	216.000000	0.000000	144.000000	49.000000	-108.000000	-16.000000
0.270000	49.070000	63.580000	233.000000	0.000000	145.000000	50.000000	-107.000000	-19.000000
0.280000	48.170000	63.410000	254.000000	0.000000	145.000000	50.000000	-90.000000	-17.000000
0.290000	47.380000	63.290000	259.000000	0.000000	145.000000	50.000000	-79.000000	-12.000000
0.300000	46.820000	63.200000	260.000000	0.000000	145.000000	50.000000	-56.000000	-9.000000
0.310000	46.600000	63.090000	255.000000	0.000000	145.000000	50.000000	-22.000000	-11.000000
0.320000	46.600000	63.090000	259.000000	0.000000	145.000000	50.000000	0.000000	0.000000
0.330000	46.800000	63.090000	272.000000	0.000000	145.000000	50.000000	20.000000	0.000000
0.340000	47.470000	63.090000	267.000000	0.000000	144.000000	49.000000	67.000000	0.000000
0.350000	48.450000	63.290000	273.000000	0.000000	144.000000	49.000000	98.000000	20.000000
0.360000	49.910000	63.600000	316.000000	0.000000	145.000000	50.000000	146.000000	31.000000
0.370000	51.730000	64.060000	319.000000	0.000000	145.000000	50.000000	182.000000	46.000000
0.380000	53.800000	64.580000	340.000000	0.000000	145.000000	50.000000	207.000000	52.000000
0.390000	55.870000	65.130000	345.000000	0.000000	146.000000	50.000000	207.000000	55.000000
0.400000	57.960000	65.500000	338.000000	0.000000	145.000000	51.000000	209.000000	37.000000
0.410000	59.860000	65.840000	343.000000	0.000000	147.000000	51.000000	190.000000	34.000000
0.420000	61.630000	66.150000	344.000000	0.000000	148.000000	51.000000	177.000000	31.000000
0.430000	63.480000	66.460000	346.000000	0.000000	148.000000	51.000000	185.000000	31.000000
0.440000	65.130000	66.780000	339.000000	0.000000	147.000000	52.000000	165.000000	32.000000
0.450000	66.640000	67.070000	329.000000	0.000000	147.000000	52.000000	151.000000	29.000000
0.460000	68.000000	67.350000	307.000000	0.000000	148.000000	53.000000	136.000000	28.000000
0.470000	68.970000	67.530000	265.000000	0.000000	149.000000	53.000000	97.000000	18.000000
0.480000	69.670000	67.660000	228.000000	0.000000	150.000000	52.000000	70.000000	13.000000
0.490000	69.980000	67.660000	191.000000	0.000000	152.000000	53.000000	31.000000	0.000000
0.500000	69.980000	67.660000	180.000000	0.000000	153.000000	53.000000	0.000000	0.000000
0.510000	69.810000	67.660000	132.000000	0.000000	154.000000	53.000000	-17.000000	0.000000
0.520000	69.440000	67.570000	71.000000	0.000000	156.000000	53.000000	-37.000000	-9.000000
0.530000	68.890000	67.480000	65.000000	0.000000	158.000000	53.000000	-55.000000	-9.000000
0.540000	68.210000	67.390000	56.000000	0.000000	158.000000	53.000000	-68.000000	-9.000000
0.550000	67.390000	67.310000	15.000000	0.000000	157.000000	54.000000	-82.000000	-8.000000
0.560000	66.570000	67.240000	15.000000	0.000000	156.000000	53.000000	-82.000000	-7.000000
0.570000	65.760000	67.190000	10.000000	1.000000	154.000000	53.000000	0.000000	0.000000
0.580000	64.770000	67.050000	1.000000	0.000000	153.000000	53.000000	-99.000000	-14.000000
0.590000	63.660000	66.850000	1.000000	0.000000	152.000000	53.000000	-111.000000	-20.000000
0.600000	63.660000	66.850000	0.000000	0.000000	151.000000	53.000000	0.000000	0.000000
0.610000	60.440000	66.060000	0.000000	0.000000	151.000000	53.000000	-322.000000	-79.000000
0.620000	60.440000	66.060000	22.000000	1.000000	149.000000	53.000000	0.000000	0.000000
0.630000	55.830000	64.740000	58.000000	0.000000	149.000000	53.000000	-461.000000	-132.000000
0.640000	53.240000	63.930000	117.000000	0.000000	149.000000	53.000000	-259.000000	-81.000000
0.650000	50.670000	63.080000	148.000000	0.000000	149.000000	52.000000	-257.000000	-85.000000
0.660000	48.630000	62.460000	139.000000	0.000000	149.000000	52.000000	-204.000000	-62.000000
0.670000	46.930000	62.020000	141.000000	0.000000	149.000000	52.000000	-170.000000	-44.000000
0.680000	45.530000	61.710000	160.000000	0.000000	149.000000	51.000000	-140.000000	-31.000000
0.690000	44.640000	61.560000	170.000000	0.000000	148.000000	50.000000	-89.000000	-15.000000
0.700000	44.090000	61.560000	171.000000	0.000000	146.000000	50.000000	-55.000000	0.000000
0.710000	43.880000	61.560000	180.000000	0.000000	145.000000	50.000000	-21.000000	0.000000
0.720000	43.880000	61.650000	173.000000	0.000000	146.000000	49.000000	0.000000	9.000000
0.730000	43.880000	61.650000	170.000000	0.000000	145.000000	48.000000	0.000000	0.000000
0.740000	43.970000	61.700000	160.000000	0.000000	145.000000	48.000000	9.000000	5.000000
0.750000	44.080000	61.700000	158.000000	0.000000	144.000000	48.000000	11.000000	0.000000
0.760000	44.410000	61.590000	160.000000	0.000000	144.000000	48.000000	33.000000	-11.000000
0.770000	44.870000	61.590000	161.000000	0.000000	144.000000	48.000000	46.000000	0.000000
0.780000	45.790000	61.750000	161.000000	0.000000	144.000000	48.000000	92.000000	16.000000
0.790000	47.230000	62.040000	172.000000	0.000000	145.000000	48.000000	144.000000	29.000000
0.800000	49.010000	62.430000	184.000000	0.000000	145.000000	48.000000	178.000000	39.000000
0.810000	50.990000	62.900000	195.000000	0.000000	145.000000	48.000000	198.000000	47.000000
0.820000	53.150000	63.400000	235.000000	0.000000	146.000000	49.000000	216.000000	50.000000
0.830000	55.440000	63.950000	277.000000	0.000000	146.000000	49.000000	229.000000	55.000000
0.840000	57.940000	64.530000	307.000000	0.000000	147.000000	49.000000	250.000000	58.000000
0.850000	60.320000	65.130000	344.000000	0.000000	148.000000	50.000000	238.000000	60.000000
0.860000	62.620000	65.710000	373.000000	0.000000	150.000000	50.000000	230.000000	58.000000
0.870000	64.870000	66.220000	387.000000	0.000000	150.000000	51.000000	225.000000	51.000000
0.880000	67.180000	66.680000	396.000000	0.000000	151.000000	51.000000	231.000000	46.000000
0.890000	69.530000	67.120000	412.000000	0.000000	151.000000	51.000000	235.000000	44.000000
0.900000	71.790000	67.540000	413.000000	0.000000	153.000000	52.000000	226.000000	42.000000
0.910000	74.110000	67.970000	413.000000	0.000000	154.000000	52.000000	232.000000	43.000000
0.920000	76.470000	68.380000	422.000000	0.000000	154.000000	52.000000	236.000000	41.000000
0.930000	78.620000	68.780000	414.000000	0.000000	155.000000	52.000000	215.000000	40.000000
0.940000	80.390000	69.180000	423.000000	0.000000	155.000000	52.000000	177.000000	40.000000
0.950000	81.900000	69.600000	414.000000	0.000000	157.000000	52.000000	151.000000	42.000000
0.960000	82.910000	69.930000	423.000000	0.000000	158.000000	52.000000	101.000000	33.000000
0.970000	83.490000	70.110000	420.000000	0.000000	159.000000	51.000000	58.000000	18.000000
0.980000	83.790000	70.240000	402.000000	0.000000	159.000000	51.000000	30.000000	13.000000
0.990000	83.840000	70.290000	361.000000	0.000000	159.000000	51.000000	5.000000	5.000000
1.000000	83.650000	70.290000	247.000000	0.000000	160.000000	50.000000	-19.000000	0.000000
1.010000	83.310000	70.290000	88.000000	0.000000	160.000000	50.000000	-34.000000	0.000000
1.020000	83.310000	70.290000	0.000000	1.000000	161.000000	50.000000	0.000000	0.000000
1.030000	81.770000	70.190000	0.000000	0.000000	161.000000	50.000000	-154.000000	-10.000000
1.040000	80.890000	70.190000	0.000000	0.000000	161.000000	50.000000	-88.000000	0.000000
1.050000	79.980000	70.320000	0.000000	0.000000	161.000000	50.000000	-91.000000	13.000000
1.060000	79.170000	70.580000	0.000000	0.000000	162.000000	51.000000	-81.000000	26.000000
1.070000	78.430000	70.740000	0.000000	0.000000	162.000000	51.000000	-74.000000	16.000000
1.080000	78.180000	70.850000	0.000000	0.000000	162.000000	52.000000	-25.000000	11.000000
1.090000	77.940000	70.940000	0.000000	0.000000	163.000000	52.000000	-24.000000	9.000000
1.100000	77.700000	70.790000	0.000000	0.000000	164.000000	52.000000	-24.000000	-15.000000
1.110000	77.380000	70.720000	0.000000	0.000000	165.000000	53.000000	-32.000000	-7.000000
1.120000	77.030000	70.720000	0.000000	0.000000	166.000000	53.000000	-35.000000	0.000000
1.130000	76.690000	70.580000	0.000000	0.000000	167.000000	54.000000	-34.000000	-14.000000
1.140000	76.420000	70.440000	0.000000	0.000000	169.000000	54.000000	-27.000000	-14.000000
1.150000	76.260000	70.300000	0.000000	0.000000	168.000000	55.000000	-16.000000	-14.000000
1.160000	76.170000	70.300000	0.000000	0.000000	168.000000	56.000000	-9.000000	0.000000
1.170000	76.170000	70.300000	0.000000	0.000000	167.000000	57.000000	0.000000	0.000000
1.180000	76.170000	70.360000	0.000000	0.000000	166.000000	57.000000	0.000000	6.000000
1.190000	76.250000	70.360000	0.000000	0.000000	164.000000	58.000000	8.000000	0.000000
1.200000	76.250000	70.360000	0.000000	0.000000	164.000000	58.000000	0.000000	0.000000
1.210000	76.250000	70.290000	0.000000	0.000000	161.000000	59.000000	0.000000	-7.000000
1.220000	75.990000	70.170000	0.000000	0.000000	161.000000	59.000000	-26.000000	-12.000000
1.230000	75.500000	70.000000	0.000000	0.000000	161.000000	59.000000	-49.000000	-17.000000
1.240000	74.700000	69.660000	0.000000	0.000000	161.000000	57.000000	-80.000000	-34.000000
1.250000	73.550000	69.210000	0.000000	0.000000	161.000000	55.000000	-115.000000	-45.000000
1.260000	72.170000	68.610000	0.000000	0.000000	162.000000	50.000000	-138.000000	-60.000000
1.270000	70.620000	68.090000	0.000000	0.000000	161.000000	44.000000	-155.000000	-52.000000
1.280000	69.220000	67.620000	0.000000	0.000000	161.000000	40.000000	-140.000000	-47.000000
1.290000	67.920000	67.490000	0.000000	0.000000	161.000000	35.000000	-130.000000	-13.000000
1.300000	66.930000	67.540000	0.000000	0.000000	161.000000	32.000000	-99.000000	5.000000
1.310000	65.990000	67.720000	0.000000	0.000000	162.000000	29.000000	-94.000000	18.000000
1.320000	64.890000	67.470000	0.000000	0.000000	162.000000	29.000000	-110.000000	-25.000000
1.330000	63.660000	67.050000	0.000000	0.000000	162.000000	29.000000	-123.000000	-42.000000
1.340000	62.110000	66.530000	0.000000	0.000000	162.000000	29.000000	-155.000000	-52.000000
1.350000	60.150000	65.910000	0.000000	0.000000	161.000000	29.000000	-196.000000	-62.000000
1.360000	57.910000	65.410000	0.000000	0.000000	162.000000	29.000000	-224.000000	-50.000000
1.370000	56.040000	65.000000	0.000000	0.000000	161.000000	30.000000	-187.000000	-41.000000
1.380000	54.610000	64.940000	0.000000	0.000000	159.000000	31.000000	-143.000000	-6.000000
1.390000	53.480000	65.020000	0.000000	0.000000	157.000000	34.000000	-113.000000	8.000000
1.400000	52.580000	65.200000	0.000000	0.000000	154.000000	35.000000	-90.000000	18.000000
1.410000	51.730000	65.470000	0.000000	0.000000	151.000000	36.000000	-85.000000	27.000000
1.420000	51.140000	65.720000	0.000000	0.000000	151.000000	37.000000	-59.000000	25.000000
1.430000	50.710000	65.930000	0.000000	0.000000	149.000000	39.000000	-43.000000	21.000000
1.440000	50.150000	66.130000	0.000000	0.000000	147.000000	40.000000	-56.000000	20.000000
1.450000	49.510000	66.210000	0.000000	0.000000	146.000000	41.000000	-64.000000	8.000000
1.460000	48.810000	66.210000	0.000000	0.000000	144.000000	42.000000	-70.000000	0.000000
1.470000	48.360000	66.580000	0.000000	0.000000	142.000000	42.000000	-45.000000	37.000000
1.480000	48.780000	67.130000	0.000000	0.000000	141.000000	43.000000	42.000000	55.000000
1.490000	49.780000	67.800000	0.000000	0.000000	140.000000	45.000000	100.000000	67.000000
1.500000	50.750000	68.360000	0.000000	0.000000	140.000000	46.000000	97.000000	56.000000
1.510000	51.260000	68.500000	0.000000	0.000000	139.000000	47.000000	51.000000	14.000000
1.520000	51.460000	68.370000	0.000000	0.000000	140.000000	48.000000	20.000000	-13.000000
1.530000	51.300000	68.090000	0.000000	0.000000	139.000000	48.000000	-16.000000	-28.000000
1.540000	51.110000	67.570000	0.000000	0.000000	140.000000	48.000000	-19.000000	-52.000000
1.550000	50.910000	66.890000	0.000000	0.000000	140.000000	48.000000	-20.000000	-68.000000
1.560000	50.630000	66.230000	0.000000	0.000000	142.000000	47.000000	-28.000000	-66.000000
1.570000	50.390000	65.560000	0.000000	0.000000	140.000000	47.000000	-24.000000	-67.000000
1.580000	50.390000	65.220000	0.000000	0.000000	141.000000	46.000000	0.000000	-34.000000
1.590000	50.570000	65.090000	0.000000	0.000000	140.000000	46.000000	18.000000	-13.000000
1.600000	50.740000	65.240000	0.000000	0.000000	140.000000	46.000000	17.000000	15.000000
1.610000	50.850000	65.370000	0.000000	0.000000	140.000000	46.000000	11.000000	13.000000
1.620000	50.910000	65.500000	0.000000	0.000000	140.000000	47.000000	6.000000	13.000000
1.630000	51.030000	65.600000	0.000000	0.000000	139.000000	47.000000	12.000000	10.000000
1.640000	51.150000	65.550000	0.000000	0.000000	139.000000	48.000000	12.000000	-5.000000
1.650000	51.300000	65.390000	0.000000	0.000000	139.000000	48.000000	15.000000	-16.000000
1.660000	51.670000	65.220000	0.000000	0.000000	139.000000	48.000000	37.000000	-17.000000
1.670000	52.180000	65.150000	0.000000	0.000000	139.000000	48.000000	51.000000	-7.000000
1.680000	52.850000	65.150000	0.000000	0.000000	139.000000	48.000000	67.000000	0.000000
1.690000	53.560000	65.150000	0.000000	0.000000	139.000000	48.000000	71.000000	0.000000
1.700000	54.370000	65.310000	0.000000	0.000000	141.000000	49.000000	81.000000	16.000000
1.710000	55.250000	65.510000	0.000000	0.000000	141.000000	49.000000	88.000000	20.000000
1.720000	56.080000	65.700000	0.000000	0.000000	141.000000	49.000000	83.000000	19.000000
1.730000	56.700000	65.860000	0.000000	0.000000	142.000000	49.000000	62.000000	16.000000
1.740000	57.200000	65.950000	0.000000	0.000000	143.000000	49.000000	50.000000	9.000000
1.750000	57.370000	66.010000	0.000000	0.000000	144.000000	49.000000	17.000000	6.000000
1.760000	57.450000	66.010000	0.000000	0.000000	145.000000	50.000000	8.000000	0.000000
1.770000	57.450000	66.010000	0.000000	0.000000	145.000000	50.000000	0.000000	0.000000
1.780000	57.450000	66.010000	0.000000	0.000000	145.000000	51.000000	0.000000	0.000000
1.790000	57.330000	66.010000	0.000000	0.000000	147.000000	51.000000	-12.000000	0.000000
1.800000	57.200000	66.010000	0.000000	0.000000	147.000000	51.000000	-13.000000	0.000000
1.810000	57.030000	66.070000	0.000000	0.000000	147.000000	51.000000	-17.000000	6.000000
1.820000	57.030000	66.070000	0.000000	0.000000	147.000000	51.000000	0.000000	0.000000
1.830000	57.030000	66.070000	0.000000	0.000000	147.000000	51.000000	0.000000	0.000000
1.840000	56.820000	66.450000	0.000000	0.000000	147.000000	51.000000	-21.000000	38.000000
1.850000	57.010000	66.610000	0.000000	0.000000	147.000000	51.000000	19.000000	16.000000
1.860000	57.280000	66.750000	0.000000	0.000000	147.000000	51.000000	27.000000	14.000000
1.870000	57.570000	66.910000	0.000000	0.000000	146.000000	52.000000	29.000000	16.000000
1.880000	57.860000	67.080000	0.000000	0.000000	146.000000	52.000000	29.000000	17.000000
1.890000	58.100000	67.210000	0.000000	0.000000	146.000000	52.000000	24.000000	13.000000
1.900000	58.300000	67.310000	0.000000	0.000000	144.000000	51.000000	20.000000	10.000000
1.910000	58.420000	67.370000	0.000000	0.000000	143.000000	52.000000	12.000000	6.000000
1.920000	58.420000	67.370000	0.000000	0.000000	143.000000	52.000000	0.000000	0.000000
1.930000	58.420000	67.420000	0.000000	0.000000	142.000000	52.000000	0.000000	5.000000
1.940000	58.420000	67.470000	0.000000	0.000000	142.000000	52.000000	0.000000	5.000000
1.950000	58.370000	67.540000	0.000000	0.000000	142.000000	52.000000	-5.000000	7.000000
1.960000	58.370000	67.540000	0.000000	0.000000	142.000000	52.000000	0.000000	0.000000
1.970000	58.240000	67.620000	0.000000	0.000000	143.000000	52.000000	-13.000000	8.000000
1.980000	58.110000	67.620000	0.000000	0.000000	143.000000	52.000000	-13.000000	0.000000
1.990000	58.030000	67.680000	0.000000	0.000000	143.000000	52.000000	-8.000000	6.000000
2.000000	58.030000	67.760000	0.000000	0.000000	143.000000	52.000000	0.000000	8.000000
2.010000	58.030000	67.860000	0.000000	0.000000	143.000000	52.000000	0.000000	10.000000
2.020000	58.150000	68.010000	0.000000	0.000000	142.000000	52.000000	12.000000	15.000000
2.030000	58.270000	68.180000	0.000000	0.000000	142.000000	52.000000	12.000000	17.000000
2.040000	58.410000	68.360000	0.000000	0.000000	142.000000	52.000000	14.000000	18.000000
2.050000	58.500000	68.530000	0.000000	0.000000	142.000000	52.000000	9.000000	17.000000
2.060000	58.500000	68.530000	53.000000	1.000000	142.000000	52.000000	0.000000	0.000000
2.070000	58.550000	68.920000	90.000000	0.000000	142.000000	52.000000	5.000000	39.000000
2.080000	58.550000	69.180000	137.000000	0.000000	143.000000	51.000000	0.000000	26.000000
2.090000	58.640000	69.410000	161.000000	0.000000	143.000000	51.000000	9.000000	23.000000
2.100000	58.640000	69.470000	193.000000	0.000000	143.000000	51.000000	0.000000	6.000000
2.110000	58.550000	69.470000	207.000000	0.000000	143.000000	51.000000	-9.000000	0.000000
2.120000	58.550000	69.290000	213.000000	0.000000	143.000000	51.000000	0.000000	-18.000000
2.130000	58.410000	68.700000	211.000000	0.000000	143.000000	51.000000	-14.000000	-59.000000
2.140000	58.210000	67.800000	225.000000	0.000000	143.000000	51.000000	-20.000000	-90.000000
2.150000	57.840000	66.750000	239.000000	0.000000	143.000000	51.000000	-37.000000	-105.000000
2.160000	57.480000	65.820000	254.000000	0.000000	142.000000	52.000000	-36.000000	-93.000000
2.170000	57.160000	64.960000	254.000000	0.000000	142.000000	52.000000	-32.000000	-86.000000
2.180000	57.010000	64.320000	256.000000	0.000000	142.000000	52.000000	-15.000000	-64.000000
2.190000	57.010000	63.920000	241.000000	0.000000	141.000000	52.000000	0.000000	-40.000000
2.200000	57.010000	63.690000	254.000000	0.000000	141.000000	52.000000	0.000000	-23.000000
2.210000	57.080000	63.690000	249.000000	0.000000	140.000000	52.000000	7.000000	0.000000
2.220000	57.080000	63.740000	228.000000	0.000000	140.000000	52.000000	0.000000	5.000000
