t	x	y	pressure	penup	azimuth	inclination	v_x	v_y
0.000000	93.720000	52.540000	83.000000	1.000000	157.000000	58.000000	0.000000	0.000000
0.010000	93.670000	52.820000	96.000000	0.000000	159.000000	57.000000	-5.000000	28.000000
0.020000	93.670000	52.980000	122.000000	0.000000	159.000000	57.000000	0.000000	16.000000
0.030000	93.670000	53.090000	203.000000	0.000000	159.000000	57.000000	0.000000	11.000000
0.040000	93.670000	53.190000	223.000000	0.000000	159.000000	57.000000	0.000000	10.000000
0.050000	93.670000	53.190000	249.000000	0.000000	159.000000	57.000000	0.000000	0.000000
0.060000	93.670000	53.110000	330.000000	0.000000	159.000000	57.000000	0.000000	-8.000000
0.070000	93.740000	52.740000	388.000000	0.000000	159.000000	57.000000	7.000000	-37.000000
0.080000	93.850000	52.170000	445.000000	0.000000	159.000000	57.000000	11.000000	-57.000000
0.090000	93.920000	51.390000	513.000000	0.000000	159.000000	57.000000	7.000000	-78.000000
0.100000	93.980000	50.560000	560.000000	0.000000	159.000000	57.000000	6.000000	-83.000000
0.110000	94.110000	49.690000	589.000000	0.000000	158.000000	58.000000	13.000000	-87.000000
0.120000	94.230000	48.850000	616.000000	0.000000	158.000000	58.000000	12.000000	-84.000000
0.130000	94.320000	48.100000	619.000000	0.000000	158.000000	58.000000	9.000000	-75.000000
0.140000	94.400000	47.620000	631.000000	0.000000	159.000000	59.000000	8.000000	-48.000000
0.150000	94.450000	47.330000	636.000000	0.000000	159.000000	59.000000	5.000000	-29.000000
0.160000	94.450000	47.070000	644.000000	0.000000	158.000000	60.000000	0.000000	-26.000000
0.170000	94.340000	46.960000	644.000000	0.000000	159.000000	61.000000	-11.000000	-11.000000
0.180000	94.340000	46.960000	630.000000	0.000000	159.000000	61.000000	0.000000	0.000000
0.190000	94.340000	46.960000	580.000000	0.000000	158.000000	62.000000	0.000000	0.000000
0.200000	94.340000	46.960000	442.000000	0.000000	158.000000	62.000000	0.000000	0.000000
0.210000	94.340000	46.960000	98.000000	0.000000	158.000000	62.000000	0.000000	0.000000
0.220000	94.340000	46.960000	0.000000	1.000000	158.000000	62.000000	0.000000	0.000000
0.230000	94.530000	47.120000	0.000000	0.000000	158.000000	62.000000	19.000000	16.000000
0.240000	94.750000	47.360000	0.000000	0.000000	158.000000	62.000000	22.000000	24.000000
0.250000	94.990000	47.700000	0.000000	0.000000	158.000000	62.000000	24.000000	34.000000
0.260000	95.310000	48.020000	0.000000	0.000000	158.000000	62.000000	32.000000	32.000000
0.270000	95.710000	48.310000	0.000000	0.000000	158.000000	62.000000	40.000000	29.000000
0.280000	96.120000	48.400000	0.000000	0.000000	159.000000	61.000000	41.000000	9.000000
0.290000	96.530000	48.400000	0.000000	0.000000	159.000000	61.000000	41.000000	0.000000
0.300000	96.900000	48.400000	0.000000	0.000000	162.000000	61.000000	37.000000	0.000000
0.310000	97.260000	48.260000	0.000000	0.000000	162.000000	61.000000	36.000000	-14.000000
0.320000	97.520000	48.090000	0.000000	0.000000	162.000000	60.000000	26.000000	-17.000000
0.330000	97.730000	47.930000	0.000000	0.000000	164.000000	60.000000	21.000000	-16.000000
0.340000	97.900000	47.810000	0.000000	0.000000	164.000000	60.000000	17.000000	-12.000000
0.350000	98.020000	47.810000	0.000000	0.000000	164.000000	60.000000	12.000000	0.000000
0.360000	98.020000	47.810000	0.000000	0.000000	166.000000	60.000000	0.000000	0.000000
0.370000	98.020000	47.910000	0.000000	0.000000	165.000000	61.000000	0.000000	10.000000
0.380000	97.910000	48.060000	0.000000	0.000000	165.000000	61.000000	-11.000000	15.000000
0.390000	97.840000	48.240000	0.000000	0.000000	165.000000	61.000000	-7.000000	18.000000
0.400000	97.770000	48.380000	0.000000	0.000000	165.000000	62.000000	-7.000000	14.000000
0.410000	97.770000	48.540000	0.000000	0.000000	162.000000	63.000000	0.000000	16.000000
0.420000	97.770000	48.710000	0.000000	0.000000	160.000000	63.000000	0.000000	17.000000
0.430000	97.890000	48.920000	0.000000	0.000000	160.000000	63.000000	12.000000	21.000000
0.440000	97.980000	49.170000	0.000000	0.000000	158.000000	62.000000	9.000000	25.000000
0.450000	98.030000	49.410000	0.000000	0.000000	158.000000	62.000000	5.000000	24.000000
0.460000	98.030000	49.630000	0.000000	0.000000	155.000000	63.000000	0.000000	22.000000
0.470000	98.030000	49.790000	0.000000	0.000000	155.000000	63.000000	0.000000	16.000000
0.480000	98.030000	49.930000	0.000000	0.000000	155.000000	63.000000	0.000000	14.000000
0.490000	98.030000	49.930000	55.000000	1.000000	155.000000	63.000000	0.000000	0.000000
0.500000	98.030000	49.930000	76.000000	0.000000	156.000000	62.000000	0.000000	0.000000
0.510000	97.880000	50.290000	134.000000	0.000000	156.000000	62.000000	-15.000000	36.000000
0.520000	97.740000	50.370000	184.000000	0.000000	156.000000	62.000000	-14.000000	8.000000
0.530000	97.540000	50.440000	213.000000	0.000000	157.000000	61.000000	-20.000000	7.000000
0.540000	97.300000	50.440000	230.000000	0.000000	157.000000	61.000000	-24.000000	0.000000
0.550000	96.980000	50.440000	239.000000	0.000000	157.000000	61.000000	-32.000000	0.000000
0.560000	96.620000	50.260000	249.000000	0.000000	157.000000	60.000000	-36.000000	-18.000000
0.570000	96.220000	50.010000	260.000000	0.000000	157.000000	60.000000	-40.000000	-25.000000
0.580000	95.990000	49.800000	264.000000	0.000000	157.000000	60.000000	-23.000000	-21.000000
0.590000	95.800000	49.580000	262.000000	0.000000	157.000000	60.000000	-19.000000	-22.000000
0.600000	95.800000	49.440000	284.000000	0.000000	157.000000	60.000000	0.000000	-14.000000
0.610000	95.930000	49.350000	284.000000	0.000000	154.000000	60.000000	13.000000	-9.000000
0.620000	96.250000	49.080000	291.000000	0.000000	154.000000	60.000000	32.000000	-27.000000
0.630000	96.600000	48.810000	304.000000	0.000000	154.000000	60.000000	35.000000	-27.000000
0.640000	96.980000	48.550000	306.000000	0.000000	153.000000	61.000000	38.000000	-26.000000
0.650000	97.350000	48.270000	305.000000	0.000000	153.000000	61.000000	37.000000	-28.000000
0.660000	97.530000	47.980000	315.000000	0.000000	155.000000	62.000000	18.000000	-29.000000
0.670000	97.580000	47.770000	351.000000	0.000000	155.000000	62.000000	5.000000	-21.000000
0.680000	97.490000	47.620000	363.000000	0.000000	155.000000	62.000000	-9.000000	-15.000000
0.690000	97.210000	47.460000	356.000000	0.000000	156.000000	62.000000	-28.000000	-16.000000
0.700000	96.790000	47.340000	335.000000	0.000000	156.000000	62.000000	-42.000000	-12.000000
0.710000	96.500000	47.340000	250.000000	0.000000	156.000000	62.000000	-29.000000	0.000000
0.720000	96.250000	47.290000	55.000000	0.000000	158.000000	62.000000	-25.000000	-5.000000
0.730000	96.250000	47.290000	0.000000	1.000000	158.000000	62.000000	0.000000	0.000000
0.740000	96.080000	47.450000	0.000000	0.000000	158.000000	62.000000	-17.000000	16.000000
0.750000	96.260000	47.610000	0.000000	0.000000	158.000000	62.000000	18.000000	16.000000
0.760000	96.650000	47.940000	0.000000	0.000000	158.000000	62.000000	39.000000	33.000000
0.770000	97.050000	48.270000	0.000000	0.000000	158.000000	62.000000	40.000000	33.000000
0.780000	97.470000	48.580000	0.000000	0.000000	158.000000	62.000000	42.000000	31.000000
0.790000	97.840000	48.830000	0.000000	0.000000	157.000000	63.000000	37.000000	25.000000
0.800000	98.180000	48.970000	0.000000	0.000000	157.000000	63.000000	34.000000	14.000000
0.810000	98.540000	49.060000	0.000000	0.000000	157.000000	63.000000	36.000000	9.000000
0.820000	98.840000	49.060000	0.000000	0.000000	157.000000	63.000000	30.000000	0.000000
0.830000	99.100000	49.130000	0.000000	0.000000	156.000000	64.000000	26.000000	7.000000
0.840000	99.310000	49.130000	0.000000	0.000000	156.000000	64.000000	21.000000	0.000000
0.850000	99.380000	49.130000	0.000000	0.000000	158.000000	64.000000	7.000000	0.000000
0.860000	99.380000	49.230000	0.000000	0.000000	158.000000	64.000000	0.000000	10.000000
0.870000	99.280000	49.320000	0.000000	0.000000	158.000000	64.000000	-10.000000	9.000000
0.880000	99.200000	49.320000	0.000000	0.000000	158.000000	64.000000	-8.000000	0.000000
0.890000	99.200000	49.320000	158.000000	1.000000	159.000000	64.000000	0.000000	0.000000
0.900000	99.200000	49.320000	217.000000	0.000000	159.000000	64.000000	0.000000	0.000000
0.910000	99.200000	49.320000	239.000000	0.000000	157.000000	63.000000	0.000000	0.000000
0.920000	99.200000	49.320000	344.000000	0.000000	157.000000	63.000000	0.000000	0.000000
0.930000	99.200000	49.320000	382.000000	0.000000	158.000000	62.000000	0.000000	0.000000
0.940000	99.480000	48.750000	418.000000	0.000000	158.000000	62.000000	28.000000	-57.000000
0.950000	99.570000	48.340000	444.000000	0.000000	158.000000	62.000000	9.000000	-41.000000
0.960000	99.620000	47.960000	449.000000	0.000000	158.000000	62.000000	5.000000	-38.000000
0.970000	99.620000	47.810000	443.000000	0.000000	158.000000	62.000000	0.000000	-15.000000
0.980000	99.620000	47.810000	468.000000	0.000000	158.000000	62.000000	0.000000	0.000000
0.990000	99.620000	47.810000	465.000000	0.000000	158.000000	62.000000	0.000000	0.000000
1.000000	99.560000	47.810000	467.000000	0.000000	160.000000	63.000000	-6.000000	0.000000
1.010000	99.560000	47.950000	450.000000	0.000000	160.000000	63.000000	0.000000	14.000000
1.020000	99.560000	48.160000	443.000000	0.000000	160.000000	63.000000	0.000000	21.000000
1.030000	99.690000	48.640000	420.000000	0.000000	160.000000	63.000000	13.000000	48.000000
1.040000	99.950000	49.090000	334.000000	0.000000	162.000000	63.000000	26.000000	45.000000
1.050000	100.360000	49.360000	141.000000	0.000000	163.000000	62.000000	41.000000	27.000000
1.060000	100.360000	49.360000	0.000000	1.000000	163.000000	62.000000	0.000000	0.000000
1.070000	101.200000	49.570000	0.000000	0.000000	164.000000	63.000000	84.000000	21.000000
1.080000	101.630000	49.640000	0.000000	0.000000	164.000000	63.000000	43.000000	7.000000
1.090000	102.020000	49.730000	0.000000	0.000000	164.000000	63.000000	39.000000	9.000000
1.100000	102.370000	49.780000	0.000000	0.000000	164.000000	63.000000	35.000000	5.000000
1.110000	102.840000	49.860000	0.000000	0.000000	162.000000	63.000000	47.000000	8.000000
1.120000	103.340000	49.960000	0.000000	0.000000	162.000000	63.000000	50.000000	10.000000
1.130000	103.900000	50.060000	0.000000	0.000000	160.000000	63.000000	56.000000	10.000000
1.140000	104.320000	50.060000	0.000000	0.000000	160.000000	63.000000	42.000000	0.000000
1.150000	104.650000	50.110000	0.000000	0.000000	159.000000	64.000000	33.000000	5.000000
1.160000	104.720000	50.050000	0.000000	0.000000	157.000000	63.000000	7.000000	-6.000000
1.170000	104.720000	50.000000	0.000000	0.000000	157.000000	63.000000	0.000000	-5.000000
1.180000	104.570000	50.070000	0.000000	0.000000	157.000000	63.000000	-15.000000	7.000000
1.190000	104.450000	50.220000	0.000000	0.000000	155.000000	63.000000	-12.000000	15.000000
1.200000	104.260000	50.330000	0.000000	0.000000	155.000000	63.000000	-19.000000	11.000000
1.210000	104.010000	50.400000	0.000000	0.000000	156.000000	62.000000	-25.000000	7.000000
1.220000	103.810000	50.400000	0.000000	0.000000	156.000000	62.000000	-20.000000	0.000000
1.230000	103.630000	50.330000	0.000000	0.000000	156.000000	62.000000	-18.000000	-7.000000
1.240000	103.520000	50.270000	0.000000	0.000000	158.000000	62.000000	-11.000000	-6.000000
1.250000	103.470000	50.270000	0.000000	0.000000	158.000000	62.000000	-5.000000	0.000000
1.260000	103.470000	50.270000	0.000000	0.000000	158.000000	62.000000	0.000000	0.000000
1.270000	103.470000	50.270000	29.000000	1.000000	158.000000	62.000000	0.000000	0.000000
1.280000	103.470000	50.270000	36.000000	0.000000	158.000000	62.000000	0.000000	0.000000
1.290000	103.470000	50.270000	51.000000	0.000000	161.000000	62.000000	0.000000	0.000000
1.300000	103.720000	50.380000	124.000000	0.000000	161.000000	62.000000	25.000000	11.000000
1.310000	103.790000	50.280000	181.000000	0.000000	161.000000	62.000000	7.000000	-10.000000
1.320000	103.840000	50.050000	220.000000	0.000000	161.000000	62.000000	5.000000	-23.000000
1.330000	103.840000	49.760000	250.000000	0.000000	161.000000	62.000000	0.000000	-29.000000
1.340000	103.670000	49.390000	282.000000	0.000000	161.000000	62.000000	-17.000000	-37.000000
1.350000	103.490000	49.060000	294.000000	0.000000	161.000000	62.000000	-18.000000	-33.000000
1.360000	103.170000	48.750000	301.000000	0.000000	160.000000	63.000000	-32.000000	-31.000000
1.370000	102.780000	48.460000	277.000000	0.000000	160.000000	63.000000	-39.000000	-29.000000
1.380000	102.350000	48.280000	267.000000	0.000000	160.000000	63.000000	-43.000000	-18.000000
1.390000	101.930000	48.180000	219.000000	0.000000	162.000000	63.000000	-42.000000	-10.000000
1.400000	101.520000	48.180000	175.000000	0.000000	162.000000	63.000000	-41.000000	0.000000
1.410000	101.110000	48.260000	142.000000	0.000000	162.000000	63.000000	-41.000000	8.000000
1.420000	100.850000	48.470000	139.000000	0.000000	162.000000	63.000000	-26.000000	21.000000
1.430000	100.760000	48.720000	142.000000	0.000000	162.000000	63.000000	-9.000000	25.000000
1.440000	100.760000	48.970000	131.000000	0.000000	164.000000	63.000000	0.000000	25.000000
1.450000	100.950000	49.180000	167.000000	0.000000	164.000000	63.000000	19.000000	21.000000
1.460000	101.150000	49.370000	183.000000	0.000000	164.000000	63.000000	20.000000	19.000000
1.470000	101.440000	49.520000	220.000000	0.000000	164.000000	63.000000	29.000000	15.000000
1.480000	101.770000	49.610000	260.000000	0.000000	164.000000	63.000000	33.000000	9.000000
1.490000	102.170000	49.490000	309.000000	0.000000	164.000000	63.000000	40.000000	-12.000000
1.500000	102.600000	49.240000	356.000000	0.000000	164.000000	63.000000	43.000000	-25.000000
1.510000	102.970000	48.750000	381.000000	0.000000	164.000000	63.000000	37.000000	-49.000000
1.520000	103.300000	48.250000	389.000000	0.000000	164.000000	63.000000	33.000000	-50.000000
1.530000	103.610000	47.830000	399.000000	0.000000	162.000000	63.000000	31.000000	-42.000000
1.540000	103.840000	47.470000	388.000000	0.000000	162.000000	63.000000	23.000000	-36.000000
1.550000	104.020000	47.240000	394.000000	0.000000	160.000000	63.000000	18.000000	-23.000000
1.560000	104.130000	47.130000	325.000000	0.000000	159.000000	64.000000	11.000000	-11.000000
1.570000	104.190000	47.130000	209.000000	0.000000	157.000000	63.000000	6.000000	0.000000
1.580000	104.190000	47.130000	0.000000	1.000000	157.000000	63.000000	0.000000	0.000000
1.590000	104.190000	47.280000	0.000000	0.000000	155.000000	63.000000	0.000000	15.000000
1.600000	104.070000	47.530000	0.000000	0.000000	155.000000	63.000000	-12.000000	25.000000
1.610000	103.940000	47.720000	0.000000	0.000000	155.000000	63.000000	-13.000000	19.000000
1.620000	103.840000	47.910000	0.000000	0.000000	154.000000	63.000000	-10.000000	19.000000
1.630000	103.680000	48.070000	0.000000	0.000000	154.000000	63.000000	-16.000000	16.000000
1.640000	103.480000	48.210000	0.000000	0.000000	155.000000	62.000000	-20.000000	14.000000
1.650000	103.180000	48.330000	0.000000	0.000000	153.000000	61.000000	-30.000000	12.000000
1.660000	102.750000	48.440000	0.000000	0.000000	153.000000	61.000000	-43.000000	11.000000
1.670000	102.220000	48.580000	0.000000	0.000000	153.000000	61.000000	-53.000000	14.000000
1.680000	101.540000	48.740000	0.000000	0.000000	150.000000	62.000000	-68.000000	16.000000
1.690000	100.590000	48.970000	0.000000	0.000000	150.000000	62.000000	-95.000000	23.000000
1.700000	99.470000	49.070000	0.000000	0.000000	149.000000	63.000000	-112.000000	10.000000
1.710000	98.270000	49.070000	0.000000	0.000000	148.000000	63.000000	-120.000000	0.000000
1.720000	97.110000	49.070000	0.000000	0.000000	145.000000	65.000000	-116.000000	0.000000
1.730000	95.980000	49.070000	0.000000	0.000000	146.000000	66.000000	-113.000000	0.000000
1.740000	94.850000	48.960000	0.000000	0.000000	146.000000	66.000000	-113.000000	-11.000000
1.750000	93.680000	48.960000	0.000000	0.000000	146.000000	66.000000	-117.000000	0.000000
1.760000	92.790000	49.090000	0.000000	0.000000	144.000000	66.000000	-89.000000	13.000000
1.770000	92.090000	49.290000	0.000000	0.000000	145.000000	65.000000	-70.000000	20.000000
1.780000	91.610000	49.480000	0.000000	0.000000	145.000000	65.000000	-48.000000	19.000000
1.790000	91.350000	49.630000	0.000000	0.000000	146.000000	64.000000	-26.000000	15.000000
1.800000	91.240000	49.750000	0.000000	0.000000	146.000000	63.000000	-11.000000	12.000000
1.810000	91.240000	49.860000	0.000000	0.000000	147.000000	62.000000	0.000000	11.000000
1.820000	91.240000	49.990000	0.000000	0.000000	147.000000	61.000000	0.000000	13.000000
1.830000	91.240000	50.120000	0.000000	0.000000	150.000000	60.000000	0.000000	13.000000
1.840000	91.300000	50.270000	0.000000	0.000000	150.000000	60.000000	6.000000	15.000000
1.850000	91.350000	50.410000	0.000000	0.000000	151.000000	60.000000	5.000000	14.000000
1.860000	91.400000	50.500000	0.000000	0.000000	153.000000	59.000000	5.000000	9.000000
1.870000	91.400000	50.590000	0.000000	0.000000	153.000000	59.000000	0.000000	9.000000
1.880000	91.490000	50.660000	0.000000	0.000000	155.000000	60.000000	9.000000	7.000000
1.890000	91.490000	50.720000	0.000000	0.000000	156.000000	59.000000	0.000000	6.000000
1.900000	91.350000	50.770000	0.000000	0.000000	156.000000	59.000000	-14.000000	5.000000
1.910000	91.290000	50.830000	0.000000	0.000000	156.000000	59.000000	-6.000000	6.000000
1.920000	91.230000	50.920000	0.000000	0.000000	158.000000	58.000000	-6.000000	9.000000
1.930000	91.230000	51.020000	0.000000	0.000000	158.000000	58.000000	0.000000	10.000000
1.940000	91.230000	51.020000	0.000000	0.000000	158.000000	58.000000	0.000000	0.000000
1.950000	91.230000	51.020000	0.000000	0.000000	158.000000	58.000000	0.000000	0.000000
1.960000	91.230000	51.020000	0.000000	0.000000	158.000000	58.000000	0.000000	0.000000
1.970000	91.230000	51.020000	0.000000	0.000000	159.000000	57.000000	0.000000	0.000000
1.980000	91.100000	51.380000	0.000000	0.000000	159.000000	57.000000	-13.000000	36.000000
1.990000	91.030000	51.510000	0.000000	0.000000	159.000000	57.000000	-7.000000	13.000000
2.000000	90.950000	51.670000	0.000000	0.000000	161.000000	57.000000	-8.000000	16.000000
2.010000	90.860000	51.840000	0.000000	0.000000	161.000000	57.000000	-9.000000	17.000000
2.020000	90.740000	52.030000	0.000000	0.000000	161.000000	57.000000	-12.000000	19.000000
2.030000	90.670000	52.130000	0.000000	0.000000	161.000000	57.000000	-7.000000	10.000000
2.040000	90.670000	52.180000	0.000000	0.000000	161.000000	57.000000	0.000000	5.000000
2.050000	90.670000	52.180000	0.000000	0.000000	161.000000	57.000000	0.000000	0.000000
2.060000	90.720000	52.130000	0.000000	0.000000	161.000000	57.000000	5.000000	-5.000000
2.070000	90.800000	52.130000	0.000000	0.000000	161.000000	57.000000	8.000000	0.000000
2.080000	90.800000	52.210000	0.000000	0.000000	163.000000	57.000000	0.000000	8.000000
2.090000	90.860000	52.330000	0.000000	0.000000	163.000000	57.000000	6.000000	12.000000
2.100000	90.860000	52.430000	0.000000	0.000000	163.000000	57.000000	0.000000	10.000000
2.110000	90.790000	52.490000	0.000000	0.000000	164.000000	57.000000	-7.000000	6.000000
2.120000	90.790000	52.490000	0.000000	0.000000	164.000000	57.000000	0.000000	0.000000
2.130000	90.790000	52.490000	46.000000	1.000000	164.000000	57.000000	0.000000	0.000000
2.140000	90.790000	52.490000	80.000000	0.000000	164.000000	57.000000	0.000000	0.000000
2.150000	90.790000	52.490000	101.000000	0.000000	164.000000	57.000000	0.000000	0.000000
2.160000	90.790000	52.490000	148.000000	0.000000	164.000000	57.000000	0.000000	0.000000
2.170000	90.790000	52.490000	179.000000	0.000000	164.000000	57.000000	0.000000	0.000000
2.180000	90.790000	52.490000	196.000000	0.000000	164.000000	57.000000	0.000000	0.000000
2.190000	90.880000	52.190000	212.000000	0.000000	164.000000	57.000000	9.000000	-30.000000
2.200000	91.100000	51.890000	212.000000	0.000000	164.000000	57.000000	22.000000	-30.000000
2.210000	91.390000	51.510000	254.000000	0.000000	164.000000	57.000000	29.000000	-38.000000
2.220000	91.700000	51.060000	277.000000	0.000000	164.000000	57.000000	31.000000	-45.000000
2.230000	92.030000	50.510000	302.000000	0.000000	164.000000	58.000000	33.000000	-55.000000
