t	x	y	pressure	penup	azimuth	inclination	v_x	v_y
0.000000	96.020000	33.980000	233.000000	1.000000	131.000000	57.000000	0.000000	0.000000
0.010000	95.530000	34.130000	334.000000	0.000000	131.000000	57.000000	-49.000000	15.000000
0.020000	95.580000	34.130000	495.000000	0.000000	130.000000	58.000000	5.000000	0.000000
0.030000	95.580000	34.130000	569.000000	0.000000	130.000000	58.000000	0.000000	0.000000
0.040000	95.510000	34.130000	617.000000	0.000000	131.000000	58.000000	-7.000000	0.000000
0.050000	95.510000	34.080000	668.000000	0.000000	131.000000	58.000000	0.000000	-5.000000
0.060000	95.510000	33.740000	705.000000	0.000000	131.000000	58.000000	0.000000	-34.000000
0.070000	95.620000	33.210000	728.000000	0.000000	131.000000	58.000000	11.000000	-53.000000
0.080000	95.720000	32.560000	754.000000	0.000000	131.000000	58.000000	10.000000	-65.000000
0.090000	95.830000	31.720000	790.000000	0.000000	131.000000	58.000000	11.000000	-84.000000
0.100000	95.920000	30.760000	800.000000	0.000000	131.000000	58.000000	9.000000	-96.000000
0.110000	96.050000	29.890000	827.000000	0.000000	130.000000	58.000000	13.000000	-87.000000
0.120000	96.220000	28.990000	836.000000	0.000000	128.000000	58.000000	17.000000	-90.000000
0.130000	96.350000	28.190000	843.000000	0.000000	128.000000	58.000000	13.000000	-80.000000
0.140000	96.480000	27.460000	851.000000	0.000000	127.000000	57.000000	13.000000	-73.000000
0.150000	96.590000	26.830000	852.000000	0.000000	126.000000	58.000000	11.000000	-63.000000
0.160000	96.640000	26.470000	852.000000	0.000000	124.000000	58.000000	5.000000	-36.000000
0.170000	96.640000	26.280000	827.000000	0.000000	123.000000	59.000000	0.000000	-19.000000
0.180000	96.640000	26.220000	796.000000	0.000000	121.000000	59.000000	0.000000	-6.000000
0.190000	96.640000	26.300000	684.000000	0.000000	120.000000	60.000000	0.000000	8.000000
0.200000	96.640000	26.480000	373.000000	0.000000	119.000000	61.000000	0.000000	18.000000
0.210000	96.640000	26.480000	0.000000	1.000000	119.000000	61.000000	0.000000	0.000000
0.220000	96.650000	27.410000	0.000000	0.000000	117.000000	61.000000	1.000000	93.000000
0.230000	96.760000	27.930000	0.000000	0.000000	117.000000	61.000000	11.000000	52.000000
0.240000	96.940000	28.420000	0.000000	0.000000	119.000000	61.000000	18.000000	49.000000
0.250000	97.190000	28.860000	0.000000	0.000000	119.000000	61.000000	25.000000	44.000000
0.260000	97.520000	29.200000	0.000000	0.000000	119.000000	60.000000	33.000000	34.000000
0.270000	97.920000	29.490000	0.000000	0.000000	121.000000	59.000000	40.000000	29.000000
0.280000	98.350000	29.730000	0.000000	0.000000	124.000000	60.000000	43.000000	24.000000
0.290000	98.790000	29.970000	0.000000	0.000000	125.000000	59.000000	44.000000	24.000000
0.300000	99.100000	30.180000	0.000000	0.000000	125.000000	59.000000	31.000000	21.000000
0.310000	99.320000	30.370000	0.000000	0.000000	128.000000	59.000000	22.000000	19.000000
0.320000	99.320000	30.370000	218.000000	1.000000	128.000000	59.000000	0.000000	0.000000
0.330000	99.460000	30.740000	301.000000	0.000000	129.000000	60.000000	14.000000	37.000000
0.340000	99.380000	30.910000	392.000000	0.000000	131.000000	60.000000	-8.000000	17.000000
0.350000	99.330000	31.050000	491.000000	0.000000	131.000000	60.000000	-5.000000	14.000000
0.360000	99.170000	31.180000	574.000000	0.000000	131.000000	60.000000	-16.000000	13.000000
0.370000	98.930000	31.250000	611.000000	0.000000	132.000000	59.000000	-24.000000	7.000000
0.380000	98.770000	31.310000	659.000000	0.000000	132.000000	59.000000	-16.000000	6.000000
0.390000	98.550000	31.310000	668.000000	0.000000	131.000000	58.000000	-22.000000	0.000000
0.400000	98.300000	31.250000	690.000000	0.000000	131.000000	58.000000	-25.000000	-6.000000
0.410000	97.970000	31.060000	699.000000	0.000000	132.000000	58.000000	-33.000000	-19.000000
0.420000	97.690000	30.870000	690.000000	0.000000	132.000000	58.000000	-28.000000	-19.000000
0.430000	97.690000	30.680000	699.000000	0.000000	132.000000	58.000000	0.000000	-19.000000
0.440000	97.740000	30.500000	702.000000	0.000000	132.000000	58.000000	5.000000	-18.000000
0.450000	97.920000	30.290000	697.000000	0.000000	130.000000	58.000000	18.000000	-21.000000
0.460000	98.160000	30.070000	699.000000	0.000000	130.000000	58.000000	24.000000	-22.000000
0.470000	98.610000	29.870000	697.000000	0.000000	130.000000	58.000000	45.000000	-20.000000
0.480000	99.170000	29.660000	696.000000	0.000000	130.000000	58.000000	56.000000	-21.000000
0.490000	99.660000	29.460000	696.000000	0.000000	130.000000	58.000000	49.000000	-20.000000
0.500000	99.990000	29.200000	693.000000	0.000000	129.000000	59.000000	33.000000	-26.000000
0.510000	100.220000	28.890000	693.000000	0.000000	129.000000	59.000000	23.000000	-31.000000
0.520000	100.300000	28.570000	697.000000	0.000000	131.000000	60.000000	8.000000	-32.000000
0.530000	100.240000	28.270000	694.000000	0.000000	131.000000	60.000000	-6.000000	-30.000000
0.540000	100.090000	28.010000	694.000000	0.000000	131.000000	61.000000	-15.000000	-26.000000
0.550000	99.640000	27.780000	691.000000	0.000000	131.000000	61.000000	-45.000000	-23.000000
0.560000	99.200000	27.590000	696.000000	0.000000	131.000000	61.000000	-44.000000	-19.000000
0.570000	98.760000	27.640000	691.000000	0.000000	129.000000	61.000000	-44.000000	5.000000
0.580000	98.300000	27.730000	682.000000	0.000000	128.000000	61.000000	-46.000000	9.000000
0.590000	97.900000	27.860000	616.000000	0.000000	128.000000	61.000000	-40.000000	13.000000
0.600000	97.710000	28.060000	492.000000	0.000000	126.000000	60.000000	-19.000000	20.000000
0.610000	97.650000	28.240000	161.000000	0.000000	126.000000	60.000000	-6.000000	18.000000
0.620000	97.650000	28.240000	0.000000	1.000000	125.000000	59.000000	0.000000	0.000000
0.630000	97.870000	28.600000	0.000000	0.000000	125.000000	59.000000	22.000000	36.000000
0.640000	98.130000	28.790000	0.000000	0.000000	125.000000	59.000000	26.000000	19.000000
0.650000	98.530000	28.990000	0.000000	0.000000	125.000000	59.000000	40.000000	20.000000
0.660000	98.970000	29.200000	0.000000	0.000000	125.000000	59.000000	44.000000	21.000000
0.670000	99.450000	29.440000	0.000000	0.000000	125.000000	59.000000	48.000000	24.000000
0.680000	99.940000	29.700000	0.000000	0.000000	125.000000	59.000000	49.000000	26.000000
0.690000	100.310000	29.970000	0.000000	0.000000	125.000000	59.000000	37.000000	27.000000
0.700000	100.600000	30.250000	0.000000	0.000000	125.000000	59.000000	29.000000	28.000000
0.710000	100.720000	30.510000	0.000000	0.000000	127.000000	59.000000	12.000000	26.000000
0.720000	100.720000	30.740000	0.000000	0.000000	127.000000	59.000000	0.000000	23.000000
0.730000	100.720000	30.970000	0.000000	0.000000	127.000000	59.000000	0.000000	23.000000
0.740000	100.650000	31.170000	0.000000	0.000000	128.000000	59.000000	-7.000000	20.000000
0.750000	100.650000	31.170000	146.000000	1.000000	129.000000	59.000000	0.000000	0.000000
0.760000	100.490000	31.430000	327.000000	0.000000	129.000000	59.000000	-16.000000	26.000000
0.770000	100.420000	31.510000	389.000000	0.000000	131.000000	60.000000	-7.000000	8.000000
0.780000	100.350000	31.510000	445.000000	0.000000	132.000000	59.000000	-7.000000	0.000000
0.790000	100.350000	31.510000	493.000000	0.000000	134.000000	60.000000	0.000000	0.000000
0.800000	100.460000	31.430000	514.000000	0.000000	134.000000	60.000000	11.000000	-8.000000
0.810000	100.620000	31.230000	515.000000	0.000000	135.000000	60.000000	16.000000	-20.000000
0.820000	100.820000	30.940000	521.000000	0.000000	135.000000	60.000000	20.000000	-29.000000
0.830000	101.040000	30.550000	530.000000	0.000000	135.000000	60.000000	22.000000	-39.000000
0.840000	101.260000	30.120000	530.000000	0.000000	135.000000	60.000000	22.000000	-43.000000
0.850000	101.470000	29.630000	533.000000	0.000000	135.000000	60.000000	21.000000	-49.000000
0.860000	101.630000	29.130000	535.000000	0.000000	135.000000	60.000000	16.000000	-50.000000
0.870000	101.760000	28.670000	537.000000	0.000000	134.000000	61.000000	13.000000	-46.000000
0.880000	101.870000	28.430000	536.000000	0.000000	134.000000	61.000000	11.000000	-24.000000
0.890000	101.870000	28.340000	620.000000	0.000000	134.000000	61.000000	0.000000	-9.000000
0.900000	101.870000	28.340000	665.000000	0.000000	132.000000	61.000000	0.000000	0.000000
0.910000	101.790000	28.520000	725.000000	0.000000	132.000000	61.000000	-8.000000	18.000000
0.920000	101.710000	28.740000	757.000000	0.000000	132.000000	61.000000	-8.000000	22.000000
0.930000	101.630000	29.170000	765.000000	0.000000	132.000000	61.000000	-8.000000	43.000000
0.940000	101.560000	29.650000	793.000000	0.000000	132.000000	61.000000	-7.000000	48.000000
0.950000	101.510000	30.170000	797.000000	0.000000	131.000000	61.000000	-5.000000	52.000000
0.960000	101.510000	30.740000	783.000000	0.000000	132.000000	61.000000	0.000000	57.000000
0.970000	101.640000	31.290000	785.000000	0.000000	132.000000	61.000000	13.000000	55.000000
0.980000	101.780000	31.840000	797.000000	0.000000	132.000000	61.000000	14.000000	55.000000
0.990000	102.000000	32.130000	796.000000	0.000000	134.000000	61.000000	22.000000	29.000000
1.000000	102.280000	32.130000	777.000000	0.000000	134.000000	61.000000	28.000000	0.000000
1.010000	102.440000	32.000000	767.000000	0.000000	134.000000	61.000000	16.000000	-13.000000
1.020000	102.610000	31.800000	736.000000	0.000000	135.000000	60.000000	17.000000	-20.000000
1.030000	102.810000	31.480000	690.000000	0.000000	135.000000	60.000000	20.000000	-32.000000
1.040000	102.990000	31.090000	627.000000	0.000000	135.000000	60.000000	18.000000	-39.000000
1.050000	103.150000	30.860000	443.000000	0.000000	135.000000	60.000000	16.000000	-23.000000
1.060000	103.580000	30.690000	98.000000	0.000000	134.000000	60.000000	43.000000	-17.000000
1.070000	103.580000	30.690000	0.000000	1.000000	132.000000	60.000000	0.000000	0.000000
1.080000	103.370000	30.550000	0.000000	0.000000	132.000000	60.000000	-21.000000	-14.000000
1.090000	103.460000	30.680000	0.000000	0.000000	132.000000	60.000000	9.000000	13.000000
1.100000	103.540000	30.890000	0.000000	0.000000	132.000000	60.000000	8.000000	21.000000
1.110000	103.620000	31.090000	0.000000	0.000000	131.000000	60.000000	8.000000	20.000000
1.120000	103.700000	31.340000	0.000000	0.000000	131.000000	60.000000	8.000000	25.000000
1.130000	103.700000	31.630000	0.000000	0.000000	131.000000	60.000000	0.000000	29.000000
1.140000	103.700000	31.900000	0.000000	0.000000	129.000000	59.000000	0.000000	27.000000
1.150000	103.700000	31.900000	60.000000	1.000000	129.000000	59.000000	0.000000	0.000000
1.160000	103.700000	32.280000	356.000000	0.000000	129.000000	59.000000	0.000000	38.000000
1.170000	103.650000	32.380000	496.000000	0.000000	129.000000	59.000000	-5.000000	10.000000
1.180000	103.650000	32.430000	586.000000	0.000000	131.000000	60.000000	0.000000	5.000000
1.190000	103.650000	32.430000	599.000000	0.000000	131.000000	60.000000	0.000000	0.000000
1.200000	103.650000	32.430000	619.000000	0.000000	131.000000	60.000000	0.000000	0.000000
1.210000	103.650000	32.430000	644.000000	0.000000	131.000000	60.000000	0.000000	0.000000
1.220000	103.970000	32.030000	650.000000	0.000000	131.000000	60.000000	32.000000	-40.000000
1.230000	104.200000	31.710000	653.000000	0.000000	131.000000	60.000000	23.000000	-32.000000
1.240000	104.450000	31.320000	662.000000	0.000000	132.000000	59.000000	25.000000	-39.000000
1.250000	104.710000	30.910000	658.000000	0.000000	132.000000	59.000000	26.000000	-41.000000
1.260000	105.070000	30.560000	656.000000	0.000000	131.000000	60.000000	36.000000	-35.000000
1.270000	105.490000	30.250000	658.000000	0.000000	131.000000	60.000000	42.000000	-31.000000
1.280000	105.710000	30.080000	659.000000	0.000000	131.000000	60.000000	22.000000	-17.000000
1.290000	105.770000	30.010000	667.000000	0.000000	131.000000	60.000000	6.000000	-7.000000
1.300000	105.770000	30.010000	671.000000	0.000000	131.000000	60.000000	0.000000	0.000000
1.310000	105.660000	30.100000	663.000000	0.000000	129.000000	60.000000	-11.000000	9.000000
1.320000	105.450000	30.300000	666.000000	0.000000	129.000000	60.000000	-21.000000	20.000000
1.330000	105.140000	30.570000	669.000000	0.000000	129.000000	60.000000	-31.000000	27.000000
1.340000	104.770000	30.820000	669.000000	0.000000	129.000000	60.000000	-37.000000	25.000000
1.350000	104.310000	30.930000	669.000000	0.000000	129.000000	60.000000	-46.000000	11.000000
1.360000	103.790000	30.930000	669.000000	0.000000	129.000000	60.000000	-52.000000	0.000000
1.370000	103.490000	30.930000	667.000000	0.000000	131.000000	60.000000	-30.000000	0.000000
1.380000	103.270000	30.770000	666.000000	0.000000	131.000000	60.000000	-22.000000	-16.000000
1.390000	103.100000	30.500000	666.000000	0.000000	131.000000	60.000000	-17.000000	-27.000000
1.400000	103.030000	30.160000	664.000000	0.000000	131.000000	60.000000	-7.000000	-34.000000
1.410000	103.130000	29.830000	663.000000	0.000000	131.000000	60.000000	10.000000	-33.000000
1.420000	103.350000	29.510000	671.000000	0.000000	131.000000	60.000000	22.000000	-32.000000
1.430000	103.880000	29.310000	673.000000	0.000000	131.000000	60.000000	53.000000	-20.000000
1.440000	104.440000	29.180000	671.000000	0.000000	131.000000	60.000000	56.000000	-13.000000
1.450000	104.880000	29.260000	668.000000	0.000000	129.000000	60.000000	44.000000	8.000000
1.460000	105.220000	29.440000	664.000000	0.000000	129.000000	60.000000	34.000000	18.000000
1.470000	105.480000	29.690000	664.000000	0.000000	129.000000	60.000000	26.000000	25.000000
1.480000	105.610000	29.940000	662.000000	0.000000	129.000000	60.000000	13.000000	25.000000
1.490000	105.610000	30.260000	664.000000	0.000000	129.000000	60.000000	0.000000	32.000000
1.500000	105.560000	30.620000	664.000000	0.000000	129.000000	60.000000	-5.000000	36.000000
1.510000	105.440000	30.850000	670.000000	0.000000	128.000000	59.000000	-12.000000	23.000000
1.520000	105.300000	31.030000	673.000000	0.000000	128.000000	59.000000	-14.000000	18.000000
1.530000	105.300000	31.030000	682.000000	0.000000	128.000000	59.000000	0.000000	0.000000
1.540000	105.300000	30.960000	699.000000	0.000000	129.000000	59.000000	0.000000	-7.000000
1.550000	105.300000	30.610000	714.000000	0.000000	129.000000	59.000000	0.000000	-35.000000
1.560000	105.400000	30.220000	716.000000	0.000000	129.000000	59.000000	10.000000	-39.000000
1.570000	105.540000	29.870000	717.000000	0.000000	129.000000	59.000000	14.000000	-35.000000
1.580000	105.730000	29.570000	714.000000	0.000000	129.000000	59.000000	19.000000	-30.000000
1.590000	106.030000	29.260000	685.000000	0.000000	128.000000	59.000000	30.000000	-31.000000
1.600000	106.390000	29.010000	614.000000	0.000000	129.000000	60.000000	36.000000	-25.000000
1.610000	106.620000	28.830000	305.000000	0.000000	129.000000	60.000000	23.000000	-18.000000
1.620000	106.620000	28.830000	0.000000	1.000000	128.000000	61.000000	0.000000	0.000000
1.630000	106.690000	28.600000	0.000000	0.000000	128.000000	61.000000	7.000000	-23.000000
1.640000	106.340000	28.600000	0.000000	0.000000	126.000000	61.000000	-35.000000	0.000000
1.650000	105.870000	28.730000	0.000000	0.000000	126.000000	61.000000	-47.000000	13.000000
1.660000	105.300000	28.880000	0.000000	0.000000	126.000000	61.000000	-57.000000	15.000000
1.670000	104.340000	29.030000	0.000000	0.000000	124.000000	62.000000	-96.000000	15.000000
1.680000	103.040000	29.130000	0.000000	0.000000	124.000000	62.000000	-130.000000	10.000000
1.690000	101.520000	29.180000	0.000000	0.000000	123.000000	61.000000	-152.000000	5.000000
1.700000	99.910000	29.180000	0.000000	0.000000	123.000000	61.000000	-161.000000	0.000000
1.710000	98.340000	29.080000	0.000000	0.000000	122.000000	60.000000	-157.000000	-10.000000
1.720000	96.820000	29.080000	0.000000	0.000000	121.000000	59.000000	-152.000000	0.000000
1.730000	95.640000	29.160000	0.000000	0.000000	120.000000	58.000000	-118.000000	8.000000
1.740000	94.690000	29.270000	0.000000	0.000000	120.000000	58.000000	-95.000000	11.000000
1.750000	93.880000	29.500000	0.000000	0.000000	119.000000	58.000000	-81.000000	23.000000
1.760000	93.270000	29.800000	0.000000	0.000000	119.000000	56.000000	-61.000000	30.000000
1.770000	92.800000	30.120000	0.000000	0.000000	119.000000	56.000000	-47.000000	32.000000
1.780000	92.510000	30.490000	0.000000	0.000000	120.000000	55.000000	-29.000000	37.000000
1.790000	92.450000	30.890000	0.000000	0.000000	121.000000	55.000000	-6.000000	40.000000
1.800000	92.530000	31.320000	0.000000	0.000000	123.000000	55.000000	8.000000	43.000000
1.810000	92.730000	31.760000	0.000000	0.000000	125.000000	55.000000	20.000000	44.000000
1.820000	92.730000	31.760000	193.000000	1.000000	126.000000	54.000000	0.000000	0.000000
1.830000	93.530000	32.200000	246.000000	0.000000	126.000000	54.000000	80.000000	44.000000
1.840000	93.680000	32.430000	320.000000	0.000000	127.000000	55.000000	15.000000	23.000000
1.850000	93.740000	32.860000	410.000000	0.000000	130.000000	55.000000	6.000000	43.000000
1.860000	93.740000	32.780000	472.000000	0.000000	131.000000	56.000000	0.000000	-8.000000
1.870000	93.740000	32.380000	527.000000	0.000000	131.000000	56.000000	0.000000	-40.000000
1.880000	93.800000	31.780000	578.000000	0.000000	132.000000	57.000000	6.000000	-60.000000
1.890000	93.900000	30.970000	613.000000	0.000000	132.000000	57.000000	10.000000	-81.000000
1.900000	94.030000	29.720000	619.000000	0.000000	132.000000	57.000000	13.000000	-125.000000
1.910000	94.300000	28.180000	636.000000	0.000000	131.000000	57.000000	27.000000	-154.000000
1.920000	94.670000	26.870000	655.000000	0.000000	131.000000	57.000000	37.000000	-131.000000
1.930000	94.990000	25.820000	666.000000	0.000000	130.000000	58.000000	32.000000	-105.000000
1.940000	95.370000	24.940000	682.000000	0.000000	128.000000	58.000000	38.000000	-88.000000
1.950000	95.700000	24.280000	694.000000	0.000000	127.000000	59.000000	33.000000	-66.000000
1.960000	95.960000	23.890000	694.000000	0.000000	125.000000	59.000000	26.000000	-39.000000
1.970000	96.100000	23.690000	691.000000	0.000000	125.000000	60.000000	14.000000	-20.000000
1.980000	96.100000	23.690000	727.000000	0.000000	123.000000	61.000000	0.000000	0.000000
1.990000	96.050000	23.850000	728.000000	0.000000	122.000000	61.000000	-5.000000	16.000000
2.000000	95.830000	24.130000	725.000000	0.000000	122.000000	61.000000	-22.000000	28.000000
2.010000	95.420000	24.590000	724.000000	0.000000	122.000000	61.000000	-41.000000	46.000000
2.020000	94.880000	25.120000	727.000000	0.000000	122.000000	61.000000	-54.000000	53.000000
2.030000	94.110000	25.710000	719.000000	0.000000	122.000000	61.000000	-77.000000	59.000000
2.040000	93.030000	26.130000	717.000000	0.000000	123.000000	62.000000	-108.000000	42.000000
2.050000	91.750000	26.210000	696.000000	0.000000	123.000000	62.000000	-128.000000	8.000000
2.060000	90.390000	26.070000	697.000000	0.000000	123.000000	62.000000	-136.000000	-14.000000
2.070000	88.900000	25.850000	705.000000	0.000000	123.000000	62.000000	-149.000000	-22.000000
2.080000	87.310000	25.610000	713.000000	0.000000	123.000000	62.000000	-159.000000	-24.000000
2.090000	86.430000	25.360000	710.000000	0.000000	123.000000	62.000000	-88.000000	-25.000000
2.100000	86.080000	25.230000	702.000000	0.000000	123.000000	62.000000	-35.000000	-13.000000
2.110000	86.080000	25.180000	697.000000	0.000000	122.000000	61.000000	0.000000	-5.000000
2.120000	86.740000	25.180000	694.000000	0.000000	122.000000	61.000000	66.000000	0.000000
2.130000	88.130000	25.400000	699.000000	0.000000	122.000000	61.000000	139.000000	22.000000
2.140000	90.010000	25.800000	711.000000	0.000000	120.000000	60.000000	188.000000	40.000000
2.150000	92.400000	26.560000	724.000000	0.000000	123.000000	61.000000	239.000000	76.000000
2.160000	95.170000	27.420000	727.000000	0.000000	123.000000	61.000000	277.000000	86.000000
2.170000	98.200000	28.340000	737.000000	0.000000	125.000000	60.000000	303.000000	92.000000
2.180000	101.170000	29.130000	725.000000	0.000000	128.000000	61.000000	297.000000	79.000000
2.190000	103.470000	29.920000	707.000000	0.000000	129.000000	61.000000	230.000000	79.000000
