t	x	y	pressure	penup	azimuth	inclination	v_x	v_y
0.000000	12.340000	85.620000	32.000000	1.000000	140.000000	65.000000	0.000000	0.000000
0.010000	12.340000	85.620000	63.000000	0.000000	140.000000	65.000000	0.000000	0.000000
0.020000	12.340000	85.620000	120.000000	0.000000	140.000000	65.000000	0.000000	0.000000
0.030000	12.340000	85.620000	172.000000	0.000000	140.000000	65.000000	0.000000	0.000000
0.040000	12.340000	85.620000	226.000000	0.000000	137.000000	65.000000	0.000000	0.000000
0.050000	12.340000	85.620000	247.000000	0.000000	137.000000	65.000000	0.000000	0.000000
0.060000	12.340000	85.620000	265.000000	0.000000	137.000000	65.000000	0.000000	0.000000
0.070000	12.270000	85.620000	294.000000	0.000000	137.000000	65.000000	-7.000000	0.000000
0.080000	12.270000	85.550000	314.000000	0.000000	135.000000	64.000000	0.000000	-7.000000
0.090000	12.330000	85.410000	329.000000	0.000000	135.000000	64.000000	6.000000	-14.000000
0.100000	12.400000	85.180000	334.000000	0.000000	137.000000	63.000000	7.000000	-23.000000
0.110000	12.520000	84.890000	356.000000	0.000000	137.000000	63.000000	12.000000	-29.000000
0.120000	12.670000	84.420000	363.000000	0.000000	137.000000	63.000000	15.000000	-47.000000
0.130000	12.840000	83.920000	361.000000	0.000000	137.000000	63.000000	17.000000	-50.000000
0.140000	13.020000	83.310000	363.000000	0.000000	137.000000	63.000000	18.000000	-61.000000
0.150000	13.300000	82.600000	363.000000	0.000000	137.000000	63.000000	28.000000	-71.000000
0.160000	13.570000	81.910000	364.000000	0.000000	137.000000	63.000000	27.000000	-69.000000
0.170000	13.820000	81.250000	364.000000	0.000000	137.000000	63.000000	25.000000	-66.000000
0.180000	14.050000	80.580000	364.000000	0.000000	135.000000	63.000000	23.000000	-67.000000
0.190000	14.290000	79.920000	366.000000	0.000000	133.000000	63.000000	24.000000	-66.000000
0.200000	14.470000	79.270000	363.000000	0.000000	133.000000	63.000000	18.000000	-65.000000
0.210000	14.600000	78.680000	363.000000	0.000000	133.000000	63.000000	13.000000	-59.000000
0.220000	14.720000	78.150000	363.000000	0.000000	133.000000	63.000000	12.000000	-53.000000
0.230000	14.790000	77.670000	364.000000	0.000000	133.000000	63.000000	7.000000	-48.000000
0.240000	14.790000	77.360000	368.000000	0.000000	133.000000	63.000000	0.000000	-31.000000
0.250000	14.790000	77.170000	392.000000	0.000000	133.000000	63.000000	0.000000	-19.000000
0.260000	14.660000	77.060000	433.000000	0.000000	133.000000	63.000000	-13.000000	-11.000000
0.270000	14.540000	77.060000	440.000000	0.000000	133.000000	63.000000	-12.000000	0.000000
0.280000	14.220000	77.060000	471.000000	0.000000	133.000000	63.000000	-32.000000	0.000000
0.290000	13.860000	77.200000	486.000000	0.000000	135.000000	63.000000	-36.000000	14.000000
0.300000	13.470000	77.260000	490.000000	0.000000	135.000000	63.000000	-39.000000	6.000000
0.310000	13.040000	77.320000	485.000000	0.000000	133.000000	63.000000	-43.000000	6.000000
0.320000	12.580000	77.320000	473.000000	0.000000	133.000000	63.000000	-46.000000	0.000000
0.330000	12.110000	77.320000	475.000000	0.000000	133.000000	63.000000	-47.000000	0.000000
0.340000	11.720000	77.320000	477.000000	0.000000	133.000000	63.000000	-39.000000	0.000000
0.350000	11.390000	77.320000	491.000000	0.000000	133.000000	63.000000	-33.000000	0.000000
0.360000	11.190000	77.320000	502.000000	0.000000	133.000000	63.000000	-20.000000	0.000000
0.370000	11.090000	77.320000	527.000000	0.000000	133.000000	63.000000	-10.000000	0.000000
0.380000	11.090000	77.320000	536.000000	0.000000	133.000000	63.000000	0.000000	0.000000
0.390000	11.090000	77.320000	553.000000	0.000000	133.000000	63.000000	0.000000	0.000000
0.400000	11.090000	77.320000	560.000000	0.000000	133.000000	63.000000	0.000000	0.000000
0.410000	11.090000	77.320000	574.000000	0.000000	133.000000	63.000000	0.000000	0.000000
0.420000	11.090000	77.320000	595.000000	0.000000	133.000000	63.000000	0.000000	0.000000
0.430000	11.090000	77.320000	608.000000	0.000000	133.000000	63.000000	0.000000	0.000000
0.440000	11.090000	77.320000	622.000000	0.000000	133.000000	63.000000	0.000000	0.000000
0.450000	11.170000	77.320000	661.000000	0.000000	133.000000	63.000000	8.000000	0.000000
0.460000	11.240000	77.370000	702.000000	0.000000	133.000000	63.000000	7.000000	5.000000
0.470000	11.540000	77.490000	714.000000	0.000000	133.000000	63.000000	30.000000	12.000000
0.480000	11.980000	77.660000	722.000000	0.000000	133.000000	63.000000	44.000000	17.000000
0.490000	12.620000	77.910000	751.000000	0.000000	133.000000	63.000000	64.000000	25.000000
0.500000	13.500000	78.240000	773.000000	0.000000	133.000000	63.000000	88.000000	33.000000
0.510000	14.550000	78.620000	797.000000	0.000000	135.000000	64.000000	105.000000	38.000000
0.520000	15.990000	79.100000	808.000000	0.000000	135.000000	64.000000	144.000000	48.000000
0.530000	17.760000	79.600000	823.000000	0.000000	137.000000	63.000000	177.000000	50.000000
0.540000	19.740000	80.120000	818.000000	0.000000	138.000000	64.000000	198.000000	52.000000
0.550000	21.900000	80.600000	827.000000	0.000000	138.000000	64.000000	216.000000	48.000000
0.560000	23.890000	80.970000	834.000000	0.000000	140.000000	65.000000	199.000000	37.000000
0.570000	25.760000	81.280000	836.000000	0.000000	143.000000	64.000000	187.000000	31.000000
0.580000	27.440000	81.470000	845.000000	0.000000	145.000000	65.000000	168.000000	19.000000
0.590000	28.700000	81.670000	836.000000	0.000000	145.000000	65.000000	126.000000	20.000000
0.600000	29.690000	81.870000	842.000000	0.000000	148.000000	65.000000	99.000000	20.000000
0.610000	30.440000	81.990000	840.000000	0.000000	148.000000	65.000000	75.000000	12.000000
0.620000	30.850000	82.080000	840.000000	0.000000	148.000000	65.000000	41.000000	9.000000
0.630000	31.020000	82.080000	855.000000	0.000000	150.000000	65.000000	17.000000	0.000000
0.640000	31.020000	82.080000	853.000000	0.000000	151.000000	64.000000	0.000000	0.000000
0.650000	30.880000	82.080000	863.000000	0.000000	151.000000	64.000000	-14.000000	0.000000
0.660000	30.720000	82.080000	864.000000	0.000000	151.000000	64.000000	-16.000000	0.000000
0.670000	30.380000	82.150000	861.000000	0.000000	151.000000	64.000000	-34.000000	7.000000
0.680000	30.070000	82.150000	860.000000	0.000000	151.000000	64.000000	-31.000000	0.000000
0.690000	29.810000	82.150000	861.000000	0.000000	151.000000	64.000000	-26.000000	0.000000
0.700000	29.680000	82.150000	863.000000	0.000000	151.000000	64.000000	-13.000000	0.000000
0.710000	29.680000	82.150000	860.000000	0.000000	151.000000	64.000000	0.000000	0.000000
0.720000	29.620000	82.150000	854.000000	0.000000	151.000000	64.000000	-6.000000	0.000000
0.730000	29.620000	82.150000	843.000000	0.000000	151.000000	64.000000	0.000000	0.000000
0.740000	29.620000	82.150000	833.000000	0.000000	151.000000	64.000000	0.000000	0.000000
0.750000	29.570000	82.150000	819.000000	0.000000	151.000000	64.000000	-5.000000	0.000000
0.760000	29.570000	82.150000	826.000000	0.000000	151.000000	64.000000	0.000000	0.000000
0.770000	29.570000	82.150000	809.000000	0.000000	153.000000	63.000000	0.000000	0.000000
0.780000	29.570000	82.150000	794.000000	0.000000	153.000000	63.000000	0.000000	0.000000
0.790000	29.570000	82.150000	763.000000	0.000000	153.000000	63.000000	0.000000	0.000000
0.800000	29.570000	82.150000	757.000000	0.000000	153.000000	63.000000	0.000000	0.000000
0.810000	29.570000	82.150000	749.000000	0.000000	153.000000	63.000000	0.000000	0.000000
0.820000	29.570000	82.150000	740.000000	0.000000	153.000000	63.000000	0.000000	0.000000
0.830000	29.620000	82.150000	740.000000	0.000000	151.000000	64.000000	5.000000	0.000000
0.840000	29.620000	82.150000	742.000000	0.000000	151.000000	64.000000	0.000000	0.000000
0.850000	29.620000	82.150000	746.000000	0.000000	151.000000	64.000000	0.000000	0.000000
0.860000	29.620000	82.150000	748.000000	0.000000	151.000000	64.000000	0.000000	0.000000
0.870000	29.620000	82.150000	755.000000	0.000000	151.000000	64.000000	0.000000	0.000000
0.880000	29.620000	82.150000	758.000000	0.000000	151.000000	64.000000	0.000000	0.000000
0.890000	29.620000	82.150000	750.000000	0.000000	151.000000	64.000000	0.000000	0.000000
0.900000	29.620000	82.150000	750.000000	0.000000	151.000000	64.000000	0.000000	0.000000
0.910000	29.620000	82.150000	754.000000	0.000000	150.000000	64.000000	0.000000	0.000000
0.920000	29.620000	82.150000	753.000000	0.000000	151.000000	64.000000	0.000000	0.000000
0.930000	29.620000	82.150000	756.000000	0.000000	151.000000	64.000000	0.000000	0.000000
0.940000	29.620000	82.150000	757.000000	0.000000	153.000000	63.000000	0.000000	0.000000
0.950000	29.560000	82.150000	759.000000	0.000000	153.000000	63.000000	-6.000000	0.000000
0.960000	29.500000	82.080000	753.000000	0.000000	153.000000	63.000000	-6.000000	-7.000000
0.970000	29.130000	81.960000	753.000000	0.000000	153.000000	63.000000	-37.000000	-12.000000
0.980000	28.600000	81.770000	763.000000	0.000000	153.000000	63.000000	-53.000000	-19.000000
0.990000	27.960000	81.590000	731.000000	0.000000	153.000000	63.000000	-64.000000	-18.000000
1.000000	27.030000	81.420000	687.000000	0.000000	151.000000	64.000000	-93.000000	-17.000000
1.010000	25.700000	81.250000	639.000000	0.000000	151.000000	64.000000	-133.000000	-17.000000
1.020000	24.100000	80.950000	594.000000	0.000000	150.000000	64.000000	-160.000000	-30.000000
1.030000	22.180000	80.600000	565.000000	0.000000	150.000000	64.000000	-192.000000	-35.000000
1.040000	20.090000	80.130000	595.000000	0.000000	148.000000	65.000000	-209.000000	-47.000000
1.050000	17.880000	79.620000	611.000000	0.000000	146.000000	64.000000	-221.000000	-51.000000
1.060000	16.200000	79.140000	611.000000	0.000000	146.000000	64.000000	-168.000000	-48.000000
1.070000	14.970000	78.750000	630.000000	0.000000	145.000000	65.000000	-123.000000	-39.000000
1.080000	14.050000	78.410000	647.000000	0.000000	145.000000	65.000000	-92.000000	-34.000000
1.090000	13.290000	78.120000	647.000000	0.000000	143.000000	64.000000	-76.000000	-29.000000
1.100000	12.820000	77.930000	636.000000	0.000000	145.000000	65.000000	-47.000000	-19.000000
1.110000	12.550000	77.810000	642.000000	0.000000	145.000000	65.000000	-27.000000	-12.000000
1.120000	12.550000	77.810000	639.000000	0.000000	145.000000	65.000000	0.000000	0.000000
1.130000	12.930000	77.880000	642.000000	0.000000	145.000000	65.000000	38.000000	7.000000
1.140000	13.470000	78.040000	636.000000	0.000000	145.000000	65.000000	54.000000	16.000000
1.150000	14.380000	78.280000	665.000000	0.000000	146.000000	64.000000	91.000000	24.000000
1.160000	15.710000	78.610000	699.000000	0.000000	148.000000	65.000000	133.000000	33.000000
1.170000	17.310000	79.000000	728.000000	0.000000	148.000000	65.000000	160.000000	39.000000
1.180000	19.280000	79.490000	733.000000	0.000000	148.000000	65.000000	197.000000	49.000000
1.190000	21.470000	80.030000	734.000000	0.000000	148.000000	65.000000	219.000000	54.000000
1.200000	23.800000	80.600000	733.000000	0.000000	150.000000	65.000000	233.000000	57.000000
1.210000	26.180000	81.180000	745.000000	0.000000	150.000000	65.000000	238.000000	58.000000
1.220000	28.580000	81.720000	731.000000	0.000000	150.000000	65.000000	240.000000	54.000000
1.230000	30.790000	82.180000	727.000000	0.000000	150.000000	65.000000	221.000000	46.000000
1.240000	32.850000	82.620000	721.000000	0.000000	151.000000	64.000000	206.000000	44.000000
1.250000	34.430000	82.900000	722.000000	0.000000	153.000000	65.000000	158.000000	28.000000
1.260000	35.310000	83.070000	727.000000	0.000000	153.000000	65.000000	88.000000	17.000000
1.270000	35.710000	83.070000	737.000000	0.000000	154.000000	64.000000	40.000000	0.000000
1.280000	35.380000	83.010000	745.000000	0.000000	154.000000	64.000000	-33.000000	-6.000000
1.290000	34.510000	82.790000	733.000000	0.000000	154.000000	64.000000	-87.000000	-22.000000
1.300000	33.280000	82.480000	696.000000	0.000000	155.000000	63.000000	-123.000000	-31.000000
1.310000	31.750000	82.130000	639.000000	0.000000	154.000000	64.000000	-153.000000	-35.000000
1.320000	30.160000	81.850000	619.000000	0.000000	154.000000	64.000000	-159.000000	-28.000000
1.330000	28.530000	81.610000	603.000000	0.000000	153.000000	63.000000	-163.000000	-24.000000
1.340000	27.170000	81.390000	595.000000	0.000000	151.000000	64.000000	-136.000000	-22.000000
1.350000	25.760000	81.150000	594.000000	0.000000	151.000000	64.000000	-141.000000	-24.000000
1.360000	24.310000	80.910000	595.000000	0.000000	150.000000	64.000000	-145.000000	-24.000000
1.370000	22.950000	80.570000	586.000000	0.000000	148.000000	65.000000	-136.000000	-34.000000
1.380000	21.580000	80.200000	588.000000	0.000000	146.000000	64.000000	-137.000000	-37.000000
1.390000	20.230000	79.770000	591.000000	0.000000	148.000000	65.000000	-135.000000	-43.000000
1.400000	18.880000	79.350000	597.000000	0.000000	147.000000	65.000000	-135.000000	-42.000000
1.410000	18.060000	79.090000	602.000000	0.000000	147.000000	65.000000	-82.000000	-26.000000
1.420000	17.670000	78.930000	613.000000	0.000000	149.000000	66.000000	-39.000000	-16.000000
1.430000	17.570000	78.870000	614.000000	0.000000	149.000000	66.000000	-10.000000	-6.000000
1.440000	17.670000	78.920000	620.000000	0.000000	152.000000	65.000000	10.000000	5.000000
1.450000	18.200000	79.050000	628.000000	0.000000	154.000000	66.000000	53.000000	13.000000
1.460000	19.020000	79.310000	634.000000	0.000000	154.000000	66.000000	82.000000	26.000000
1.470000	20.230000	79.670000	645.000000	0.000000	155.000000	65.000000	121.000000	36.000000
1.480000	21.870000	80.100000	664.000000	0.000000	155.000000	65.000000	164.000000	43.000000
1.490000	23.790000	80.470000	687.000000	0.000000	155.000000	65.000000	192.000000	37.000000
1.500000	25.950000	80.860000	708.000000	0.000000	154.000000	66.000000	216.000000	39.000000
1.510000	28.410000	81.320000	719.000000	0.000000	154.000000	66.000000	246.000000	46.000000
1.520000	31.080000	81.840000	719.000000	0.000000	152.000000	65.000000	267.000000	52.000000
1.530000	33.770000	82.340000	724.000000	0.000000	152.000000	65.000000	269.000000	50.000000
1.540000	36.120000	82.810000	725.000000	0.000000	152.000000	65.000000	235.000000	47.000000
1.550000	38.250000	83.210000	730.000000	0.000000	152.000000	65.000000	213.000000	40.000000
1.560000	39.750000	83.540000	730.000000	0.000000	153.000000	65.000000	150.000000	33.000000
1.570000	40.710000	83.710000	693.000000	0.000000	153.000000	65.000000	96.000000	17.000000
1.580000	41.300000	83.770000	591.000000	0.000000	154.000000	64.000000	59.000000	6.000000
1.590000	41.300000	83.770000	161.000000	0.000000	154.000000	64.000000	0.000000	0.000000
1.600000	41.300000	83.770000	0.000000	1.000000	154.000000	64.000000	0.000000	0.000000
1.610000	40.190000	83.770000	0.000000	0.000000	153.000000	63.000000	-111.000000	0.000000
1.620000	39.500000	83.770000	0.000000	0.000000	153.000000	63.000000	-69.000000	0.000000
1.630000	38.880000	83.830000	0.000000	0.000000	151.000000	63.000000	-62.000000	6.000000
1.640000	38.450000	83.930000	0.000000	0.000000	151.000000	63.000000	-43.000000	10.000000
1.650000	38.120000	84.020000	0.000000	0.000000	149.000000	63.000000	-33.000000	9.000000
1.660000	37.610000	84.080000	0.000000	0.000000	149.000000	63.000000	-51.000000	6.000000
1.670000	36.910000	84.010000	0.000000	0.000000	147.000000	62.000000	-70.000000	-7.000000
1.680000	36.070000	83.870000	0.000000	0.000000	150.000000	62.000000	-84.000000	-14.000000
1.690000	35.090000	83.610000	0.000000	0.000000	150.000000	62.000000	-98.000000	-26.000000
1.700000	34.050000	83.610000	0.000000	0.000000	150.000000	62.000000	-104.000000	0.000000
1.710000	32.960000	83.560000	0.000000	0.000000	150.000000	62.000000	-109.000000	-5.000000
1.720000	32.270000	83.350000	0.000000	0.000000	149.000000	63.000000	-69.000000	-21.000000
1.730000	31.760000	83.290000	0.000000	0.000000	151.000000	63.000000	-51.000000	-6.000000
1.740000	31.380000	83.290000	0.000000	0.000000	151.000000	63.000000	-38.000000	0.000000
1.750000	31.030000	83.340000	0.000000	0.000000	151.000000	63.000000	-35.000000	5.000000
1.760000	30.740000	83.540000	0.000000	0.000000	149.000000	63.000000	-29.000000	20.000000
1.770000	30.370000	83.750000	0.000000	0.000000	147.000000	62.000000	-37.000000	21.000000
1.780000	29.930000	83.980000	0.000000	0.000000	146.000000	62.000000	-44.000000	23.000000
1.790000	29.100000	83.980000	0.000000	0.000000	144.000000	61.000000	-83.000000	0.000000
1.800000	27.840000	83.980000	0.000000	0.000000	141.000000	61.000000	-126.000000	0.000000
1.810000	26.290000	83.870000	0.000000	0.000000	141.000000	61.000000	-155.000000	-11.000000
1.820000	24.570000	83.690000	0.000000	0.000000	141.000000	61.000000	-172.000000	-18.000000
1.830000	22.900000	83.450000	0.000000	0.000000	141.000000	61.000000	-167.000000	-24.000000
1.840000	21.270000	83.240000	0.000000	0.000000	140.000000	62.000000	-163.000000	-21.000000
1.850000	20.060000	83.070000	0.000000	0.000000	140.000000	62.000000	-121.000000	-17.000000
1.860000	19.150000	82.950000	0.000000	0.000000	140.000000	62.000000	-91.000000	-12.000000
1.870000	18.450000	82.860000	0.000000	0.000000	138.000000	63.000000	-70.000000	-9.000000
1.880000	18.000000	82.790000	0.000000	0.000000	138.000000	63.000000	-45.000000	-7.000000
1.890000	17.680000	82.790000	0.000000	0.000000	135.000000	63.000000	-32.000000	0.000000
1.900000	17.450000	82.720000	0.000000	0.000000	135.000000	63.000000	-23.000000	-7.000000
1.910000	17.200000	82.640000	0.000000	0.000000	132.000000	63.000000	-25.000000	-8.000000
1.920000	16.970000	82.520000	0.000000	0.000000	130.000000	62.000000	-23.000000	-12.000000
1.930000	16.790000	82.370000	0.000000	0.000000	130.000000	62.000000	-18.000000	-15.000000
1.940000	16.640000	82.170000	0.000000	0.000000	127.000000	62.000000	-15.000000	-20.000000
1.950000	16.520000	81.940000	0.000000	0.000000	127.000000	62.000000	-12.000000	-23.000000
1.960000	16.420000	81.660000	0.000000	0.000000	127.000000	62.000000	-10.000000	-28.000000
1.970000	16.420000	81.460000	0.000000	0.000000	126.000000	62.000000	0.000000	-20.000000
1.980000	16.370000	81.310000	0.000000	0.000000	127.000000	63.000000	-5.000000	-15.000000
1.990000	16.370000	81.190000	0.000000	0.000000	127.000000	63.000000	0.000000	-12.000000
2.000000	16.270000	81.100000	0.000000	0.000000	127.000000	63.000000	-10.000000	-9.000000
2.010000	16.340000	81.040000	0.000000	0.000000	127.000000	64.000000	7.000000	-6.000000
2.020000	16.340000	80.970000	0.000000	0.000000	127.000000	64.000000	0.000000	-7.000000
2.030000	16.410000	80.900000	0.000000	0.000000	127.000000	64.000000	7.000000	-7.000000
2.040000	16.510000	80.900000	0.000000	0.000000	128.000000	65.000000	10.000000	0.000000
2.050000	16.630000	80.970000	0.000000	0.000000	128.000000	65.000000	12.000000	7.000000
2.060000	16.820000	80.970000	0.000000	0.000000	130.000000	66.000000	19.000000	0.000000
2.070000	17.060000	81.080000	0.000000	0.000000	130.000000	66.000000	24.000000	11.000000
2.080000	17.360000	81.180000	0.000000	0.000000	130.000000	66.000000	30.000000	10.000000
2.090000	17.760000	81.300000	0.000000	0.000000	130.000000	66.000000	40.000000	12.000000
2.100000	18.220000	81.400000	0.000000	0.000000	130.000000	66.000000	46.000000	10.000000
2.110000	18.640000	81.480000	0.000000	0.000000	132.000000	65.000000	42.000000	8.000000
2.120000	19.020000	81.550000	0.000000	0.000000	133.000000	66.000000	38.000000	7.000000
2.130000	19.380000	81.550000	0.000000	0.000000	133.000000	66.000000	36.000000	0.000000
2.140000	19.710000	81.640000	0.000000	0.000000	133.000000	66.000000	33.000000	9.000000
2.150000	20.070000	81.640000	0.000000	0.000000	133.000000	66.000000	36.000000	0.000000
2.160000	20.470000	81.710000	0.000000	0.000000	133.000000	66.000000	40.000000	7.000000
2.170000	20.910000	81.770000	0.000000	0.000000	135.000000	65.000000	44.000000	6.000000
2.180000	21.360000	81.820000	0.000000	0.000000	135.000000	65.000000	45.000000	5.000000
2.190000	21.840000	81.910000	0.000000	0.000000	135.000000	65.000000	48.000000	9.000000
2.200000	22.350000	82.040000	0.000000	0.000000	135.000000	65.000000	51.000000	13.000000
2.210000	22.930000	82.180000	0.000000	0.000000	135.000000	65.000000	58.000000	14.000000
