t	x	y	pressure	penup	azimuth	inclination	v_x	v_y
0.000000	12.910000	49.770000	29.000000	1.000000	127.000000	63.000000	0.000000	0.000000
0.010000	12.910000	49.770000	50.000000	0.000000	127.000000	63.000000	0.000000	0.000000
0.020000	12.910000	49.770000	109.000000	0.000000	127.000000	63.000000	0.000000	0.000000
0.030000	12.910000	49.770000	149.000000	0.000000	127.000000	63.000000	0.000000	0.000000
0.040000	12.910000	49.770000	168.000000	0.000000	127.000000	62.000000	0.000000	0.000000
0.050000	12.910000	49.770000	173.000000	0.000000	127.000000	62.000000	0.000000	0.000000
0.060000	12.910000	49.770000	203.000000	0.000000	127.000000	62.000000	0.000000	0.000000
0.070000	12.910000	49.770000	223.000000	0.000000	127.000000	62.000000	0.000000	0.000000
0.080000	12.910000	49.770000	237.000000	0.000000	127.000000	62.000000	0.000000	0.000000
0.090000	12.970000	49.140000	249.000000	0.000000	127.000000	62.000000	6.000000	-63.000000
0.100000	13.100000	48.720000	254.000000	0.000000	127.000000	62.000000	13.000000	-42.000000
0.110000	13.240000	48.270000	245.000000	0.000000	127.000000	62.000000	14.000000	-45.000000
0.120000	13.410000	47.700000	265.000000	0.000000	126.000000	62.000000	17.000000	-57.000000
0.130000	13.600000	47.060000	280.000000	0.000000	126.000000	62.000000	19.000000	-64.000000
0.140000	13.810000	46.380000	281.000000	0.000000	127.000000	63.000000	21.000000	-68.000000
0.150000	14.020000	45.700000	291.000000	0.000000	125.000000	64.000000	21.000000	-68.000000
0.160000	14.220000	45.010000	299.000000	0.000000	125.000000	64.000000	20.000000	-69.000000
0.170000	14.400000	44.310000	304.000000	0.000000	125.000000	65.000000	18.000000	-70.000000
0.180000	14.590000	43.740000	327.000000	0.000000	125.000000	65.000000	19.000000	-57.000000
0.190000	14.670000	43.270000	344.000000	0.000000	125.000000	65.000000	8.000000	-47.000000
0.200000	14.670000	42.900000	366.000000	0.000000	126.000000	66.000000	0.000000	-37.000000
0.210000	14.670000	42.710000	402.000000	0.000000	126.000000	66.000000	0.000000	-19.000000
0.220000	14.610000	42.650000	438.000000	0.000000	126.000000	66.000000	-6.000000	-6.000000
0.230000	14.610000	42.650000	448.000000	0.000000	126.000000	66.000000	0.000000	0.000000
0.240000	14.360000	42.650000	440.000000	0.000000	126.000000	66.000000	-25.000000	0.000000
0.250000	14.020000	42.710000	443.000000	0.000000	128.000000	65.000000	-34.000000	6.000000
0.260000	13.670000	42.760000	448.000000	0.000000	128.000000	65.000000	-35.000000	5.000000
0.270000	13.260000	42.760000	450.000000	0.000000	128.000000	65.000000	-41.000000	0.000000
0.280000	12.820000	42.760000	448.000000	0.000000	128.000000	65.000000	-44.000000	0.000000
0.290000	12.360000	42.820000	448.000000	0.000000	128.000000	65.000000	-46.000000	6.000000
0.300000	11.930000	42.820000	452.000000	0.000000	128.000000	65.000000	-43.000000	0.000000
0.310000	11.560000	42.820000	453.000000	0.000000	128.000000	65.000000	-37.000000	0.000000
0.320000	11.210000	42.880000	455.000000	0.000000	128.000000	65.000000	-35.000000	6.000000
0.330000	10.900000	42.880000	458.000000	0.000000	128.000000	65.000000	-31.000000	0.000000
0.340000	10.650000	42.880000	481.000000	0.000000	128.000000	65.000000	-25.000000	0.000000
0.350000	10.570000	42.880000	495.000000	0.000000	128.000000	65.000000	-8.000000	0.000000
0.360000	10.570000	42.880000	492.000000	0.000000	128.000000	65.000000	0.000000	0.000000
0.370000	10.570000	42.880000	502.000000	0.000000	128.000000	65.000000	0.000000	0.000000
0.380000	10.570000	42.880000	504.000000	0.000000	128.000000	65.000000	0.000000	0.000000
0.390000	10.570000	42.880000	504.000000	0.000000	128.000000	65.000000	0.000000	0.000000
0.400000	10.640000	42.880000	504.000000	0.000000	128.000000	65.000000	7.000000	0.000000
0.410000	10.640000	42.880000	510.000000	0.000000	128.000000	65.000000	0.000000	0.000000
0.420000	10.830000	42.880000	515.000000	0.000000	128.000000	65.000000	19.000000	0.000000
0.430000	11.070000	42.940000	529.000000	0.000000	128.000000	65.000000	24.000000	6.000000
0.440000	11.340000	42.940000	541.000000	0.000000	128.000000	65.000000	27.000000	0.000000
0.450000	11.600000	43.000000	546.000000	0.000000	128.000000	65.000000	26.000000	6.000000
0.460000	11.820000	43.110000	557.000000	0.000000	128.000000	65.000000	22.000000	11.000000
0.470000	12.100000	43.270000	572.000000	0.000000	128.000000	65.000000	28.000000	16.000000
0.480000	12.430000	43.450000	580.000000	0.000000	128.000000	65.000000	33.000000	18.000000
0.490000	12.860000	43.750000	595.000000	0.000000	128.000000	65.000000	43.000000	30.000000
0.500000	13.570000	44.140000	617.000000	0.000000	128.000000	65.000000	71.000000	39.000000
0.510000	14.450000	44.580000	631.000000	0.000000	128.000000	65.000000	88.000000	44.000000
0.520000	15.670000	45.010000	645.000000	0.000000	128.000000	66.000000	122.000000	43.000000
0.530000	17.240000	45.450000	638.000000	0.000000	128.000000	66.000000	157.000000	44.000000
0.540000	19.050000	45.920000	643.000000	0.000000	128.000000	66.000000	181.000000	47.000000
0.550000	20.940000	46.400000	646.000000	0.000000	130.000000	67.000000	189.000000	48.000000
0.560000	22.840000	46.830000	650.000000	0.000000	130.000000	67.000000	190.000000	43.000000
0.570000	24.470000	47.260000	659.000000	0.000000	131.000000	68.000000	163.000000	43.000000
0.580000	25.910000	47.650000	670.000000	0.000000	131.000000	68.000000	144.000000	39.000000
0.590000	27.150000	47.900000	667.000000	0.000000	133.000000	69.000000	124.000000	25.000000
0.600000	28.010000	48.070000	670.000000	0.000000	135.000000	68.000000	86.000000	17.000000
0.610000	28.610000	48.190000	666.000000	0.000000	135.000000	68.000000	60.000000	12.000000
0.620000	28.890000	48.260000	669.000000	0.000000	135.000000	68.000000	28.000000	7.000000
0.630000	28.890000	48.260000	676.000000	0.000000	135.000000	68.000000	0.000000	0.000000
0.640000	28.770000	48.260000	659.000000	0.000000	135.000000	68.000000	-12.000000	0.000000
0.650000	28.430000	48.170000	624.000000	0.000000	135.000000	68.000000	-34.000000	-9.000000
0.660000	27.640000	47.990000	592.000000	0.000000	135.000000	68.000000	-79.000000	-18.000000
0.670000	26.540000	47.730000	556.000000	0.000000	135.000000	68.000000	-110.000000	-26.000000
0.680000	24.990000	47.350000	537.000000	0.000000	135.000000	68.000000	-155.000000	-38.000000
0.690000	23.320000	46.950000	537.000000	0.000000	133.000000	67.000000	-167.000000	-40.000000
0.700000	21.580000	46.460000	532.000000	0.000000	133.000000	67.000000	-174.000000	-49.000000
0.710000	19.640000	45.880000	546.000000	0.000000	133.000000	67.000000	-194.000000	-58.000000
0.720000	17.730000	45.240000	553.000000	0.000000	131.000000	67.000000	-191.000000	-64.000000
0.730000	15.870000	44.580000	564.000000	0.000000	130.000000	67.000000	-186.000000	-66.000000
0.740000	14.460000	44.030000	561.000000	0.000000	130.000000	67.000000	-141.000000	-55.000000
0.750000	13.360000	43.540000	572.000000	0.000000	130.000000	67.000000	-110.000000	-49.000000
0.760000	12.450000	43.090000	578.000000	0.000000	130.000000	67.000000	-91.000000	-45.000000
0.770000	11.680000	42.790000	578.000000	0.000000	130.000000	67.000000	-77.000000	-30.000000
0.780000	11.010000	42.580000	581.000000	0.000000	130.000000	67.000000	-67.000000	-21.000000
0.790000	10.500000	42.380000	592.000000	0.000000	131.000000	67.000000	-51.000000	-20.000000
0.800000	10.290000	42.300000	591.000000	0.000000	131.000000	67.000000	-21.000000	-8.000000
0.810000	10.290000	42.300000	588.000000	0.000000	130.000000	66.000000	0.000000	0.000000
0.820000	10.600000	42.370000	595.000000	0.000000	132.000000	65.000000	31.000000	7.000000
0.830000	11.380000	42.620000	586.000000	0.000000	132.000000	65.000000	78.000000	25.000000
0.840000	12.460000	42.990000	588.000000	0.000000	130.000000	65.000000	108.000000	37.000000
0.850000	13.800000	43.540000	588.000000	0.000000	132.000000	65.000000	134.000000	55.000000
0.860000	15.500000	44.120000	586.000000	0.000000	132.000000	65.000000	170.000000	58.000000
0.870000	17.440000	44.720000	588.000000	0.000000	130.000000	66.000000	194.000000	60.000000
0.880000	19.360000	45.350000	597.000000	0.000000	131.000000	67.000000	192.000000	63.000000
0.890000	21.280000	45.960000	606.000000	0.000000	131.000000	67.000000	192.000000	61.000000
0.900000	23.180000	46.530000	622.000000	0.000000	130.000000	67.000000	190.000000	57.000000
0.910000	24.900000	47.110000	633.000000	0.000000	131.000000	68.000000	172.000000	58.000000
0.920000	26.520000	47.620000	647.000000	0.000000	131.000000	68.000000	162.000000	51.000000
0.930000	28.010000	48.070000	645.000000	0.000000	131.000000	68.000000	149.000000	45.000000
0.940000	29.100000	48.410000	639.000000	0.000000	133.000000	69.000000	109.000000	34.000000
0.950000	29.910000	48.590000	631.000000	0.000000	133.000000	69.000000	81.000000	18.000000
0.960000	30.240000	48.680000	617.000000	0.000000	135.000000	68.000000	33.000000	9.000000
0.970000	30.060000	48.620000	599.000000	0.000000	135.000000	68.000000	-18.000000	-6.000000
0.980000	29.540000	48.380000	563.000000	0.000000	135.000000	68.000000	-52.000000	-24.000000
0.990000	28.360000	48.030000	568.000000	0.000000	135.000000	68.000000	-118.000000	-35.000000
1.000000	26.750000	47.570000	570.000000	0.000000	135.000000	68.000000	-161.000000	-46.000000
1.010000	24.840000	47.100000	569.000000	0.000000	135.000000	68.000000	-191.000000	-47.000000
1.020000	23.030000	46.560000	588.000000	0.000000	135.000000	68.000000	-181.000000	-54.000000
1.030000	21.180000	45.970000	585.000000	0.000000	133.000000	69.000000	-185.000000	-59.000000
1.040000	19.310000	45.350000	602.000000	0.000000	133.000000	69.000000	-187.000000	-62.000000
1.050000	17.460000	44.710000	594.000000	0.000000	133.000000	69.000000	-185.000000	-64.000000
1.060000	15.590000	44.070000	602.000000	0.000000	133.000000	69.000000	-187.000000	-64.000000
1.070000	14.030000	43.320000	616.000000	0.000000	133.000000	69.000000	-156.000000	-75.000000
1.080000	12.680000	42.540000	610.000000	0.000000	131.000000	68.000000	-135.000000	-78.000000
1.090000	11.700000	42.010000	614.000000	0.000000	131.000000	68.000000	-98.000000	-53.000000
1.100000	11.250000	41.660000	616.000000	0.000000	131.000000	68.000000	-45.000000	-35.000000
1.110000	11.160000	41.540000	622.000000	0.000000	133.000000	67.000000	-9.000000	-12.000000
1.120000	11.440000	41.540000	640.000000	0.000000	133.000000	67.000000	28.000000	0.000000
1.130000	12.090000	41.540000	664.000000	0.000000	133.000000	67.000000	65.000000	0.000000
1.140000	12.990000	41.760000	663.000000	0.000000	135.000000	67.000000	90.000000	22.000000
1.150000	14.620000	42.280000	684.000000	0.000000	135.000000	67.000000	163.000000	52.000000
1.160000	16.960000	43.010000	710.000000	0.000000	133.000000	67.000000	234.000000	73.000000
1.170000	19.770000	44.080000	733.000000	0.000000	133.000000	67.000000	281.000000	107.000000
1.180000	23.110000	45.110000	754.000000	0.000000	133.000000	67.000000	334.000000	103.000000
1.190000	26.620000	46.040000	791.000000	0.000000	133.000000	69.000000	351.000000	93.000000
1.200000	30.250000	46.880000	796.000000	0.000000	133.000000	69.000000	363.000000	84.000000
1.210000	33.700000	47.670000	799.000000	0.000000	133.000000	69.000000	345.000000	79.000000
1.220000	36.760000	48.440000	793.000000	0.000000	135.000000	69.000000	306.000000	77.000000
1.230000	39.560000	49.020000	724.000000	0.000000	137.000000	69.000000	280.000000	58.000000
1.240000	41.650000	49.400000	641.000000	0.000000	137.000000	69.000000	209.000000	38.000000
1.250000	43.040000	49.660000	374.000000	0.000000	137.000000	69.000000	139.000000	26.000000
1.260000	43.040000	49.660000	0.000000	1.000000	137.000000	69.000000	0.000000	0.000000
1.270000	43.960000	49.910000	0.000000	0.000000	139.000000	68.000000	92.000000	25.000000
1.280000	43.200000	49.910000	0.000000	0.000000	139.000000	68.000000	-76.000000	0.000000
1.290000	41.910000	49.970000	0.000000	0.000000	137.000000	67.000000	-129.000000	6.000000
1.300000	40.590000	49.890000	0.000000	0.000000	139.000000	67.000000	-132.000000	-8.000000
1.310000	39.420000	49.770000	0.000000	0.000000	135.000000	67.000000	-117.000000	-12.000000
1.320000	38.350000	49.600000	0.000000	0.000000	133.000000	66.000000	-107.000000	-17.000000
1.330000	37.020000	49.450000	0.000000	0.000000	132.000000	65.000000	-133.000000	-15.000000
1.340000	35.960000	49.290000	0.000000	0.000000	130.000000	66.000000	-106.000000	-16.000000
1.350000	35.070000	49.090000	0.000000	0.000000	128.000000	66.000000	-89.000000	-20.000000
1.360000	34.380000	48.920000	0.000000	0.000000	126.000000	67.000000	-69.000000	-17.000000
1.370000	34.010000	48.830000	0.000000	0.000000	124.000000	67.000000	-37.000000	-9.000000
1.380000	33.840000	48.780000	0.000000	0.000000	123.000000	69.000000	-17.000000	-5.000000
1.390000	34.000000	48.780000	0.000000	0.000000	122.000000	70.000000	16.000000	0.000000
1.400000	34.390000	48.780000	0.000000	0.000000	124.000000	71.000000	39.000000	0.000000
1.410000	34.940000	48.840000	0.000000	0.000000	123.000000	72.000000	55.000000	6.000000
1.420000	35.160000	48.950000	0.000000	0.000000	123.000000	72.000000	22.000000	11.000000
1.430000	35.430000	49.050000	0.000000	0.000000	123.000000	72.000000	27.000000	10.000000
1.440000	35.720000	49.150000	0.000000	0.000000	126.000000	72.000000	29.000000	10.000000
1.450000	35.990000	49.270000	0.000000	0.000000	128.000000	71.000000	27.000000	12.000000
1.460000	36.230000	49.400000	0.000000	0.000000	131.000000	71.000000	24.000000	13.000000
1.470000	36.470000	49.460000	0.000000	0.000000	131.000000	71.000000	24.000000	6.000000
1.480000	36.700000	49.520000	0.000000	0.000000	135.000000	71.000000	23.000000	6.000000
1.490000	36.820000	49.570000	0.000000	0.000000	135.000000	71.000000	12.000000	5.000000
1.500000	36.880000	49.650000	0.000000	0.000000	137.000000	71.000000	6.000000	8.000000
1.510000	36.880000	49.750000	0.000000	0.000000	139.000000	71.000000	0.000000	10.000000
1.520000	36.780000	49.900000	0.000000	0.000000	139.000000	71.000000	-10.000000	15.000000
1.530000	36.670000	50.100000	0.000000	0.000000	142.000000	71.000000	-11.000000	20.000000
1.540000	36.670000	50.340000	0.000000	0.000000	143.000000	70.000000	0.000000	24.000000
1.550000	36.730000	50.450000	0.000000	0.000000	143.000000	70.000000	6.000000	11.000000
1.560000	36.930000	50.730000	0.000000	0.000000	143.000000	70.000000	20.000000	28.000000
1.570000	37.200000	50.950000	0.000000	0.000000	143.000000	69.000000	27.000000	22.000000
1.580000	37.490000	51.080000	0.000000	0.000000	141.000000	68.000000	29.000000	13.000000
1.590000	37.800000	51.260000	0.000000	0.000000	140.000000	67.000000	31.000000	18.000000
1.600000	38.090000	51.470000	0.000000	0.000000	139.000000	67.000000	29.000000	21.000000
1.610000	38.250000	51.700000	0.000000	0.000000	138.000000	65.000000	16.000000	23.000000
1.620000	38.320000	51.820000	0.000000	0.000000	137.000000	65.000000	7.000000	12.000000
1.630000	38.320000	51.820000	151.000000	1.000000	135.000000	64.000000	0.000000	0.000000
1.640000	38.320000	51.820000	188.000000	0.000000	137.000000	63.000000	0.000000	0.000000
1.650000	38.050000	51.760000	235.000000	0.000000	137.000000	63.000000	-27.000000	-6.000000
1.660000	37.900000	51.670000	279.000000	0.000000	137.000000	63.000000	-15.000000	-9.000000
1.670000	37.620000	51.350000	294.000000	0.000000	137.000000	63.000000	-28.000000	-32.000000
1.680000	37.240000	51.000000	317.000000	0.000000	137.000000	63.000000	-38.000000	-35.000000
1.690000	36.780000	50.600000	344.000000	0.000000	138.000000	64.000000	-46.000000	-40.000000
1.700000	36.320000	50.180000	344.000000	0.000000	138.000000	64.000000	-46.000000	-42.000000
1.710000	35.860000	49.740000	345.000000	0.000000	138.000000	64.000000	-46.000000	-44.000000
1.720000	35.370000	49.300000	333.000000	0.000000	137.000000	65.000000	-49.000000	-44.000000
1.730000	35.040000	49.020000	338.000000	0.000000	137.000000	65.000000	-33.000000	-28.000000
1.740000	34.800000	48.830000	348.000000	0.000000	135.000000	65.000000	-24.000000	-19.000000
1.750000	34.750000	48.830000	377.000000	0.000000	135.000000	65.000000	-5.000000	0.000000
1.760000	34.750000	48.830000	387.000000	0.000000	135.000000	65.000000	0.000000	0.000000
1.770000	34.810000	48.990000	387.000000	0.000000	133.000000	66.000000	6.000000	16.000000
1.780000	34.950000	49.380000	389.000000	0.000000	133.000000	66.000000	14.000000	39.000000
1.790000	35.110000	49.800000	396.000000	0.000000	133.000000	66.000000	16.000000	42.000000
1.800000	35.270000	50.240000	389.000000	0.000000	133.000000	66.000000	16.000000	44.000000
1.810000	35.370000	50.630000	392.000000	0.000000	135.000000	65.000000	10.000000	39.000000
1.820000	35.440000	50.980000	407.000000	0.000000	135.000000	65.000000	7.000000	35.000000
1.830000	35.440000	51.150000	449.000000	0.000000	135.000000	65.000000	0.000000	17.000000
1.840000	35.440000	51.220000	461.000000	0.000000	135.000000	65.000000	0.000000	7.000000
1.850000	35.440000	51.220000	460.000000	0.000000	137.000000	65.000000	0.000000	0.000000
1.860000	35.440000	51.220000	458.000000	0.000000	137.000000	65.000000	0.000000	0.000000
1.870000	35.440000	51.220000	456.000000	0.000000	137.000000	65.000000	0.000000	0.000000
1.880000	35.440000	51.220000	458.000000	0.000000	138.000000	64.000000	0.000000	0.000000
1.890000	35.630000	51.070000	460.000000	0.000000	138.000000	64.000000	19.000000	-15.000000
1.900000	35.930000	50.890000	465.000000	0.000000	140.000000	65.000000	30.000000	-18.000000
1.910000	36.320000	50.660000	466.000000	0.000000	140.000000	65.000000	39.000000	-23.000000
1.920000	36.730000	50.420000	465.000000	0.000000	140.000000	65.000000	41.000000	-24.000000
1.930000	37.170000	50.180000	464.000000	0.000000	138.000000	65.000000	44.000000	-24.000000
1.940000	37.610000	49.950000	483.000000	0.000000	138.000000	65.000000	44.000000	-23.000000
1.950000	38.030000	49.810000	488.000000	0.000000	138.000000	65.000000	42.000000	-14.000000
1.960000	38.300000	49.720000	492.000000	0.000000	138.000000	65.000000	27.000000	-9.000000
1.970000	38.480000	49.720000	522.000000	0.000000	138.000000	65.000000	18.000000	0.000000
1.980000	38.480000	49.720000	533.000000	0.000000	138.000000	65.000000	0.000000	0.000000
1.990000	38.420000	49.810000	535.000000	0.000000	138.000000	65.000000	-6.000000	9.000000
2.000000	38.330000	50.060000	538.000000	0.000000	138.000000	65.000000	-9.000000	25.000000
2.010000	38.140000	50.310000	541.000000	0.000000	138.000000	65.000000	-19.000000	25.000000
2.020000	37.900000	50.560000	543.000000	0.000000	137.000000	65.000000	-24.000000	25.000000
2.030000	37.630000	50.770000	535.000000	0.000000	137.000000	65.000000	-27.000000	21.000000
2.040000	37.340000	50.990000	540.000000	0.000000	137.000000	65.000000	-29.000000	22.000000
2.050000	37.070000	51.210000	538.000000	0.000000	137.000000	65.000000	-27.000000	22.000000
2.060000	36.810000	51.420000	536.000000	0.000000	137.000000	65.000000	-26.000000	21.000000
2.070000	36.670000	51.580000	539.000000	0.000000	140.000000	65.000000	-14.000000	16.000000
2.080000	36.610000	51.630000	539.000000	0.000000	140.000000	65.000000	-6.000000	5.000000
2.090000	36.610000	51.630000	544.000000	0.000000	140.000000	65.000000	0.000000	0.000000
2.100000	36.610000	51.630000	544.000000	0.000000	140.000000	65.000000	0.000000	0.000000
2.110000	36.610000	51.630000	543.000000	0.000000	143.000000	64.000000	0.000000	0.000000
2.120000	36.820000	51.250000	546.000000	0.000000	143.000000	64.000000	21.000000	-38.000000
2.130000	36.950000	50.910000	546.000000	0.000000	143.000000	64.000000	13.000000	-34.000000
2.140000	37.120000	50.500000	546.000000	0.000000	143.000000	64.000000	17.000000	-41.000000
2.150000	37.370000	50.130000	536.000000	0.000000	142.000000	65.000000	25.000000	-37.000000
2.160000	37.690000	49.850000	537.000000	0.000000	142.000000	65.000000	32.000000	-28.000000
2.170000	37.940000	49.630000	536.000000	0.000000	142.000000	65.000000	25.000000	-22.000000
2.180000	38.130000	49.520000	536.000000	0.000000	140.000000	66.000000	19.000000	-11.000000
2.190000	38.190000	49.470000	536.000000	0.000000	140.000000	66.000000	6.000000	-5.000000
2.200000	38.190000	49.470000	537.000000	0.000000	140.000000	66.000000	0.000000	0.000000
