t	x	y	pressure	penup	azimuth	inclination	v_x	v_y
0.000000	58.580000	50.230000	200.000000	1.000000	132.000000	57.000000	0.000000	0.000000
0.010000	58.530000	50.560000	305.000000	0.000000	134.000000	56.000000	-5.000000	33.000000
0.020000	58.530000	50.640000	460.000000	0.000000	136.000000	56.000000	0.000000	8.000000
0.030000	58.460000	50.640000	543.000000	0.000000	136.000000	56.000000	-7.000000	0.000000
0.040000	58.460000	50.640000	591.000000	0.000000	136.000000	56.000000	0.000000	0.000000
0.050000	58.460000	50.640000	622.000000	0.000000	138.000000	55.000000	0.000000	0.000000
0.060000	58.460000	50.580000	665.000000	0.000000	138.000000	55.000000	0.000000	-6.000000
0.070000	58.460000	50.260000	699.000000	0.000000	138.000000	55.000000	0.000000	-32.000000
0.080000	58.460000	49.770000	725.000000	0.000000	138.000000	55.000000	0.000000	-49.000000
0.090000	58.510000	49.290000	739.000000	0.000000	136.000000	56.000000	5.000000	-48.000000
0.100000	58.510000	48.560000	758.000000	0.000000	136.000000	56.000000	0.000000	-73.000000
0.110000	58.510000	47.660000	762.000000	0.000000	136.000000	56.000000	0.000000	-90.000000
0.120000	58.510000	46.880000	797.000000	0.000000	135.000000	57.000000	0.000000	-78.000000
0.130000	58.460000	46.070000	788.000000	0.000000	134.000000	57.000000	-5.000000	-81.000000
0.140000	58.460000	45.420000	811.000000	0.000000	132.000000	58.000000	0.000000	-65.000000
0.150000	58.540000	44.880000	820.000000	0.000000	131.000000	58.000000	8.000000	-54.000000
0.160000	58.640000	44.600000	823.000000	0.000000	129.000000	59.000000	10.000000	-28.000000
0.170000	58.640000	44.430000	826.000000	0.000000	128.000000	59.000000	0.000000	-17.000000
0.180000	58.640000	44.330000	829.000000	0.000000	126.000000	60.000000	0.000000	-10.000000
0.190000	58.640000	44.330000	832.000000	0.000000	125.000000	60.000000	0.000000	0.000000
0.200000	58.640000	44.330000	788.000000	0.000000	125.000000	60.000000	0.000000	0.000000
0.210000	58.640000	44.330000	691.000000	0.000000	125.000000	60.000000	0.000000	0.000000
0.220000	58.640000	44.330000	384.000000	0.000000	125.000000	60.000000	0.000000	0.000000
0.230000	58.640000	44.330000	0.000000	1.000000	125.000000	60.000000	0.000000	0.000000
0.240000	58.780000	45.140000	0.000000	0.000000	125.000000	60.000000	14.000000	81.000000
0.250000	58.950000	45.480000	0.000000	0.000000	125.000000	60.000000	17.000000	34.000000
0.260000	59.220000	45.840000	0.000000	0.000000	125.000000	60.000000	27.000000	36.000000
0.270000	59.610000	46.220000	0.000000	0.000000	125.000000	60.000000	39.000000	38.000000
0.280000	60.070000	46.550000	0.000000	0.000000	125.000000	59.000000	46.000000	33.000000
0.290000	60.530000	46.850000	0.000000	0.000000	125.000000	59.000000	46.000000	30.000000
0.300000	61.010000	47.070000	0.000000	0.000000	127.000000	59.000000	48.000000	22.000000
0.310000	61.500000	47.280000	0.000000	0.000000	127.000000	57.000000	49.000000	21.000000
0.320000	61.800000	47.490000	0.000000	0.000000	127.000000	57.000000	30.000000	21.000000
0.330000	61.970000	47.630000	0.000000	0.000000	127.000000	56.000000	17.000000	14.000000
0.340000	62.400000	47.790000	0.000000	0.000000	127.000000	56.000000	43.000000	16.000000
0.350000	62.400000	47.790000	312.000000	1.000000	127.000000	56.000000	0.000000	0.000000
0.360000	61.890000	48.110000	442.000000	0.000000	129.000000	56.000000	-51.000000	32.000000
0.370000	61.820000	48.280000	570.000000	0.000000	130.000000	56.000000	-7.000000	17.000000
0.380000	61.770000	48.380000	641.000000	0.000000	130.000000	56.000000	-5.000000	10.000000
0.390000	61.640000	48.460000	717.000000	0.000000	131.000000	57.000000	-13.000000	8.000000
0.400000	61.460000	48.510000	750.000000	0.000000	131.000000	57.000000	-18.000000	5.000000
0.410000	61.310000	48.510000	788.000000	0.000000	131.000000	57.000000	-15.000000	0.000000
0.420000	61.000000	48.330000	797.000000	0.000000	132.000000	58.000000	-31.000000	-18.000000
0.430000	60.590000	48.080000	817.000000	0.000000	132.000000	58.000000	-41.000000	-25.000000
0.440000	60.220000	47.870000	827.000000	0.000000	132.000000	58.000000	-37.000000	-21.000000
0.450000	60.090000	47.750000	827.000000	0.000000	132.000000	58.000000	-13.000000	-12.000000
0.460000	60.090000	47.700000	826.000000	0.000000	132.000000	58.000000	0.000000	-5.000000
0.470000	60.170000	47.500000	827.000000	0.000000	132.000000	58.000000	8.000000	-20.000000
0.480000	60.260000	47.300000	823.000000	0.000000	131.000000	58.000000	9.000000	-20.000000
0.490000	60.530000	47.080000	824.000000	0.000000	131.000000	58.000000	27.000000	-22.000000
0.500000	60.910000	46.870000	823.000000	0.000000	131.000000	58.000000	38.000000	-21.000000
0.510000	61.340000	46.640000	817.000000	0.000000	129.000000	59.000000	43.000000	-23.000000
0.520000	61.660000	46.380000	823.000000	0.000000	129.000000	59.000000	32.000000	-26.000000
0.530000	61.910000	46.080000	815.000000	0.000000	129.000000	59.000000	25.000000	-30.000000
0.540000	62.020000	45.730000	811.000000	0.000000	128.000000	59.000000	11.000000	-35.000000
0.550000	62.020000	45.350000	809.000000	0.000000	127.000000	59.000000	0.000000	-38.000000
0.560000	61.930000	44.960000	815.000000	0.000000	125.000000	59.000000	-9.000000	-39.000000
0.570000	61.710000	44.660000	815.000000	0.000000	125.000000	59.000000	-22.000000	-30.000000
0.580000	61.440000	44.490000	818.000000	0.000000	125.000000	59.000000	-27.000000	-17.000000
0.590000	61.130000	44.410000	817.000000	0.000000	124.000000	60.000000	-31.000000	-8.000000
0.600000	60.820000	44.490000	818.000000	0.000000	124.000000	60.000000	-31.000000	8.000000
0.610000	60.460000	44.640000	818.000000	0.000000	124.000000	60.000000	-36.000000	15.000000
0.620000	60.060000	44.850000	806.000000	0.000000	124.000000	60.000000	-40.000000	21.000000
0.630000	59.780000	45.080000	794.000000	0.000000	124.000000	60.000000	-28.000000	23.000000
0.640000	59.660000	45.300000	707.000000	0.000000	125.000000	60.000000	-12.000000	22.000000
0.650000	59.660000	45.500000	602.000000	0.000000	125.000000	60.000000	0.000000	20.000000
0.660000	59.760000	45.690000	373.000000	0.000000	125.000000	60.000000	10.000000	19.000000
0.670000	59.760000	45.690000	0.000000	1.000000	125.000000	60.000000	0.000000	0.000000
0.680000	60.140000	45.930000	0.000000	0.000000	125.000000	60.000000	38.000000	24.000000
0.690000	60.440000	46.040000	0.000000	0.000000	125.000000	60.000000	30.000000	11.000000
0.700000	60.780000	46.220000	0.000000	0.000000	124.000000	60.000000	34.000000	18.000000
0.710000	61.210000	46.460000	0.000000	0.000000	124.000000	60.000000	43.000000	24.000000
0.720000	61.780000	46.700000	0.000000	0.000000	123.000000	59.000000	57.000000	24.000000
0.730000	62.440000	46.950000	0.000000	0.000000	124.000000	58.000000	66.000000	25.000000
0.740000	62.910000	47.210000	0.000000	0.000000	123.000000	58.000000	47.000000	26.000000
0.750000	63.160000	47.450000	0.000000	0.000000	123.000000	56.000000	25.000000	24.000000
0.760000	63.250000	47.670000	0.000000	0.000000	125.000000	56.000000	9.000000	22.000000
0.770000	63.190000	47.850000	0.000000	0.000000	125.000000	56.000000	-6.000000	18.000000
0.780000	63.020000	48.020000	0.000000	0.000000	125.000000	55.000000	-17.000000	17.000000
0.790000	63.020000	48.020000	108.000000	1.000000	125.000000	55.000000	0.000000	0.000000
0.800000	62.600000	48.360000	304.000000	0.000000	126.000000	56.000000	-42.000000	34.000000
0.810000	62.440000	48.520000	467.000000	0.000000	127.000000	55.000000	-16.000000	16.000000
0.820000	62.350000	48.610000	594.000000	0.000000	127.000000	55.000000	-9.000000	9.000000
0.830000	62.350000	48.610000	609.000000	0.000000	129.000000	56.000000	0.000000	0.000000
0.840000	62.350000	48.610000	614.000000	0.000000	129.000000	56.000000	0.000000	0.000000
0.850000	62.350000	48.510000	610.000000	0.000000	129.000000	56.000000	0.000000	-10.000000
0.860000	62.440000	48.250000	616.000000	0.000000	129.000000	56.000000	9.000000	-26.000000
0.870000	62.530000	47.860000	620.000000	0.000000	129.000000	56.000000	9.000000	-39.000000
0.880000	62.650000	47.390000	628.000000	0.000000	129.000000	56.000000	12.000000	-47.000000
0.890000	62.780000	46.810000	633.000000	0.000000	127.000000	56.000000	13.000000	-58.000000
0.900000	62.850000	46.170000	642.000000	0.000000	127.000000	56.000000	7.000000	-64.000000
0.910000	62.850000	45.510000	644.000000	0.000000	126.000000	57.000000	0.000000	-66.000000
0.920000	62.930000	45.010000	678.000000	0.000000	126.000000	57.000000	8.000000	-50.000000
0.930000	62.930000	44.620000	697.000000	0.000000	124.000000	57.000000	0.000000	-39.000000
0.940000	62.980000	44.470000	757.000000	0.000000	124.000000	57.000000	5.000000	-15.000000
0.950000	62.980000	44.470000	809.000000	0.000000	123.000000	58.000000	0.000000	0.000000
0.960000	62.980000	44.470000	882.000000	0.000000	123.000000	58.000000	0.000000	0.000000
0.970000	62.930000	44.570000	899.000000	0.000000	121.000000	58.000000	-5.000000	10.000000
0.980000	62.930000	44.860000	912.000000	0.000000	121.000000	58.000000	0.000000	29.000000
0.990000	62.830000	45.300000	915.000000	0.000000	121.000000	58.000000	-10.000000	44.000000
1.000000	62.830000	45.720000	912.000000	0.000000	121.000000	58.000000	0.000000	42.000000
1.010000	62.890000	46.330000	915.000000	0.000000	121.000000	58.000000	6.000000	61.000000
1.020000	63.070000	47.080000	903.000000	0.000000	121.000000	58.000000	18.000000	75.000000
1.030000	63.390000	47.720000	894.000000	0.000000	123.000000	58.000000	32.000000	64.000000
1.040000	63.720000	48.360000	905.000000	0.000000	123.000000	58.000000	33.000000	64.000000
1.050000	63.950000	48.570000	893.000000	0.000000	124.000000	57.000000	23.000000	21.000000
1.060000	64.120000	48.500000	872.000000	0.000000	126.000000	57.000000	17.000000	-7.000000
1.070000	64.350000	48.410000	855.000000	0.000000	126.000000	57.000000	23.000000	-9.000000
1.080000	64.510000	48.100000	858.000000	0.000000	127.000000	56.000000	16.000000	-31.000000
1.090000	64.630000	47.650000	834.000000	0.000000	127.000000	56.000000	12.000000	-45.000000
1.100000	64.700000	47.140000	793.000000	0.000000	127.000000	56.000000	7.000000	-51.000000
1.110000	64.790000	46.660000	727.000000	0.000000	127.000000	56.000000	9.000000	-48.000000
1.120000	64.920000	46.360000	581.000000	0.000000	127.000000	56.000000	13.000000	-30.000000
1.130000	65.100000	46.160000	377.000000	0.000000	126.000000	57.000000	18.000000	-20.000000
1.140000	65.190000	46.160000	78.000000	0.000000	126.000000	57.000000	9.000000	0.000000
1.150000	65.190000	46.160000	0.000000	1.000000	124.000000	57.000000	0.000000	0.000000
1.160000	65.240000	46.540000	0.000000	0.000000	124.000000	57.000000	5.000000	38.000000
1.170000	65.240000	46.900000	0.000000	0.000000	124.000000	57.000000	0.000000	36.000000
1.180000	65.340000	47.270000	0.000000	0.000000	124.000000	57.000000	10.000000	37.000000
1.190000	65.410000	47.640000	0.000000	0.000000	124.000000	57.000000	7.000000	37.000000
1.200000	65.460000	47.950000	0.000000	0.000000	124.000000	57.000000	5.000000	31.000000
1.210000	65.460000	48.210000	0.000000	0.000000	124.000000	57.000000	0.000000	26.000000
1.220000	65.460000	48.210000	94.000000	1.000000	126.000000	57.000000	0.000000	0.000000
1.230000	65.460000	48.210000	267.000000	0.000000	126.000000	57.000000	0.000000	0.000000
1.240000	65.460000	48.210000	409.000000	0.000000	127.000000	56.000000	0.000000	0.000000
1.250000	65.460000	48.210000	554.000000	0.000000	127.000000	56.000000	0.000000	0.000000
1.260000	65.460000	48.210000	588.000000	0.000000	127.000000	56.000000	0.000000	0.000000
1.270000	65.460000	48.210000	595.000000	0.000000	129.000000	56.000000	0.000000	0.000000
1.280000	65.460000	48.210000	613.000000	0.000000	130.000000	56.000000	0.000000	0.000000
1.290000	65.460000	48.210000	614.000000	0.000000	130.000000	56.000000	0.000000	0.000000
1.300000	65.680000	47.890000	631.000000	0.000000	130.000000	56.000000	22.000000	-32.000000
1.310000	65.890000	47.530000	638.000000	0.000000	130.000000	56.000000	21.000000	-36.000000
1.320000	66.120000	47.110000	646.000000	0.000000	130.000000	56.000000	23.000000	-42.000000
1.330000	66.350000	46.670000	647.000000	0.000000	130.000000	58.000000	23.000000	-44.000000
1.340000	66.510000	46.240000	649.000000	0.000000	130.000000	58.000000	16.000000	-43.000000
1.350000	66.630000	45.930000	655.000000	0.000000	130.000000	58.000000	12.000000	-31.000000
1.360000	66.760000	45.690000	658.000000	0.000000	128.000000	58.000000	13.000000	-24.000000
1.370000	66.760000	45.690000	666.000000	0.000000	128.000000	58.000000	0.000000	0.000000
1.380000	66.760000	45.690000	693.000000	0.000000	127.000000	59.000000	0.000000	0.000000
1.390000	66.760000	45.810000	710.000000	0.000000	125.000000	59.000000	0.000000	12.000000
1.400000	66.610000	46.030000	771.000000	0.000000	125.000000	59.000000	-15.000000	22.000000
1.410000	66.430000	46.290000	788.000000	0.000000	125.000000	59.000000	-18.000000	26.000000
1.420000	66.240000	46.580000	783.000000	0.000000	125.000000	59.000000	-19.000000	29.000000
1.430000	65.980000	46.700000	791.000000	0.000000	125.000000	59.000000	-26.000000	12.000000
1.440000	65.670000	46.780000	796.000000	0.000000	125.000000	59.000000	-31.000000	8.000000
1.450000	65.310000	46.670000	791.000000	0.000000	127.000000	59.000000	-36.000000	-11.000000
1.460000	64.960000	46.460000	791.000000	0.000000	127.000000	59.000000	-35.000000	-21.000000
1.470000	64.630000	46.130000	793.000000	0.000000	127.000000	59.000000	-33.000000	-33.000000
1.480000	64.480000	45.790000	784.000000	0.000000	126.000000	58.000000	-15.000000	-34.000000
1.490000	64.480000	45.470000	796.000000	0.000000	126.000000	58.000000	0.000000	-32.000000
1.500000	64.480000	45.160000	784.000000	0.000000	126.000000	58.000000	0.000000	-31.000000
1.510000	64.760000	44.940000	771.000000	0.000000	124.000000	58.000000	28.000000	-22.000000
1.520000	65.170000	44.850000	765.000000	0.000000	124.000000	58.000000	41.000000	-9.000000
1.530000	65.610000	44.850000	753.000000	0.000000	123.000000	58.000000	44.000000	0.000000
1.540000	66.040000	45.040000	761.000000	0.000000	123.000000	58.000000	43.000000	19.000000
1.550000	66.350000	45.290000	758.000000	0.000000	124.000000	58.000000	31.000000	25.000000
1.560000	66.570000	45.570000	758.000000	0.000000	124.000000	58.000000	22.000000	28.000000
1.570000	66.790000	45.990000	758.000000	0.000000	124.000000	58.000000	22.000000	42.000000
1.580000	66.790000	46.270000	761.000000	0.000000	124.000000	58.000000	0.000000	28.000000
1.590000	66.790000	46.450000	765.000000	0.000000	125.000000	59.000000	0.000000	18.000000
1.600000	66.730000	46.450000	776.000000	0.000000	125.000000	59.000000	-6.000000	0.000000
1.610000	66.730000	46.450000	771.000000	0.000000	125.000000	59.000000	0.000000	0.000000
1.620000	66.730000	46.370000	779.000000	0.000000	125.000000	59.000000	0.000000	-8.000000
1.630000	66.620000	46.040000	782.000000	0.000000	127.000000	59.000000	-11.000000	-33.000000
1.640000	66.620000	45.550000	785.000000	0.000000	127.000000	59.000000	0.000000	-49.000000
1.650000	66.760000	45.130000	777.000000	0.000000	127.000000	59.000000	14.000000	-42.000000
1.660000	67.020000	44.720000	757.000000	0.000000	127.000000	59.000000	26.000000	-41.000000
1.670000	67.460000	44.350000	693.000000	0.000000	125.000000	59.000000	44.000000	-37.000000
1.680000	67.840000	44.100000	520.000000	0.000000	126.000000	60.000000	38.000000	-25.000000
1.690000	67.840000	44.100000	0.000000	1.000000	126.000000	60.000000	0.000000	0.000000
1.700000	68.170000	43.850000	0.000000	0.000000	126.000000	60.000000	33.000000	-25.000000
1.710000	67.950000	43.920000	0.000000	0.000000	128.000000	61.000000	-22.000000	7.000000
1.720000	67.500000	44.080000	0.000000	0.000000	129.000000	60.000000	-45.000000	16.000000
1.730000	67.000000	44.290000	0.000000	0.000000	129.000000	60.000000	-50.000000	21.000000
1.740000	66.350000	44.570000	0.000000	0.000000	132.000000	60.000000	-65.000000	28.000000
1.750000	65.590000	44.910000	0.000000	0.000000	132.000000	60.000000	-76.000000	34.000000
1.760000	64.520000	45.290000	0.000000	0.000000	132.000000	59.000000	-107.000000	38.000000
1.770000	63.190000	45.620000	0.000000	0.000000	132.000000	59.000000	-133.000000	33.000000
1.780000	61.690000	45.930000	0.000000	0.000000	132.000000	58.000000	-150.000000	31.000000
1.790000	60.320000	46.240000	0.000000	0.000000	132.000000	57.000000	-137.000000	31.000000
1.800000	59.090000	46.530000	0.000000	0.000000	132.000000	55.000000	-123.000000	29.000000
1.810000	57.960000	46.860000	0.000000	0.000000	133.000000	54.000000	-113.000000	33.000000
1.820000	56.950000	47.220000	0.000000	0.000000	131.000000	54.000000	-101.000000	36.000000
1.830000	56.200000	47.680000	0.000000	0.000000	131.000000	52.000000	-75.000000	46.000000
1.840000	55.630000	48.190000	0.000000	0.000000	131.000000	52.000000	-57.000000	51.000000
1.850000	55.190000	48.740000	0.000000	0.000000	130.000000	53.000000	-44.000000	55.000000
1.860000	54.950000	49.130000	0.000000	0.000000	131.000000	54.000000	-24.000000	39.000000
1.870000	54.840000	49.490000	0.000000	0.000000	131.000000	54.000000	-11.000000	36.000000
1.880000	55.020000	49.810000	0.000000	0.000000	133.000000	54.000000	18.000000	32.000000
1.890000	55.020000	49.810000	108.000000	1.000000	133.000000	54.000000	0.000000	0.000000
1.900000	55.420000	50.400000	203.000000	0.000000	133.000000	54.000000	40.000000	59.000000
1.910000	55.550000	50.600000	334.000000	0.000000	133.000000	54.000000	13.000000	20.000000
1.920000	55.550000	50.650000	422.000000	0.000000	133.000000	54.000000	0.000000	5.000000
1.930000	55.660000	50.600000	496.000000	0.000000	133.000000	54.000000	11.000000	-5.000000
1.940000	55.800000	50.380000	553.000000	0.000000	134.000000	54.000000	14.000000	-22.000000
1.950000	56.040000	49.870000	599.000000	0.000000	134.000000	54.000000	24.000000	-51.000000
1.960000	56.270000	49.160000	641.000000	0.000000	134.000000	54.000000	23.000000	-71.000000
1.970000	56.470000	48.110000	671.000000	0.000000	135.000000	54.000000	20.000000	-105.000000
1.980000	56.700000	46.910000	676.000000	0.000000	134.000000	55.000000	23.000000	-120.000000
1.990000	56.930000	45.620000	685.000000	0.000000	132.000000	55.000000	23.000000	-129.000000
2.000000	57.160000	44.480000	697.000000	0.000000	131.000000	56.000000	23.000000	-114.000000
2.010000	57.300000	43.540000	694.000000	0.000000	131.000000	57.000000	14.000000	-94.000000
2.020000	57.390000	42.740000	703.000000	0.000000	130.000000	58.000000	9.000000	-80.000000
2.030000	57.450000	42.170000	725.000000	0.000000	128.000000	58.000000	6.000000	-57.000000
2.040000	57.450000	41.930000	755.000000	0.000000	128.000000	58.000000	0.000000	-24.000000
2.050000	57.450000	41.930000	787.000000	0.000000	127.000000	59.000000	0.000000	0.000000
2.060000	57.350000	41.930000	783.000000	0.000000	127.000000	59.000000	-10.000000	0.000000
2.070000	57.120000	42.270000	783.000000	0.000000	127.000000	59.000000	-23.000000	34.000000
2.080000	56.790000	42.740000	783.000000	0.000000	127.000000	59.000000	-33.000000	47.000000
2.090000	56.310000	43.330000	794.000000	0.000000	128.000000	58.000000	-48.000000	59.000000
2.100000	55.640000	43.930000	774.000000	0.000000	127.000000	59.000000	-67.000000	60.000000
2.110000	54.850000	44.540000	771.000000	0.000000	127.000000	59.000000	-79.000000	61.000000
2.120000	53.860000	44.920000	759.000000	0.000000	126.000000	58.000000	-99.000000	38.000000
2.130000	52.670000	45.070000	767.000000	0.000000	126.000000	58.000000	-119.000000	15.000000
2.140000	51.340000	45.070000	768.000000	0.000000	124.000000	58.000000	-133.000000	0.000000
2.150000	50.250000	45.070000	776.000000	0.000000	124.000000	58.000000	-109.000000	0.000000
2.160000	49.550000	44.920000	779.000000	0.000000	124.000000	58.000000	-70.000000	-15.000000
2.170000	49.120000	44.750000	771.000000	0.000000	124.000000	58.000000	-43.000000	-17.000000
2.180000	49.260000	44.600000	771.000000	0.000000	125.000000	59.000000	14.000000	-15.000000
2.190000	49.860000	44.520000	776.000000	0.000000	125.000000	59.000000	60.000000	-8.000000
2.200000	50.770000	44.360000	776.000000	0.000000	125.000000	59.000000	91.000000	-16.000000
2.210000	52.480000	44.410000	784.000000	0.000000	125.000000	59.000000	171.000000	5.000000
