t	x	y	pressure	penup	azimuth	inclination	v_x	v_y
0.000000	84.570000	29.720000	50.000000	1.000000	139.000000	61.000000	0.000000	0.000000
0.010000	84.360000	30.510000	161.000000	0.000000	139.000000	61.000000	-21.000000	79.000000
0.020000	84.190000	30.800000	178.000000	0.000000	141.000000	61.000000	-17.000000	29.000000
0.030000	84.080000	31.050000	237.000000	0.000000	141.000000	61.000000	-11.000000	25.000000
0.040000	84.080000	31.240000	284.000000	0.000000	142.000000	61.000000	0.000000	19.000000
0.050000	84.080000	31.350000	302.000000	0.000000	142.000000	61.000000	0.000000	11.000000
0.060000	84.080000	31.350000	317.000000	0.000000	142.000000	61.000000	0.000000	0.000000
0.070000	84.080000	31.350000	309.000000	0.000000	144.000000	60.000000	0.000000	0.000000
0.080000	84.140000	31.260000	338.000000	0.000000	144.000000	60.000000	6.000000	-9.000000
0.090000	84.320000	30.910000	343.000000	0.000000	144.000000	60.000000	18.000000	-35.000000
0.100000	84.560000	30.410000	348.000000	0.000000	144.000000	60.000000	24.000000	-50.000000
0.110000	84.820000	29.760000	351.000000	0.000000	144.000000	60.000000	26.000000	-65.000000
0.120000	85.120000	29.060000	349.000000	0.000000	142.000000	61.000000	30.000000	-70.000000
0.130000	85.480000	28.160000	349.000000	0.000000	142.000000	61.000000	36.000000	-90.000000
0.140000	85.840000	27.140000	348.000000	0.000000	142.000000	61.000000	36.000000	-102.000000
0.150000	86.220000	26.150000	349.000000	0.000000	141.000000	61.000000	38.000000	-99.000000
0.160000	86.490000	25.340000	349.000000	0.000000	140.000000	62.000000	27.000000	-81.000000
0.170000	86.690000	24.650000	359.000000	0.000000	138.000000	63.000000	20.000000	-69.000000
0.180000	86.760000	24.130000	372.000000	0.000000	140.000000	63.000000	7.000000	-52.000000
0.190000	86.760000	23.790000	389.000000	0.000000	138.000000	64.000000	0.000000	-34.000000
0.200000	86.760000	23.580000	443.000000	0.000000	138.000000	64.000000	0.000000	-21.000000
0.210000	86.680000	23.580000	449.000000	0.000000	138.000000	64.000000	-8.000000	0.000000
0.220000	86.400000	23.850000	444.000000	0.000000	138.000000	64.000000	-28.000000	27.000000
0.230000	85.990000	24.260000	440.000000	0.000000	138.000000	64.000000	-41.000000	41.000000
0.240000	85.680000	24.830000	379.000000	0.000000	138.000000	64.000000	-31.000000	57.000000
0.250000	85.420000	25.460000	305.000000	0.000000	135.000000	64.000000	-26.000000	63.000000
0.260000	85.220000	26.130000	141.000000	0.000000	135.000000	64.000000	-20.000000	67.000000
0.270000	85.220000	26.130000	0.000000	1.000000	135.000000	64.000000	0.000000	0.000000
0.280000	84.820000	27.260000	0.000000	0.000000	135.000000	64.000000	-40.000000	113.000000
0.290000	84.650000	27.580000	0.000000	0.000000	135.000000	63.000000	-17.000000	32.000000
0.300000	84.530000	27.740000	0.000000	0.000000	135.000000	63.000000	-12.000000	16.000000
0.310000	84.480000	27.650000	0.000000	0.000000	135.000000	63.000000	-5.000000	-9.000000
0.320000	84.650000	27.310000	0.000000	0.000000	135.000000	63.000000	17.000000	-34.000000
0.330000	84.970000	26.800000	0.000000	0.000000	138.000000	63.000000	32.000000	-51.000000
0.340000	85.700000	26.280000	0.000000	0.000000	138.000000	63.000000	73.000000	-52.000000
0.350000	86.360000	25.750000	0.000000	0.000000	140.000000	62.000000	66.000000	-53.000000
0.360000	86.980000	25.230000	0.000000	0.000000	141.000000	63.000000	62.000000	-52.000000
0.370000	87.720000	24.800000	0.000000	0.000000	141.000000	63.000000	74.000000	-43.000000
0.380000	88.360000	24.410000	0.000000	0.000000	144.000000	62.000000	64.000000	-39.000000
0.390000	88.930000	24.110000	0.000000	0.000000	146.000000	63.000000	57.000000	-30.000000
0.400000	89.420000	24.000000	0.000000	0.000000	146.000000	63.000000	49.000000	-11.000000
0.410000	89.720000	24.000000	0.000000	0.000000	148.000000	63.000000	30.000000	0.000000
0.420000	89.890000	24.160000	0.000000	0.000000	148.000000	63.000000	17.000000	16.000000
0.430000	89.980000	24.350000	0.000000	0.000000	148.000000	63.000000	9.000000	19.000000
0.440000	89.980000	24.570000	0.000000	0.000000	148.000000	63.000000	0.000000	22.000000
0.450000	89.870000	24.760000	0.000000	0.000000	146.000000	64.000000	-11.000000	19.000000
0.460000	89.740000	24.950000	0.000000	0.000000	146.000000	64.000000	-13.000000	19.000000
0.470000	89.590000	25.170000	0.000000	0.000000	146.000000	64.000000	-15.000000	22.000000
0.480000	89.420000	25.420000	0.000000	0.000000	145.000000	64.000000	-17.000000	25.000000
0.490000	89.250000	25.700000	0.000000	0.000000	143.000000	64.000000	-17.000000	28.000000
0.500000	89.100000	26.030000	0.000000	0.000000	143.000000	64.000000	-15.000000	33.000000
0.510000	88.970000	26.400000	0.000000	0.000000	143.000000	64.000000	-13.000000	37.000000
0.520000	88.970000	26.400000	25.000000	1.000000	143.000000	64.000000	0.000000	0.000000
0.530000	88.700000	27.060000	68.000000	0.000000	143.000000	64.000000	-27.000000	66.000000
0.540000	88.540000	27.340000	119.000000	0.000000	143.000000	64.000000	-16.000000	28.000000
0.550000	88.370000	27.550000	160.000000	0.000000	143.000000	64.000000	-17.000000	21.000000
0.560000	88.260000	27.630000	173.000000	0.000000	145.000000	65.000000	-11.000000	8.000000
0.570000	88.130000	27.630000	213.000000	0.000000	145.000000	65.000000	-13.000000	0.000000
0.580000	88.010000	27.530000	222.000000	0.000000	145.000000	65.000000	-12.000000	-10.000000
0.590000	87.900000	27.390000	206.000000	0.000000	146.000000	64.000000	-11.000000	-14.000000
0.600000	87.840000	27.170000	207.000000	0.000000	146.000000	64.000000	-6.000000	-22.000000
0.610000	87.840000	26.880000	207.000000	0.000000	146.000000	64.000000	0.000000	-29.000000
0.620000	87.840000	26.560000	209.000000	0.000000	146.000000	64.000000	0.000000	-32.000000
0.630000	87.840000	26.220000	211.000000	0.000000	143.000000	64.000000	0.000000	-34.000000
0.640000	87.980000	25.870000	214.000000	0.000000	143.000000	64.000000	14.000000	-35.000000
0.650000	88.140000	25.470000	216.000000	0.000000	143.000000	64.000000	16.000000	-40.000000
0.660000	88.330000	25.090000	232.000000	0.000000	142.000000	65.000000	19.000000	-38.000000
0.670000	88.540000	24.800000	256.000000	0.000000	142.000000	65.000000	21.000000	-29.000000
0.680000	88.720000	24.560000	279.000000	0.000000	142.000000	65.000000	18.000000	-24.000000
0.690000	88.940000	24.470000	307.000000	0.000000	142.000000	65.000000	22.000000	-9.000000
0.700000	89.150000	24.470000	334.000000	0.000000	144.000000	66.000000	21.000000	0.000000
0.710000	89.330000	24.640000	353.000000	0.000000	144.000000	66.000000	18.000000	17.000000
0.720000	89.480000	24.910000	364.000000	0.000000	144.000000	66.000000	15.000000	27.000000
0.730000	89.610000	25.250000	377.000000	0.000000	144.000000	66.000000	13.000000	34.000000
0.740000	89.680000	25.640000	392.000000	0.000000	144.000000	66.000000	7.000000	39.000000
0.750000	89.680000	26.000000	397.000000	0.000000	144.000000	66.000000	0.000000	36.000000
0.760000	89.600000	26.350000	407.000000	0.000000	144.000000	66.000000	-8.000000	35.000000
0.770000	89.500000	26.690000	413.000000	0.000000	144.000000	66.000000	-10.000000	34.000000
0.780000	89.330000	26.990000	428.000000	0.000000	144.000000	66.000000	-17.000000	30.000000
0.790000	89.100000	27.230000	468.000000	0.000000	144.000000	66.000000	-23.000000	24.000000
0.800000	88.990000	27.390000	478.000000	0.000000	144.000000	66.000000	-11.000000	16.000000
0.810000	88.890000	27.460000	494.000000	0.000000	145.000000	65.000000	-10.000000	7.000000
0.820000	88.890000	27.460000	507.000000	0.000000	145.000000	65.000000	0.000000	0.000000
0.830000	88.890000	27.460000	505.000000	0.000000	145.000000	65.000000	0.000000	0.000000
0.840000	88.890000	27.460000	509.000000	0.000000	147.000000	65.000000	0.000000	0.000000
0.850000	88.890000	27.460000	504.000000	0.000000	148.000000	65.000000	0.000000	0.000000
0.860000	89.150000	27.000000	510.000000	0.000000	148.000000	65.000000	26.000000	-46.000000
0.870000	89.320000	26.620000	509.000000	0.000000	147.000000	65.000000	17.000000	-38.000000
0.880000	89.520000	26.230000	501.000000	0.000000	147.000000	65.000000	20.000000	-39.000000
0.890000	89.730000	25.810000	499.000000	0.000000	147.000000	65.000000	21.000000	-42.000000
0.900000	89.970000	25.450000	496.000000	0.000000	147.000000	65.000000	24.000000	-36.000000
0.910000	90.250000	25.120000	495.000000	0.000000	146.000000	66.000000	28.000000	-33.000000
0.920000	90.510000	24.890000	491.000000	0.000000	146.000000	66.000000	26.000000	-23.000000
0.930000	90.730000	24.820000	493.000000	0.000000	146.000000	66.000000	22.000000	-7.000000
0.940000	90.970000	24.820000	488.000000	0.000000	148.000000	67.000000	24.000000	0.000000
0.950000	91.180000	24.990000	494.000000	0.000000	148.000000	67.000000	21.000000	17.000000
0.960000	91.310000	25.240000	509.000000	0.000000	148.000000	67.000000	13.000000	25.000000
0.970000	91.410000	25.580000	514.000000	0.000000	148.000000	67.000000	10.000000	34.000000
0.980000	91.410000	25.910000	522.000000	0.000000	148.000000	67.000000	0.000000	33.000000
0.990000	91.410000	26.280000	513.000000	0.000000	148.000000	67.000000	0.000000	37.000000
1.000000	91.230000	26.680000	521.000000	0.000000	148.000000	67.000000	-18.000000	40.000000
1.010000	91.030000	27.110000	529.000000	0.000000	148.000000	67.000000	-20.000000	43.000000
1.020000	90.830000	27.490000	532.000000	0.000000	148.000000	67.000000	-20.000000	38.000000
1.030000	90.680000	27.830000	541.000000	0.000000	148.000000	67.000000	-15.000000	34.000000
1.040000	90.560000	28.070000	551.000000	0.000000	149.000000	66.000000	-12.000000	24.000000
1.050000	90.500000	28.270000	560.000000	0.000000	147.000000	65.000000	-6.000000	20.000000
1.060000	90.500000	28.320000	561.000000	0.000000	147.000000	65.000000	0.000000	5.000000
1.070000	90.500000	28.320000	562.000000	0.000000	148.000000	65.000000	0.000000	0.000000
1.080000	90.500000	28.250000	564.000000	0.000000	146.000000	64.000000	0.000000	-7.000000
1.090000	90.560000	28.150000	564.000000	0.000000	146.000000	64.000000	6.000000	-10.000000
1.100000	90.650000	27.870000	560.000000	0.000000	148.000000	63.000000	9.000000	-28.000000
1.110000	90.790000	27.500000	562.000000	0.000000	148.000000	63.000000	14.000000	-37.000000
1.120000	90.990000	27.070000	564.000000	0.000000	146.000000	64.000000	20.000000	-43.000000
1.130000	91.190000	26.650000	564.000000	0.000000	146.000000	64.000000	20.000000	-42.000000
1.140000	91.420000	26.260000	556.000000	0.000000	148.000000	65.000000	23.000000	-39.000000
1.150000	91.640000	25.830000	536.000000	0.000000	147.000000	65.000000	22.000000	-43.000000
1.160000	91.860000	25.510000	530.000000	0.000000	147.000000	65.000000	22.000000	-32.000000
1.170000	92.140000	25.260000	512.000000	0.000000	149.000000	66.000000	28.000000	-25.000000
1.180000	92.440000	25.150000	441.000000	0.000000	148.000000	67.000000	30.000000	-11.000000
1.190000	92.770000	25.200000	257.000000	0.000000	148.000000	67.000000	33.000000	5.000000
1.200000	93.130000	25.370000	36.000000	0.000000	148.000000	67.000000	36.000000	17.000000
1.210000	93.130000	25.370000	0.000000	1.000000	148.000000	67.000000	0.000000	0.000000
1.220000	93.880000	25.980000	0.000000	0.000000	148.000000	67.000000	75.000000	61.000000
1.230000	94.130000	26.290000	0.000000	0.000000	148.000000	67.000000	25.000000	31.000000
1.240000	94.310000	26.500000	0.000000	0.000000	148.000000	67.000000	18.000000	21.000000
1.250000	94.310000	26.690000	0.000000	0.000000	148.000000	67.000000	0.000000	19.000000
1.260000	94.390000	26.840000	0.000000	0.000000	148.000000	67.000000	8.000000	15.000000
1.270000	94.390000	27.020000	0.000000	0.000000	148.000000	67.000000	0.000000	18.000000
1.280000	94.390000	27.020000	53.000000	1.000000	148.000000	67.000000	0.000000	0.000000
1.290000	94.160000	27.460000	108.000000	0.000000	149.000000	66.000000	-23.000000	44.000000
1.300000	94.040000	27.700000	171.000000	0.000000	147.000000	65.000000	-12.000000	24.000000
1.310000	93.860000	27.890000	254.000000	0.000000	147.000000	65.000000	-18.000000	19.000000
1.320000	93.640000	28.020000	291.000000	0.000000	147.000000	65.000000	-22.000000	13.000000
1.330000	93.470000	28.090000	310.000000	0.000000	146.000000	64.000000	-17.000000	7.000000
1.340000	93.290000	28.090000	319.000000	0.000000	146.000000	64.000000	-18.000000	0.000000
1.350000	93.100000	28.090000	338.000000	0.000000	146.000000	64.000000	-19.000000	0.000000
1.360000	92.900000	27.980000	338.000000	0.000000	145.000000	64.000000	-20.000000	-11.000000
1.370000	92.770000	27.830000	339.000000	0.000000	145.000000	64.000000	-13.000000	-15.000000
1.380000	92.660000	27.630000	344.000000	0.000000	145.000000	64.000000	-11.000000	-20.000000
1.390000	92.590000	27.370000	344.000000	0.000000	146.000000	64.000000	-7.000000	-26.000000
1.400000	92.590000	27.020000	349.000000	0.000000	146.000000	64.000000	0.000000	-35.000000
1.410000	92.670000	26.620000	353.000000	0.000000	146.000000	64.000000	8.000000	-40.000000
1.420000	92.810000	26.280000	359.000000	0.000000	147.000000	65.000000	14.000000	-34.000000
1.430000	93.000000	25.990000	371.000000	0.000000	147.000000	65.000000	19.000000	-29.000000
1.440000	93.270000	25.740000	376.000000	0.000000	147.000000	65.000000	27.000000	-25.000000
1.450000	93.590000	25.630000	388.000000	0.000000	148.000000	67.000000	32.000000	-11.000000
1.460000	93.900000	25.630000	418.000000	0.000000	148.000000	67.000000	31.000000	0.000000
1.470000	94.210000	25.700000	422.000000	0.000000	148.000000	67.000000	31.000000	7.000000
1.480000	94.490000	25.940000	425.000000	0.000000	148.000000	67.000000	28.000000	24.000000
1.490000	94.760000	26.280000	414.000000	0.000000	148.000000	67.000000	27.000000	34.000000
1.500000	94.860000	26.690000	422.000000	0.000000	148.000000	67.000000	10.000000	41.000000
1.510000	94.860000	27.070000	423.000000	0.000000	148.000000	67.000000	0.000000	38.000000
1.520000	94.730000	27.380000	420.000000	0.000000	148.000000	67.000000	-13.000000	31.000000
1.530000	94.580000	27.630000	427.000000	0.000000	148.000000	67.000000	-15.000000	25.000000
1.540000	94.410000	27.850000	443.000000	0.000000	147.000000	65.000000	-17.000000	22.000000
1.550000	94.270000	27.900000	463.000000	0.000000	147.000000	65.000000	-14.000000	5.000000
1.560000	94.170000	27.900000	474.000000	0.000000	147.000000	65.000000	-10.000000	0.000000
1.570000	94.170000	27.900000	468.000000	0.000000	145.000000	65.000000	0.000000	0.000000
1.580000	94.170000	27.840000	465.000000	0.000000	146.000000	64.000000	0.000000	-6.000000
1.590000	94.170000	27.700000	469.000000	0.000000	146.000000	64.000000	0.000000	-14.000000
1.600000	94.320000	27.440000	448.000000	0.000000	145.000000	64.000000	15.000000	-26.000000
1.610000	94.510000	27.110000	389.000000	0.000000	145.000000	64.000000	19.000000	-33.000000
1.620000	94.760000	26.840000	119.000000	0.000000	146.000000	64.000000	25.000000	-27.000000
1.630000	94.760000	26.840000	0.000000	1.000000	145.000000	65.000000	0.000000	0.000000
1.640000	95.440000	26.530000	0.000000	0.000000	145.000000	65.000000	68.000000	-31.000000
1.650000	95.930000	26.590000	0.000000	0.000000	147.000000	65.000000	49.000000	6.000000
1.660000	96.400000	26.670000	0.000000	0.000000	147.000000	65.000000	47.000000	8.000000
1.670000	96.870000	26.670000	0.000000	0.000000	150.000000	65.000000	47.000000	0.000000
1.680000	97.350000	26.670000	0.000000	0.000000	153.000000	65.000000	48.000000	0.000000
1.690000	97.850000	26.720000	0.000000	0.000000	156.000000	64.000000	50.000000	5.000000
1.700000	98.250000	26.670000	0.000000	0.000000	159.000000	64.000000	40.000000	-5.000000
1.710000	98.570000	26.620000	0.000000	0.000000	162.000000	63.000000	32.000000	-5.000000
1.720000	98.860000	26.560000	0.000000	0.000000	166.000000	62.000000	29.000000	-6.000000
1.730000	99.060000	26.560000	0.000000	0.000000	169.000000	62.000000	20.000000	0.000000
1.740000	99.210000	26.690000	0.000000	0.000000	171.000000	61.000000	15.000000	13.000000
1.750000	99.210000	26.760000	0.000000	0.000000	173.000000	61.000000	0.000000	7.000000
1.760000	99.000000	26.760000	0.000000	0.000000	175.000000	60.000000	-21.000000	0.000000
1.770000	98.750000	26.760000	0.000000	0.000000	175.000000	60.000000	-25.000000	0.000000
1.780000	98.390000	26.760000	0.000000	0.000000	175.000000	60.000000	-36.000000	0.000000
1.790000	98.030000	26.760000	0.000000	0.000000	175.000000	60.000000	-36.000000	0.000000
1.800000	97.670000	26.760000	0.000000	0.000000	175.000000	60.000000	-36.000000	0.000000
1.810000	97.330000	26.760000	0.000000	0.000000	173.000000	61.000000	-34.000000	0.000000
1.820000	97.010000	26.900000	0.000000	0.000000	169.000000	61.000000	-32.000000	14.000000
1.830000	96.930000	27.010000	0.000000	0.000000	167.000000	61.000000	-8.000000	11.000000
1.840000	96.770000	27.150000	0.000000	0.000000	165.000000	61.000000	-16.000000	14.000000
1.850000	96.550000	27.300000	0.000000	0.000000	163.000000	62.000000	-22.000000	15.000000
1.860000	96.460000	27.350000	0.000000	0.000000	160.000000	63.000000	-9.000000	5.000000
1.870000	96.400000	27.350000	0.000000	0.000000	157.000000	63.000000	-6.000000	0.000000
1.880000	96.400000	27.420000	0.000000	0.000000	154.000000	64.000000	0.000000	7.000000
1.890000	96.560000	27.420000	0.000000	0.000000	153.000000	65.000000	16.000000	0.000000
1.900000	96.800000	27.470000	0.000000	0.000000	150.000000	65.000000	24.000000	5.000000
1.910000	97.060000	27.390000	0.000000	0.000000	149.000000	66.000000	26.000000	-8.000000
1.920000	97.330000	27.120000	0.000000	0.000000	149.000000	66.000000	27.000000	-27.000000
1.930000	97.630000	26.730000	0.000000	0.000000	148.000000	67.000000	30.000000	-39.000000
1.940000	97.870000	26.270000	0.000000	0.000000	148.000000	67.000000	24.000000	-46.000000
1.950000	98.080000	25.770000	0.000000	0.000000	150.000000	67.000000	21.000000	-50.000000
1.960000	98.230000	25.260000	0.000000	0.000000	153.000000	67.000000	15.000000	-51.000000
1.970000	98.340000	24.770000	0.000000	0.000000	156.000000	66.000000	11.000000	-49.000000
1.980000	98.430000	24.300000	0.000000	0.000000	159.000000	67.000000	9.000000	-47.000000
1.990000	98.430000	23.810000	0.000000	0.000000	159.000000	67.000000	0.000000	-49.000000
2.000000	98.280000	23.310000	0.000000	0.000000	161.000000	67.000000	-15.000000	-50.000000
2.010000	98.130000	22.850000	0.000000	0.000000	161.000000	67.000000	-15.000000	-46.000000
2.020000	97.990000	22.400000	0.000000	0.000000	161.000000	67.000000	-14.000000	-45.000000
2.030000	97.850000	21.970000	0.000000	0.000000	160.000000	68.000000	-14.000000	-43.000000
2.040000	97.690000	21.670000	0.000000	0.000000	158.000000	67.000000	-16.000000	-30.000000
2.050000	97.580000	21.490000	0.000000	0.000000	155.000000	67.000000	-11.000000	-18.000000
2.060000	97.490000	21.400000	0.000000	0.000000	154.000000	68.000000	-9.000000	-9.000000
2.070000	97.490000	21.400000	25.000000	1.000000	152.000000	68.000000	0.000000	0.000000
2.080000	97.400000	21.140000	49.000000	0.000000	150.000000	67.000000	-9.000000	-26.000000
2.090000	97.350000	21.540000	81.000000	0.000000	148.000000	68.000000	-5.000000	40.000000
2.100000	97.350000	21.750000	100.000000	0.000000	148.000000	68.000000	0.000000	21.000000
2.110000	97.350000	22.090000	148.000000	0.000000	146.000000	67.000000	0.000000	34.000000
2.120000	97.350000	22.520000	178.000000	0.000000	146.000000	67.000000	0.000000	43.000000
2.130000	97.350000	23.050000	239.000000	0.000000	146.000000	67.000000	0.000000	53.000000
2.140000	97.300000	23.630000	304.000000	0.000000	148.000000	68.000000	-5.000000	58.000000
2.150000	97.240000	24.240000	327.000000	0.000000	148.000000	68.000000	-6.000000	61.000000
2.160000	97.160000	25.050000	363.000000	0.000000	148.000000	68.000000	-8.000000	81.000000
2.170000	97.050000	26.090000	386.000000	0.000000	148.000000	68.000000	-11.000000	104.000000
2.180000	96.930000	27.290000	439.000000	0.000000	148.000000	68.000000	-12.000000	120.000000
2.190000	96.750000	28.590000	491.000000	0.000000	148.000000	68.000000	-18.000000	130.000000
2.200000	96.600000	29.810000	522.000000	0.000000	146.000000	67.000000	-15.000000	122.000000
2.210000	96.540000	30.820000	568.000000	0.000000	148.000000	67.000000	-6.000000	101.000000
