t	x	y	pressure	penup	azimuth	inclination	v_x	v_y
0.000000	57.840000	68.300000	44.000000	1.000000	156.000000	62.000000	0.000000	0.000000
0.010000	57.840000	68.300000	149.000000	0.000000	156.000000	62.000000	0.000000	0.000000
0.020000	57.840000	68.300000	249.000000	0.000000	156.000000	62.000000	0.000000	0.000000
0.030000	57.840000	68.300000	345.000000	0.000000	156.000000	62.000000	0.000000	0.000000
0.040000	57.840000	68.300000	404.000000	0.000000	156.000000	62.000000	0.000000	0.000000
0.050000	57.570000	68.570000	465.000000	0.000000	156.000000	62.000000	-27.000000	27.000000
0.060000	57.430000	68.570000	515.000000	0.000000	156.000000	62.000000	-14.000000	0.000000
0.070000	57.310000	68.570000	545.000000	0.000000	157.000000	61.000000	-12.000000	0.000000
0.080000	57.140000	68.480000	581.000000	0.000000	157.000000	61.000000	-17.000000	-9.000000
0.090000	56.940000	68.380000	586.000000	0.000000	156.000000	61.000000	-20.000000	-10.000000
0.100000	56.760000	68.260000	606.000000	0.000000	156.000000	61.000000	-18.000000	-12.000000
0.110000	56.600000	68.110000	617.000000	0.000000	156.000000	61.000000	-16.000000	-15.000000
0.120000	56.440000	67.930000	636.000000	0.000000	153.000000	61.000000	-16.000000	-18.000000
0.130000	56.440000	67.930000	667.000000	0.000000	153.000000	61.000000	0.000000	0.000000
0.140000	56.260000	67.280000	696.000000	0.000000	151.000000	61.000000	-18.000000	-65.000000
0.150000	56.190000	66.790000	719.000000	0.000000	150.000000	62.000000	-7.000000	-49.000000
0.160000	56.140000	66.250000	752.000000	0.000000	150.000000	62.000000	-5.000000	-54.000000
0.170000	56.140000	65.660000	788.000000	0.000000	148.000000	61.000000	0.000000	-59.000000
0.180000	56.050000	65.010000	808.000000	0.000000	148.000000	61.000000	-9.000000	-65.000000
0.190000	55.940000	64.340000	839.000000	0.000000	148.000000	61.000000	-11.000000	-67.000000
0.200000	55.770000	63.610000	863.000000	0.000000	148.000000	61.000000	-17.000000	-73.000000
0.210000	55.540000	62.890000	860.000000	0.000000	148.000000	61.000000	-23.000000	-72.000000
0.220000	55.260000	62.200000	876.000000	0.000000	148.000000	61.000000	-28.000000	-69.000000
0.230000	54.990000	61.590000	891.000000	0.000000	148.000000	61.000000	-27.000000	-61.000000
0.240000	54.730000	60.980000	900.000000	0.000000	148.000000	61.000000	-26.000000	-61.000000
0.250000	54.470000	60.530000	908.000000	0.000000	147.000000	61.000000	-26.000000	-45.000000
0.260000	54.320000	60.180000	896.000000	0.000000	147.000000	61.000000	-15.000000	-35.000000
0.270000	54.240000	60.060000	897.000000	0.000000	146.000000	62.000000	-8.000000	-12.000000
0.280000	54.240000	60.060000	899.000000	0.000000	146.000000	62.000000	0.000000	0.000000
0.290000	54.240000	60.060000	905.000000	0.000000	144.000000	61.000000	0.000000	0.000000
0.300000	54.240000	60.060000	905.000000	0.000000	144.000000	61.000000	0.000000	0.000000
0.310000	54.240000	60.060000	897.000000	0.000000	143.000000	62.000000	0.000000	0.000000
0.320000	54.240000	60.060000	908.000000	0.000000	143.000000	62.000000	0.000000	0.000000
0.330000	54.240000	60.060000	899.000000	0.000000	141.000000	61.000000	0.000000	0.000000
0.340000	54.240000	60.060000	875.000000	0.000000	141.000000	61.000000	0.000000	0.000000
0.350000	54.240000	60.060000	831.000000	0.000000	141.000000	61.000000	0.000000	0.000000
0.360000	54.240000	60.060000	755.000000	0.000000	141.000000	61.000000	0.000000	0.000000
0.370000	54.240000	60.060000	584.000000	0.000000	141.000000	61.000000	0.000000	0.000000
0.380000	54.290000	60.440000	183.000000	0.000000	141.000000	61.000000	5.000000	38.000000
0.390000	54.290000	60.440000	0.000000	1.000000	141.000000	61.000000	0.000000	0.000000
0.400000	54.570000	60.790000	0.000000	0.000000	143.000000	62.000000	28.000000	35.000000
0.410000	54.760000	60.970000	0.000000	0.000000	143.000000	62.000000	19.000000	18.000000
0.420000	54.990000	61.180000	0.000000	0.000000	143.000000	62.000000	23.000000	21.000000
0.430000	55.250000	61.410000	0.000000	0.000000	143.000000	62.000000	26.000000	23.000000
0.440000	55.550000	61.580000	0.000000	0.000000	144.000000	62.000000	30.000000	17.000000
0.450000	55.860000	61.760000	0.000000	0.000000	146.000000	62.000000	31.000000	18.000000
0.460000	56.180000	61.930000	0.000000	0.000000	146.000000	62.000000	32.000000	17.000000
0.470000	56.520000	62.080000	0.000000	0.000000	147.000000	62.000000	34.000000	15.000000
0.480000	56.810000	62.230000	0.000000	0.000000	147.000000	62.000000	29.000000	15.000000
0.490000	57.090000	62.380000	0.000000	0.000000	149.000000	63.000000	28.000000	15.000000
0.500000	57.360000	62.540000	0.000000	0.000000	151.000000	63.000000	27.000000	16.000000
0.510000	57.620000	62.680000	0.000000	0.000000	152.000000	62.000000	26.000000	14.000000
0.520000	57.820000	62.810000	0.000000	0.000000	154.000000	63.000000	20.000000	13.000000
0.530000	57.980000	62.920000	0.000000	0.000000	154.000000	63.000000	16.000000	11.000000
0.540000	58.040000	63.040000	0.000000	0.000000	154.000000	63.000000	6.000000	12.000000
0.550000	58.040000	63.130000	0.000000	0.000000	155.000000	62.000000	0.000000	9.000000
0.560000	58.040000	63.220000	0.000000	0.000000	155.000000	62.000000	0.000000	9.000000
0.570000	57.980000	63.310000	0.000000	0.000000	155.000000	62.000000	-6.000000	9.000000
0.580000	57.980000	63.430000	0.000000	0.000000	155.000000	62.000000	0.000000	12.000000
0.590000	57.930000	63.560000	0.000000	0.000000	153.000000	61.000000	-5.000000	13.000000
0.600000	57.930000	63.690000	0.000000	0.000000	153.000000	61.000000	0.000000	13.000000
0.610000	57.930000	63.810000	0.000000	0.000000	153.000000	61.000000	0.000000	12.000000
0.620000	57.930000	63.900000	0.000000	0.000000	153.000000	61.000000	0.000000	9.000000
0.630000	57.930000	63.980000	0.000000	0.000000	153.000000	61.000000	0.000000	8.000000
0.640000	57.930000	64.040000	0.000000	0.000000	153.000000	61.000000	0.000000	6.000000
0.650000	57.930000	64.090000	0.000000	0.000000	153.000000	61.000000	0.000000	5.000000
0.660000	57.930000	64.150000	0.000000	0.000000	153.000000	61.000000	0.000000	6.000000
0.670000	57.930000	64.150000	0.000000	0.000000	153.000000	61.000000	0.000000	0.000000
0.680000	57.980000	64.240000	0.000000	0.000000	153.000000	61.000000	5.000000	9.000000
0.690000	57.980000	64.240000	0.000000	0.000000	153.000000	61.000000	0.000000	0.000000
0.700000	58.060000	64.340000	0.000000	0.000000	151.000000	61.000000	8.000000	10.000000
0.710000	58.060000	64.410000	0.000000	0.000000	151.000000	61.000000	0.000000	7.000000
0.720000	58.190000	64.510000	0.000000	0.000000	151.000000	61.000000	13.000000	10.000000
0.730000	58.280000	64.600000	0.000000	0.000000	151.000000	61.000000	9.000000	9.000000
0.740000	58.360000	64.660000	0.000000	0.000000	153.000000	61.000000	8.000000	6.000000
0.750000	58.360000	64.660000	0.000000	0.000000	153.000000	61.000000	0.000000	0.000000
0.760000	58.410000	64.760000	0.000000	0.000000	153.000000	61.000000	5.000000	10.000000
0.770000	58.480000	64.850000	0.000000	0.000000	153.000000	61.000000	7.000000	9.000000
0.780000	58.550000	64.900000	0.000000	0.000000	155.000000	62.000000	7.000000	5.000000
0.790000	58.620000	64.990000	0.000000	0.000000	155.000000	62.000000	7.000000	9.000000
0.800000	58.670000	65.110000	0.000000	0.000000	155.000000	62.000000	5.000000	12.000000
0.810000	58.670000	65.110000	0.000000	0.000000	155.000000	62.000000	0.000000	0.000000
0.820000	58.740000	65.190000	0.000000	0.000000	155.000000	62.000000	7.000000	8.000000
0.830000	58.740000	65.190000	0.000000	0.000000	154.000000	63.000000	0.000000	0.000000
0.840000	58.740000	65.240000	0.000000	0.000000	154.000000	63.000000	0.000000	5.000000
0.850000	58.740000	65.240000	29.000000	1.000000	154.000000	63.000000	0.000000	0.000000
0.860000	58.740000	65.240000	101.000000	0.000000	154.000000	63.000000	0.000000	0.000000
0.870000	58.740000	65.240000	172.000000	0.000000	154.000000	63.000000	0.000000	0.000000
0.880000	58.740000	65.520000	254.000000	0.000000	154.000000	63.000000	0.000000	28.000000
0.890000	58.740000	65.590000	307.000000	0.000000	154.000000	63.000000	0.000000	7.000000
0.900000	58.740000	65.590000	387.000000	0.000000	154.000000	63.000000	0.000000	0.000000
0.910000	58.740000	65.590000	469.000000	0.000000	154.000000	63.000000	0.000000	0.000000
0.920000	58.740000	65.590000	519.000000	0.000000	154.000000	63.000000	0.000000	0.000000
0.930000	58.740000	65.590000	560.000000	0.000000	154.000000	63.000000	0.000000	0.000000
0.940000	58.740000	65.590000	603.000000	0.000000	154.000000	63.000000	0.000000	0.000000
0.950000	58.430000	65.820000	614.000000	0.000000	154.000000	63.000000	-31.000000	23.000000
0.960000	58.280000	65.820000	642.000000	0.000000	154.000000	63.000000	-15.000000	0.000000
0.970000	58.170000	65.920000	649.000000	0.000000	154.000000	63.000000	-11.000000	10.000000
0.980000	58.090000	65.920000	658.000000	0.000000	154.000000	63.000000	-8.000000	0.000000
0.990000	57.880000	65.790000	658.000000	0.000000	152.000000	62.000000	-21.000000	-13.000000
1.000000	57.580000	65.590000	661.000000	0.000000	152.000000	62.000000	-30.000000	-20.000000
1.010000	57.400000	65.330000	668.000000	0.000000	152.000000	62.000000	-18.000000	-26.000000
1.020000	57.260000	65.030000	668.000000	0.000000	152.000000	62.000000	-14.000000	-30.000000
1.030000	57.150000	64.650000	670.000000	0.000000	150.000000	62.000000	-11.000000	-38.000000
1.040000	57.050000	64.220000	670.000000	0.000000	151.000000	61.000000	-10.000000	-43.000000
1.050000	57.050000	63.780000	668.000000	0.000000	151.000000	61.000000	0.000000	-44.000000
1.060000	57.050000	63.480000	670.000000	0.000000	151.000000	61.000000	0.000000	-30.000000
1.070000	57.050000	63.270000	664.000000	0.000000	151.000000	61.000000	0.000000	-21.000000
1.080000	57.110000	63.120000	658.000000	0.000000	151.000000	61.000000	6.000000	-15.000000
1.090000	57.200000	63.070000	655.000000	0.000000	151.000000	61.000000	9.000000	-5.000000
1.100000	57.350000	63.070000	644.000000	0.000000	151.000000	61.000000	15.000000	0.000000
1.110000	57.550000	63.240000	641.000000	0.000000	151.000000	61.000000	20.000000	17.000000
1.120000	57.830000	63.460000	617.000000	0.000000	151.000000	61.000000	28.000000	22.000000
1.130000	58.100000	63.720000	616.000000	0.000000	151.000000	61.000000	27.000000	26.000000
1.140000	58.340000	64.050000	595.000000	0.000000	153.000000	61.000000	24.000000	33.000000
1.150000	58.580000	64.450000	544.000000	0.000000	153.000000	61.000000	24.000000	40.000000
1.160000	58.770000	64.890000	543.000000	0.000000	153.000000	61.000000	19.000000	44.000000
1.170000	58.930000	65.220000	537.000000	0.000000	154.000000	63.000000	16.000000	33.000000
1.180000	59.000000	65.540000	545.000000	0.000000	154.000000	63.000000	7.000000	32.000000
1.190000	59.000000	65.700000	567.000000	0.000000	155.000000	63.000000	0.000000	16.000000
1.200000	59.000000	65.750000	595.000000	0.000000	155.000000	63.000000	0.000000	5.000000
1.210000	59.000000	65.750000	588.000000	0.000000	155.000000	63.000000	0.000000	0.000000
1.220000	59.000000	65.750000	586.000000	0.000000	155.000000	63.000000	0.000000	0.000000
1.230000	59.000000	65.670000	592.000000	0.000000	155.000000	63.000000	0.000000	-8.000000
1.240000	58.900000	65.480000	595.000000	0.000000	155.000000	63.000000	-10.000000	-19.000000
1.250000	58.810000	65.200000	602.000000	0.000000	155.000000	63.000000	-9.000000	-28.000000
1.260000	58.690000	64.850000	620.000000	0.000000	155.000000	63.000000	-12.000000	-35.000000
1.270000	58.550000	64.500000	617.000000	0.000000	155.000000	63.000000	-14.000000	-35.000000
1.280000	58.470000	64.160000	619.000000	0.000000	155.000000	63.000000	-8.000000	-34.000000
1.290000	58.470000	63.850000	625.000000	0.000000	155.000000	63.000000	0.000000	-31.000000
1.300000	58.420000	63.630000	627.000000	0.000000	155.000000	63.000000	-5.000000	-22.000000
1.310000	58.420000	63.490000	625.000000	0.000000	154.000000	63.000000	0.000000	-14.000000
1.320000	58.420000	63.400000	624.000000	0.000000	154.000000	63.000000	0.000000	-9.000000
1.330000	58.420000	63.400000	620.000000	0.000000	154.000000	63.000000	0.000000	0.000000
1.340000	58.480000	63.400000	619.000000	0.000000	155.000000	62.000000	6.000000	0.000000
1.350000	58.530000	63.400000	619.000000	0.000000	155.000000	62.000000	5.000000	0.000000
1.360000	58.590000	63.400000	617.000000	0.000000	155.000000	62.000000	6.000000	0.000000
1.370000	58.750000	63.580000	617.000000	0.000000	155.000000	62.000000	16.000000	18.000000
1.380000	58.980000	63.740000	620.000000	0.000000	155.000000	62.000000	23.000000	16.000000
1.390000	59.070000	63.960000	619.000000	0.000000	156.000000	62.000000	9.000000	22.000000
1.400000	59.160000	64.210000	619.000000	0.000000	155.000000	63.000000	9.000000	25.000000
1.410000	59.250000	64.490000	620.000000	0.000000	155.000000	63.000000	9.000000	28.000000
1.420000	59.340000	64.820000	619.000000	0.000000	155.000000	63.000000	9.000000	33.000000
1.430000	59.440000	65.180000	619.000000	0.000000	155.000000	63.000000	10.000000	36.000000
1.440000	59.490000	65.370000	622.000000	0.000000	155.000000	63.000000	5.000000	19.000000
1.450000	59.490000	65.520000	627.000000	0.000000	155.000000	63.000000	0.000000	15.000000
1.460000	59.490000	65.600000	627.000000	0.000000	155.000000	63.000000	0.000000	8.000000
1.470000	59.560000	65.660000	627.000000	0.000000	155.000000	63.000000	7.000000	6.000000
1.480000	59.660000	65.720000	628.000000	0.000000	155.000000	63.000000	10.000000	6.000000
1.490000	59.830000	65.820000	625.000000	0.000000	155.000000	63.000000	17.000000	10.000000
1.500000	60.050000	65.940000	619.000000	0.000000	155.000000	63.000000	22.000000	12.000000
1.510000	60.300000	66.050000	617.000000	0.000000	155.000000	63.000000	25.000000	11.000000
1.520000	60.510000	66.120000	617.000000	0.000000	155.000000	63.000000	21.000000	7.000000
1.530000	60.640000	66.120000	619.000000	0.000000	155.000000	63.000000	13.000000	0.000000
1.540000	60.640000	66.120000	619.000000	0.000000	155.000000	63.000000	0.000000	0.000000
1.550000	60.640000	66.120000	627.000000	0.000000	155.000000	63.000000	0.000000	0.000000
1.560000	60.640000	66.120000	639.000000	0.000000	155.000000	63.000000	0.000000	0.000000
1.570000	60.640000	66.120000	647.000000	0.000000	155.000000	63.000000	0.000000	0.000000
1.580000	60.640000	66.120000	650.000000	0.000000	155.000000	63.000000	0.000000	0.000000
1.590000	60.640000	66.120000	665.000000	0.000000	155.000000	63.000000	0.000000	0.000000
1.600000	60.380000	65.750000	673.000000	0.000000	155.000000	63.000000	-26.000000	-37.000000
1.610000	60.250000	65.490000	672.000000	0.000000	155.000000	63.000000	-13.000000	-26.000000
1.620000	60.110000	65.180000	679.000000	0.000000	155.000000	63.000000	-14.000000	-31.000000
1.630000	59.980000	64.840000	684.000000	0.000000	155.000000	63.000000	-13.000000	-34.000000
1.640000	59.860000	64.530000	700.000000	0.000000	155.000000	63.000000	-12.000000	-31.000000
1.650000	59.780000	64.240000	707.000000	0.000000	155.000000	63.000000	-8.000000	-29.000000
1.660000	59.710000	63.950000	710.000000	0.000000	155.000000	63.000000	-7.000000	-29.000000
1.670000	59.640000	63.660000	710.000000	0.000000	155.000000	63.000000	-7.000000	-29.000000
1.680000	59.580000	63.370000	716.000000	0.000000	155.000000	63.000000	-6.000000	-29.000000
1.690000	59.580000	63.160000	717.000000	0.000000	155.000000	63.000000	0.000000	-21.000000
1.700000	59.580000	62.980000	717.000000	0.000000	155.000000	63.000000	0.000000	-18.000000
1.710000	59.580000	62.930000	711.000000	0.000000	155.000000	63.000000	0.000000	-5.000000
1.720000	59.630000	62.930000	703.000000	0.000000	156.000000	62.000000	5.000000	0.000000
1.730000	59.630000	62.930000	707.000000	0.000000	156.000000	62.000000	0.000000	0.000000
1.740000	59.890000	63.000000	711.000000	0.000000	156.000000	62.000000	26.000000	7.000000
1.750000	60.220000	63.150000	708.000000	0.000000	156.000000	62.000000	33.000000	15.000000
1.760000	60.470000	63.350000	705.000000	0.000000	156.000000	62.000000	25.000000	20.000000
1.770000	60.720000	63.480000	702.000000	0.000000	156.000000	62.000000	25.000000	13.000000
1.780000	60.960000	63.670000	693.000000	0.000000	156.000000	62.000000	24.000000	19.000000
1.790000	61.200000	63.890000	687.000000	0.000000	156.000000	62.000000	24.000000	22.000000
1.800000	61.370000	64.120000	684.000000	0.000000	156.000000	62.000000	17.000000	23.000000
1.810000	61.540000	64.370000	681.000000	0.000000	156.000000	62.000000	17.000000	25.000000
1.820000	61.700000	64.640000	682.000000	0.000000	156.000000	62.000000	16.000000	27.000000
1.830000	61.860000	64.920000	682.000000	0.000000	156.000000	62.000000	16.000000	28.000000
1.840000	61.980000	65.200000	682.000000	0.000000	155.000000	63.000000	12.000000	28.000000
1.850000	62.080000	65.480000	684.000000	0.000000	155.000000	63.000000	10.000000	28.000000
1.860000	62.140000	65.760000	693.000000	0.000000	155.000000	63.000000	6.000000	28.000000
1.870000	62.140000	65.900000	690.000000	0.000000	155.000000	63.000000	0.000000	14.000000
1.880000	62.140000	65.990000	707.000000	0.000000	155.000000	63.000000	0.000000	9.000000
1.890000	62.140000	66.060000	728.000000	0.000000	155.000000	63.000000	0.000000	7.000000
1.900000	62.090000	66.060000	722.000000	0.000000	155.000000	63.000000	-5.000000	0.000000
1.910000	62.090000	66.120000	727.000000	0.000000	155.000000	63.000000	0.000000	6.000000
1.920000	62.090000	66.120000	722.000000	0.000000	155.000000	63.000000	0.000000	0.000000
1.930000	61.980000	66.120000	720.000000	0.000000	155.000000	63.000000	-11.000000	0.000000
1.940000	61.890000	66.120000	721.000000	0.000000	155.000000	63.000000	-9.000000	0.000000
1.950000	61.730000	66.120000	722.000000	0.000000	155.000000	63.000000	-16.000000	0.000000
1.960000	61.510000	65.960000	722.000000	0.000000	155.000000	63.000000	-22.000000	-16.000000
1.970000	61.350000	65.800000	724.000000	0.000000	154.000000	63.000000	-16.000000	-16.000000
1.980000	61.200000	65.650000	720.000000	0.000000	154.000000	63.000000	-15.000000	-15.000000
1.990000	61.080000	65.390000	720.000000	0.000000	154.000000	63.000000	-12.000000	-26.000000
2.000000	60.950000	65.120000	720.000000	0.000000	154.000000	63.000000	-13.000000	-27.000000
2.010000	60.850000	64.810000	720.000000	0.000000	154.000000	63.000000	-10.000000	-31.000000
2.020000	60.740000	64.480000	733.000000	0.000000	154.000000	63.000000	-11.000000	-33.000000
2.030000	60.670000	64.160000	720.000000	0.000000	154.000000	63.000000	-7.000000	-32.000000
2.040000	60.670000	63.860000	731.000000	0.000000	154.000000	63.000000	0.000000	-30.000000
2.050000	60.620000	63.630000	727.000000	0.000000	154.000000	63.000000	-5.000000	-23.000000
2.060000	60.620000	63.460000	707.000000	0.000000	154.000000	63.000000	0.000000	-17.000000
2.070000	60.700000	63.370000	697.000000	0.000000	154.000000	63.000000	8.000000	-9.000000
2.080000	60.700000	63.370000	684.000000	0.000000	154.000000	63.000000	0.000000	0.000000
2.090000	60.830000	63.370000	684.000000	0.000000	155.000000	62.000000	13.000000	0.000000
2.100000	60.980000	63.430000	663.000000	0.000000	155.000000	62.000000	15.000000	6.000000
2.110000	61.180000	63.600000	659.000000	0.000000	155.000000	62.000000	20.000000	17.000000
2.120000	61.390000	63.820000	641.000000	0.000000	154.000000	63.000000	21.000000	22.000000
2.130000	61.600000	64.150000	634.000000	0.000000	154.000000	63.000000	21.000000	33.000000
2.140000	61.760000	64.520000	610.000000	0.000000	154.000000	63.000000	16.000000	37.000000
2.150000	61.940000	64.910000	591.000000	0.000000	154.000000	63.000000	18.000000	39.000000
2.160000	62.130000	65.320000	595.000000	0.000000	154.000000	63.000000	19.000000	41.000000
2.170000	62.310000	65.670000	592.000000	0.000000	154.000000	63.000000	18.000000	35.000000
2.180000	62.390000	65.800000	595.000000	0.000000	154.000000	63.000000	8.000000	13.000000
2.190000	62.390000	65.800000	595.000000	0.000000	154.000000	63.000000	0.000000	0.000000
2.200000	62.390000	65.800000	589.000000	0.000000	155.000000	63.000000	0.000000	0.000000
2.210000	62.390000	65.690000	594.000000	0.000000	155.000000	63.000000	0.000000	-11.000000
2.220000	62.300000	65.510000	595.000000	0.000000	155.000000	63.000000	-9.000000	-18.000000
