t	x	y	pressure	penup	azimuth	inclination	v_x	v_y
0.000000	56.880000	32.970000	34.000000	1.000000	148.000000	63.000000	0.000000	0.000000
0.010000	56.880000	32.970000	85.000000	0.000000	148.000000	63.000000	0.000000	0.000000
0.020000	57.020000	33.310000	173.000000	0.000000	148.000000	63.000000	14.000000	34.000000
0.030000	57.070000	33.460000	225.000000	0.000000	148.000000	63.000000	5.000000	15.000000
0.040000	57.070000	33.590000	273.000000	0.000000	148.000000	63.000000	0.000000	13.000000
0.050000	57.070000	33.730000	353.000000	0.000000	148.000000	63.000000	0.000000	14.000000
0.060000	57.070000	33.820000	417.000000	0.000000	148.000000	63.000000	0.000000	9.000000
0.070000	57.070000	33.890000	465.000000	0.000000	148.000000	63.000000	0.000000	7.000000
0.080000	57.070000	33.890000	521.000000	0.000000	148.000000	63.000000	0.000000	0.000000
0.090000	57.010000	33.960000	563.000000	0.000000	148.000000	63.000000	-6.000000	7.000000
0.100000	56.960000	33.960000	592.000000	0.000000	148.000000	63.000000	-5.000000	0.000000
0.110000	56.830000	33.960000	594.000000	0.000000	148.000000	63.000000	-13.000000	0.000000
0.120000	56.640000	33.880000	614.000000	0.000000	148.000000	63.000000	-19.000000	-8.000000
0.130000	56.380000	33.730000	622.000000	0.000000	149.000000	63.000000	-26.000000	-15.000000
0.140000	56.120000	33.520000	647.000000	0.000000	149.000000	63.000000	-26.000000	-21.000000
0.150000	55.850000	33.260000	643.000000	0.000000	147.000000	62.000000	-27.000000	-26.000000
0.160000	55.650000	32.960000	655.000000	0.000000	147.000000	62.000000	-20.000000	-30.000000
0.170000	55.480000	32.620000	661.000000	0.000000	147.000000	62.000000	-17.000000	-34.000000
0.180000	55.350000	32.150000	671.000000	0.000000	147.000000	62.000000	-13.000000	-47.000000
0.190000	55.220000	31.590000	673.000000	0.000000	146.000000	62.000000	-13.000000	-56.000000
0.200000	55.170000	30.840000	687.000000	0.000000	144.000000	62.000000	-5.000000	-75.000000
0.210000	55.100000	30.090000	690.000000	0.000000	144.000000	62.000000	-7.000000	-75.000000
0.220000	55.000000	29.350000	719.000000	0.000000	143.000000	62.000000	-10.000000	-74.000000
0.230000	54.870000	28.480000	730.000000	0.000000	143.000000	62.000000	-13.000000	-87.000000
0.240000	54.700000	27.780000	749.000000	0.000000	141.000000	63.000000	-17.000000	-70.000000
0.250000	54.480000	27.200000	751.000000	0.000000	141.000000	63.000000	-22.000000	-58.000000
0.260000	54.250000	26.710000	767.000000	0.000000	140.000000	63.000000	-23.000000	-49.000000
0.270000	54.010000	26.350000	776.000000	0.000000	138.000000	64.000000	-24.000000	-36.000000
0.280000	53.850000	26.070000	779.000000	0.000000	137.000000	65.000000	-16.000000	-28.000000
0.290000	53.680000	25.900000	785.000000	0.000000	135.000000	65.000000	-17.000000	-17.000000
0.300000	53.510000	25.790000	797.000000	0.000000	135.000000	65.000000	-17.000000	-11.000000
0.310000	53.360000	25.710000	805.000000	0.000000	133.000000	66.000000	-15.000000	-8.000000
0.320000	53.260000	25.660000	809.000000	0.000000	131.000000	67.000000	-10.000000	-5.000000
0.330000	53.260000	25.660000	811.000000	0.000000	131.000000	67.000000	0.000000	0.000000
0.340000	53.260000	25.660000	805.000000	0.000000	131.000000	67.000000	0.000000	0.000000
0.350000	53.260000	25.660000	770.000000	0.000000	130.000000	66.000000	0.000000	0.000000
0.360000	53.260000	25.660000	666.000000	0.000000	130.000000	66.000000	0.000000	0.000000
0.370000	53.260000	25.660000	515.000000	0.000000	128.000000	66.000000	0.000000	0.000000
0.380000	53.360000	25.710000	182.000000	0.000000	128.000000	66.000000	10.000000	5.000000
0.390000	53.360000	25.710000	0.000000	1.000000	128.000000	66.000000	0.000000	0.000000
0.400000	53.690000	25.980000	0.000000	0.000000	128.000000	66.000000	33.000000	27.000000
0.410000	53.940000	26.210000	0.000000	0.000000	128.000000	66.000000	25.000000	23.000000
0.420000	54.270000	26.440000	0.000000	0.000000	130.000000	66.000000	33.000000	23.000000
0.430000	54.650000	26.670000	0.000000	0.000000	131.000000	67.000000	38.000000	23.000000
0.440000	55.040000	26.940000	0.000000	0.000000	131.000000	67.000000	39.000000	27.000000
0.450000	55.440000	27.230000	0.000000	0.000000	133.000000	66.000000	40.000000	29.000000
0.460000	55.820000	27.420000	0.000000	0.000000	135.000000	67.000000	38.000000	19.000000
0.470000	56.180000	27.640000	0.000000	0.000000	135.000000	67.000000	36.000000	22.000000
0.480000	56.500000	27.870000	0.000000	0.000000	139.000000	67.000000	32.000000	23.000000
0.490000	56.790000	28.040000	0.000000	0.000000	139.000000	67.000000	29.000000	17.000000
0.500000	57.060000	28.220000	0.000000	0.000000	140.000000	67.000000	27.000000	18.000000
0.510000	57.240000	28.380000	0.000000	0.000000	140.000000	67.000000	18.000000	16.000000
0.520000	57.420000	28.490000	0.000000	0.000000	142.000000	68.000000	18.000000	11.000000
0.530000	57.520000	28.580000	0.000000	0.000000	142.000000	68.000000	10.000000	9.000000
0.540000	57.520000	28.660000	0.000000	0.000000	145.000000	68.000000	0.000000	8.000000
0.550000	57.570000	28.770000	0.000000	0.000000	145.000000	68.000000	5.000000	11.000000
0.560000	57.570000	28.860000	0.000000	0.000000	146.000000	67.000000	0.000000	9.000000
0.570000	57.570000	28.940000	0.000000	0.000000	146.000000	67.000000	0.000000	8.000000
0.580000	57.570000	29.000000	0.000000	0.000000	148.000000	67.000000	0.000000	6.000000
0.590000	57.570000	29.050000	0.000000	0.000000	148.000000	67.000000	0.000000	5.000000
0.600000	57.490000	29.050000	0.000000	0.000000	148.000000	67.000000	-8.000000	0.000000
0.610000	57.430000	29.140000	0.000000	0.000000	149.000000	66.000000	-6.000000	9.000000
0.620000	57.430000	29.140000	0.000000	0.000000	147.000000	65.000000	0.000000	0.000000
0.630000	57.370000	29.140000	0.000000	0.000000	147.000000	65.000000	-6.000000	0.000000
0.640000	57.370000	29.140000	0.000000	0.000000	148.000000	65.000000	0.000000	0.000000
0.650000	57.370000	29.140000	0.000000	0.000000	148.000000	65.000000	0.000000	0.000000
0.660000	57.370000	29.140000	0.000000	0.000000	148.000000	65.000000	0.000000	0.000000
0.670000	57.370000	29.140000	0.000000	0.000000	148.000000	65.000000	0.000000	0.000000
0.680000	57.370000	29.140000	0.000000	0.000000	148.000000	65.000000	0.000000	0.000000
0.690000	57.370000	29.140000	0.000000	0.000000	148.000000	65.000000	0.000000	0.000000
0.700000	57.370000	29.140000	0.000000	0.000000	148.000000	65.000000	0.000000	0.000000
0.710000	57.370000	29.140000	0.000000	0.000000	148.000000	65.000000	0.000000	0.000000
0.720000	57.370000	29.140000	0.000000	0.000000	146.000000	64.000000	0.000000	0.000000
0.730000	57.440000	29.400000	0.000000	0.000000	146.000000	64.000000	7.000000	26.000000
0.740000	57.510000	29.490000	0.000000	0.000000	146.000000	64.000000	7.000000	9.000000
0.750000	57.580000	29.590000	0.000000	0.000000	146.000000	64.000000	7.000000	10.000000
0.760000	57.580000	29.690000	0.000000	0.000000	146.000000	64.000000	0.000000	10.000000
0.770000	57.680000	29.800000	0.000000	0.000000	146.000000	64.000000	10.000000	11.000000
0.780000	57.680000	29.800000	53.000000	1.000000	146.000000	64.000000	0.000000	0.000000
0.790000	57.680000	29.800000	110.000000	0.000000	146.000000	64.000000	0.000000	0.000000
0.800000	57.680000	30.140000	203.000000	0.000000	146.000000	64.000000	0.000000	34.000000
0.810000	57.680000	30.270000	273.000000	0.000000	148.000000	63.000000	0.000000	13.000000
0.820000	57.620000	30.400000	353.000000	0.000000	148.000000	63.000000	-6.000000	13.000000
0.830000	57.560000	30.510000	415.000000	0.000000	148.000000	63.000000	-6.000000	11.000000
0.840000	57.460000	30.570000	481.000000	0.000000	148.000000	63.000000	-10.000000	6.000000
0.850000	57.360000	30.570000	517.000000	0.000000	148.000000	63.000000	-10.000000	0.000000
0.860000	57.250000	30.520000	543.000000	0.000000	148.000000	63.000000	-11.000000	-5.000000
0.870000	57.060000	30.390000	569.000000	0.000000	148.000000	63.000000	-19.000000	-13.000000
0.880000	56.820000	30.120000	588.000000	0.000000	148.000000	63.000000	-24.000000	-27.000000
0.890000	56.570000	29.770000	608.000000	0.000000	148.000000	63.000000	-25.000000	-35.000000
0.900000	56.360000	29.290000	620.000000	0.000000	146.000000	63.000000	-21.000000	-48.000000
0.910000	56.220000	28.860000	638.000000	0.000000	146.000000	63.000000	-14.000000	-43.000000
0.920000	56.130000	28.460000	645.000000	0.000000	146.000000	63.000000	-9.000000	-40.000000
0.930000	56.130000	28.170000	647.000000	0.000000	145.000000	64.000000	0.000000	-29.000000
0.940000	56.180000	27.980000	641.000000	0.000000	143.000000	63.000000	5.000000	-19.000000
0.950000	56.290000	27.860000	643.000000	0.000000	143.000000	63.000000	11.000000	-12.000000
0.960000	56.410000	27.860000	650.000000	0.000000	141.000000	64.000000	12.000000	0.000000
0.970000	56.550000	27.910000	652.000000	0.000000	141.000000	64.000000	14.000000	5.000000
0.980000	56.780000	28.030000	650.000000	0.000000	141.000000	64.000000	23.000000	12.000000
0.990000	57.040000	28.270000	647.000000	0.000000	143.000000	64.000000	26.000000	24.000000
1.000000	57.300000	28.580000	617.000000	0.000000	143.000000	64.000000	26.000000	31.000000
1.010000	57.550000	28.940000	602.000000	0.000000	143.000000	64.000000	25.000000	36.000000
1.020000	57.750000	29.290000	597.000000	0.000000	145.000000	65.000000	20.000000	35.000000
1.030000	57.880000	29.640000	597.000000	0.000000	145.000000	65.000000	13.000000	35.000000
1.040000	57.960000	29.990000	602.000000	0.000000	145.000000	65.000000	8.000000	35.000000
1.050000	57.960000	30.150000	611.000000	0.000000	146.000000	64.000000	0.000000	16.000000
1.060000	57.960000	30.200000	627.000000	0.000000	146.000000	64.000000	0.000000	5.000000
1.070000	57.960000	30.200000	622.000000	0.000000	146.000000	64.000000	0.000000	0.000000
1.080000	57.890000	30.120000	624.000000	0.000000	148.000000	63.000000	-7.000000	-8.000000
1.090000	57.820000	30.000000	627.000000	0.000000	148.000000	63.000000	-7.000000	-12.000000
1.100000	57.750000	29.800000	622.000000	0.000000	148.000000	63.000000	-7.000000	-20.000000
1.110000	57.670000	29.560000	633.000000	0.000000	148.000000	63.000000	-8.000000	-24.000000
1.120000	57.590000	29.300000	641.000000	0.000000	148.000000	63.000000	-8.000000	-26.000000
1.130000	57.540000	29.010000	647.000000	0.000000	148.000000	63.000000	-5.000000	-29.000000
1.140000	57.490000	28.780000	636.000000	0.000000	148.000000	63.000000	-5.000000	-23.000000
1.150000	57.490000	28.580000	640.000000	0.000000	146.000000	64.000000	0.000000	-20.000000
1.160000	57.490000	28.410000	641.000000	0.000000	146.000000	64.000000	0.000000	-17.000000
1.170000	57.490000	28.310000	638.000000	0.000000	146.000000	64.000000	0.000000	-10.000000
1.180000	57.490000	28.250000	640.000000	0.000000	146.000000	64.000000	0.000000	-6.000000
1.190000	57.540000	28.250000	641.000000	0.000000	145.000000	65.000000	5.000000	0.000000
1.200000	57.540000	28.250000	638.000000	0.000000	145.000000	65.000000	0.000000	0.000000
1.210000	57.630000	28.250000	647.000000	0.000000	145.000000	65.000000	9.000000	0.000000
1.220000	57.700000	28.250000	642.000000	0.000000	145.000000	65.000000	7.000000	0.000000
1.230000	57.830000	28.350000	631.000000	0.000000	145.000000	65.000000	13.000000	10.000000
1.240000	58.080000	28.520000	619.000000	0.000000	145.000000	65.000000	25.000000	17.000000
1.250000	58.260000	28.660000	614.000000	0.000000	145.000000	65.000000	18.000000	14.000000
1.260000	58.380000	28.790000	602.000000	0.000000	145.000000	65.000000	12.000000	13.000000
1.270000	58.500000	28.950000	595.000000	0.000000	145.000000	65.000000	12.000000	16.000000
1.280000	58.600000	29.140000	592.000000	0.000000	145.000000	65.000000	10.000000	19.000000
1.290000	58.660000	29.330000	585.000000	0.000000	145.000000	65.000000	6.000000	19.000000
1.300000	58.720000	29.510000	594.000000	0.000000	145.000000	65.000000	6.000000	18.000000
1.310000	58.720000	29.680000	594.000000	0.000000	146.000000	64.000000	0.000000	17.000000
1.320000	58.800000	29.830000	592.000000	0.000000	146.000000	64.000000	8.000000	15.000000
1.330000	58.800000	29.930000	591.000000	0.000000	146.000000	64.000000	0.000000	10.000000
1.340000	58.800000	29.990000	595.000000	0.000000	146.000000	64.000000	0.000000	6.000000
1.350000	58.850000	30.050000	594.000000	0.000000	148.000000	63.000000	5.000000	6.000000
1.360000	58.850000	30.110000	595.000000	0.000000	150.000000	64.000000	0.000000	6.000000
1.370000	58.960000	30.160000	591.000000	0.000000	150.000000	64.000000	11.000000	5.000000
1.380000	59.060000	30.220000	591.000000	0.000000	150.000000	64.000000	10.000000	6.000000
1.390000	59.200000	30.310000	591.000000	0.000000	150.000000	64.000000	14.000000	9.000000
1.400000	59.350000	30.410000	592.000000	0.000000	150.000000	64.000000	15.000000	10.000000
1.410000	59.500000	30.490000	592.000000	0.000000	150.000000	64.000000	15.000000	8.000000
1.420000	59.650000	30.550000	592.000000	0.000000	150.000000	64.000000	15.000000	6.000000
1.430000	59.760000	30.550000	595.000000	0.000000	150.000000	64.000000	11.000000	0.000000
1.440000	59.840000	30.550000	595.000000	0.000000	151.000000	64.000000	8.000000	0.000000
1.450000	59.890000	30.600000	595.000000	0.000000	151.000000	64.000000	5.000000	5.000000
1.460000	59.890000	30.600000	592.000000	0.000000	151.000000	64.000000	0.000000	0.000000
1.470000	59.890000	30.600000	595.000000	0.000000	151.000000	64.000000	0.000000	0.000000
1.480000	59.890000	30.540000	586.000000	0.000000	151.000000	64.000000	0.000000	-6.000000
1.490000	59.890000	30.490000	597.000000	0.000000	151.000000	64.000000	0.000000	-5.000000
1.500000	59.890000	30.420000	611.000000	0.000000	151.000000	64.000000	0.000000	-7.000000
1.510000	59.890000	30.310000	619.000000	0.000000	151.000000	64.000000	0.000000	-11.000000
1.520000	59.890000	30.150000	634.000000	0.000000	151.000000	64.000000	0.000000	-16.000000
1.530000	59.750000	29.940000	644.000000	0.000000	151.000000	64.000000	-14.000000	-21.000000
1.540000	59.620000	29.730000	636.000000	0.000000	151.000000	64.000000	-13.000000	-21.000000
1.550000	59.440000	29.490000	655.000000	0.000000	151.000000	64.000000	-18.000000	-24.000000
1.560000	59.260000	29.210000	662.000000	0.000000	151.000000	64.000000	-18.000000	-28.000000
1.570000	59.090000	28.920000	664.000000	0.000000	151.000000	64.000000	-17.000000	-29.000000
1.580000	58.990000	28.670000	662.000000	0.000000	150.000000	65.000000	-10.000000	-25.000000
1.590000	58.920000	28.450000	670.000000	0.000000	150.000000	65.000000	-7.000000	-22.000000
1.600000	58.920000	28.220000	673.000000	0.000000	150.000000	65.000000	0.000000	-23.000000
1.610000	58.870000	28.090000	676.000000	0.000000	148.000000	65.000000	-5.000000	-13.000000
1.620000	58.870000	28.040000	676.000000	0.000000	147.000000	65.000000	0.000000	-5.000000
1.630000	58.930000	27.980000	679.000000	0.000000	147.000000	65.000000	6.000000	-6.000000
1.640000	59.010000	27.920000	688.000000	0.000000	147.000000	65.000000	8.000000	-6.000000
1.650000	59.170000	27.920000	694.000000	0.000000	147.000000	65.000000	16.000000	0.000000
1.660000	59.440000	27.980000	693.000000	0.000000	147.000000	65.000000	27.000000	6.000000
1.670000	59.770000	28.100000	685.000000	0.000000	147.000000	65.000000	33.000000	12.000000
1.680000	60.110000	28.210000	678.000000	0.000000	147.000000	65.000000	34.000000	11.000000
1.690000	60.450000	28.370000	673.000000	0.000000	147.000000	65.000000	34.000000	16.000000
1.700000	60.760000	28.580000	669.000000	0.000000	147.000000	65.000000	31.000000	21.000000
1.710000	61.000000	28.770000	669.000000	0.000000	147.000000	65.000000	24.000000	19.000000
1.720000	61.210000	29.020000	669.000000	0.000000	147.000000	65.000000	21.000000	25.000000
1.730000	61.370000	29.300000	666.000000	0.000000	147.000000	65.000000	16.000000	28.000000
1.740000	61.500000	29.660000	673.000000	0.000000	147.000000	65.000000	13.000000	36.000000
1.750000	61.610000	30.000000	663.000000	0.000000	148.000000	65.000000	11.000000	34.000000
1.760000	61.680000	30.340000	675.000000	0.000000	148.000000	65.000000	7.000000	34.000000
1.770000	61.680000	30.500000	691.000000	0.000000	150.000000	65.000000	0.000000	16.000000
1.780000	61.610000	30.610000	705.000000	0.000000	151.000000	64.000000	-7.000000	11.000000
1.790000	61.550000	30.610000	722.000000	0.000000	151.000000	64.000000	-6.000000	0.000000
1.800000	61.480000	30.670000	733.000000	0.000000	151.000000	64.000000	-7.000000	6.000000
1.810000	61.380000	30.670000	730.000000	0.000000	151.000000	64.000000	-10.000000	0.000000
1.820000	61.260000	30.570000	725.000000	0.000000	153.000000	63.000000	-12.000000	-10.000000
1.830000	61.000000	30.410000	727.000000	0.000000	153.000000	63.000000	-26.000000	-16.000000
1.840000	60.740000	30.160000	728.000000	0.000000	153.000000	63.000000	-26.000000	-25.000000
1.850000	60.480000	29.830000	728.000000	0.000000	153.000000	63.000000	-26.000000	-33.000000
1.860000	60.300000	29.480000	725.000000	0.000000	153.000000	63.000000	-18.000000	-35.000000
1.870000	60.140000	29.130000	725.000000	0.000000	150.000000	64.000000	-16.000000	-35.000000
1.880000	60.030000	28.750000	727.000000	0.000000	150.000000	64.000000	-11.000000	-38.000000
1.890000	60.030000	28.500000	730.000000	0.000000	150.000000	64.000000	0.000000	-25.000000
1.900000	60.030000	28.350000	727.000000	0.000000	150.000000	64.000000	0.000000	-15.000000
1.910000	60.140000	28.280000	721.000000	0.000000	148.000000	65.000000	11.000000	-7.000000
1.920000	60.220000	28.280000	717.000000	0.000000	148.000000	65.000000	8.000000	0.000000
1.930000	60.320000	28.280000	711.000000	0.000000	148.000000	65.000000	10.000000	0.000000
1.940000	60.490000	28.330000	697.000000	0.000000	147.000000	65.000000	17.000000	5.000000
1.950000	60.680000	28.490000	685.000000	0.000000	147.000000	65.000000	19.000000	16.000000
1.960000	60.910000	28.720000	673.000000	0.000000	147.000000	65.000000	23.000000	23.000000
1.970000	61.140000	28.970000	650.000000	0.000000	147.000000	65.000000	23.000000	25.000000
1.980000	61.310000	29.260000	639.000000	0.000000	149.000000	66.000000	17.000000	29.000000
1.990000	61.450000	29.570000	614.000000	0.000000	150.000000	65.000000	14.000000	31.000000
2.000000	61.570000	29.850000	606.000000	0.000000	150.000000	65.000000	12.000000	28.000000
2.010000	61.620000	30.070000	606.000000	0.000000	150.000000	65.000000	5.000000	22.000000
2.020000	61.620000	30.130000	611.000000	0.000000	150.000000	65.000000	0.000000	6.000000
2.030000	61.620000	30.130000	611.000000	0.000000	151.000000	64.000000	0.000000	0.000000
2.040000	61.620000	30.020000	610.000000	0.000000	151.000000	64.000000	0.000000	-11.000000
2.050000	61.570000	29.890000	613.000000	0.000000	151.000000	64.000000	-5.000000	-13.000000
2.060000	61.520000	29.680000	617.000000	0.000000	151.000000	64.000000	-5.000000	-21.000000
2.070000	61.430000	29.420000	620.000000	0.000000	151.000000	64.000000	-9.000000	-26.000000
2.080000	61.360000	29.180000	622.000000	0.000000	151.000000	64.000000	-7.000000	-24.000000
2.090000	61.360000	28.980000	642.000000	0.000000	151.000000	64.000000	0.000000	-20.000000
2.100000	61.410000	28.780000	637.000000	0.000000	151.000000	64.000000	5.000000	-20.000000
2.110000	61.480000	28.650000	643.000000	0.000000	151.000000	64.000000	7.000000	-13.000000
2.120000	61.570000	28.580000	652.000000	0.000000	151.000000	64.000000	9.000000	-7.000000
2.130000	61.730000	28.510000	652.000000	0.000000	150.000000	65.000000	16.000000	-7.000000
2.140000	61.900000	28.510000	656.000000	0.000000	150.000000	65.000000	17.000000	0.000000
2.150000	62.070000	28.510000	658.000000	0.000000	150.000000	65.000000	17.000000	0.000000
2.160000	62.240000	28.510000	668.000000	0.000000	150.000000	65.000000	17.000000	0.000000
2.170000	62.420000	28.510000	670.000000	0.000000	149.000000	66.000000	18.000000	0.000000
2.180000	62.560000	28.510000	670.000000	0.000000	149.000000	66.000000	14.000000	0.000000
2.190000	62.670000	28.600000	694.000000	0.000000	149.000000	66.000000	11.000000	9.000000
2.200000	62.740000	28.600000	700.000000	0.000000	149.000000	66.000000	7.000000	0.000000
2.210000	62.740000	28.650000	728.000000	0.000000	150.000000	65.000000	0.000000	5.000000
2.220000	62.740000	28.650000	745.000000	0.000000	150.000000	65.000000	0.000000	0.000000
