t	x	y	pressure	penup	azimuth	inclination	v_x	v_y
0.000000	53.860000	47.380000	34.000000	1.000000	143.000000	53.000000	0.000000	0.000000
0.010000	54.220000	47.710000	172.000000	0.000000	143.000000	53.000000	36.000000	33.000000
0.020000	54.310000	47.870000	325.000000	0.000000	143.000000	53.000000	9.000000	16.000000
0.030000	54.310000	48.040000	436.000000	0.000000	143.000000	53.000000	0.000000	17.000000
0.040000	54.310000	47.990000	496.000000	0.000000	143.000000	53.000000	0.000000	-5.000000
0.050000	54.310000	47.880000	585.000000	0.000000	143.000000	53.000000	0.000000	-11.000000
0.060000	54.250000	47.490000	622.000000	0.000000	145.000000	53.000000	-6.000000	-39.000000
0.070000	54.160000	46.930000	643.000000	0.000000	146.000000	53.000000	-9.000000	-56.000000
0.080000	54.080000	46.450000	655.000000	0.000000	145.000000	54.000000	-8.000000	-48.000000
0.090000	54.010000	45.960000	661.000000	0.000000	145.000000	54.000000	-7.000000	-49.000000
0.100000	53.870000	45.550000	664.000000	0.000000	145.000000	54.000000	-14.000000	-41.000000
0.110000	53.690000	45.190000	664.000000	0.000000	144.000000	54.000000	-18.000000	-36.000000
0.120000	53.690000	45.130000	668.000000	0.000000	144.000000	54.000000	0.000000	-6.000000
0.130000	53.690000	45.130000	664.000000	0.000000	143.000000	55.000000	0.000000	0.000000
0.140000	53.690000	45.220000	636.000000	0.000000	141.000000	55.000000	0.000000	9.000000
0.150000	53.740000	45.540000	613.000000	0.000000	140.000000	55.000000	5.000000	32.000000
0.160000	53.820000	46.020000	611.000000	0.000000	140.000000	55.000000	8.000000	48.000000
0.170000	53.910000	46.620000	609.000000	0.000000	140.000000	55.000000	9.000000	60.000000
0.180000	54.010000	47.160000	614.000000	0.000000	140.000000	55.000000	10.000000	54.000000
0.190000	54.130000	47.590000	622.000000	0.000000	141.000000	55.000000	12.000000	43.000000
0.200000	54.260000	47.940000	627.000000	0.000000	141.000000	55.000000	13.000000	35.000000
0.210000	54.550000	48.210000	627.000000	0.000000	142.000000	54.000000	29.000000	27.000000
0.220000	54.860000	48.460000	627.000000	0.000000	143.000000	53.000000	31.000000	25.000000
0.230000	55.200000	48.550000	627.000000	0.000000	145.000000	54.000000	34.000000	9.000000
0.240000	55.550000	48.550000	627.000000	0.000000	145.000000	54.000000	35.000000	0.000000
0.250000	55.740000	48.300000	627.000000	0.000000	146.000000	53.000000	19.000000	-25.000000
0.260000	55.850000	48.040000	625.000000	0.000000	146.000000	53.000000	11.000000	-26.000000
0.270000	55.800000	47.740000	627.000000	0.000000	147.000000	53.000000	-5.000000	-30.000000
0.280000	55.530000	47.390000	630.000000	0.000000	147.000000	53.000000	-27.000000	-35.000000
0.290000	55.120000	47.060000	636.000000	0.000000	147.000000	53.000000	-41.000000	-33.000000
0.300000	54.690000	46.740000	639.000000	0.000000	147.000000	53.000000	-43.000000	-32.000000
0.310000	54.280000	46.520000	647.000000	0.000000	147.000000	53.000000	-41.000000	-22.000000
0.320000	54.110000	46.430000	647.000000	0.000000	147.000000	53.000000	-17.000000	-9.000000
0.330000	54.110000	46.430000	636.000000	0.000000	146.000000	54.000000	0.000000	0.000000
0.340000	54.110000	46.430000	636.000000	0.000000	146.000000	54.000000	0.000000	0.000000
0.350000	54.210000	46.380000	655.000000	0.000000	146.000000	54.000000	10.000000	-5.000000
0.360000	54.420000	46.330000	664.000000	0.000000	145.000000	55.000000	21.000000	-5.000000
0.370000	54.720000	46.220000	700.000000	0.000000	145.000000	55.000000	30.000000	-11.000000
0.380000	54.980000	46.070000	728.000000	0.000000	144.000000	54.000000	26.000000	-15.000000
0.390000	55.240000	45.840000	758.000000	0.000000	145.000000	55.000000	26.000000	-23.000000
0.400000	55.450000	45.620000	777.000000	0.000000	144.000000	56.000000	21.000000	-22.000000
0.410000	55.620000	45.470000	774.000000	0.000000	144.000000	56.000000	17.000000	-15.000000
0.420000	55.680000	45.370000	782.000000	0.000000	144.000000	56.000000	6.000000	-10.000000
0.430000	55.730000	45.270000	774.000000	0.000000	144.000000	56.000000	5.000000	-10.000000
0.440000	55.780000	45.190000	733.000000	0.000000	144.000000	56.000000	5.000000	-8.000000
0.450000	55.780000	45.190000	628.000000	0.000000	144.000000	56.000000	0.000000	0.000000
0.460000	55.780000	45.190000	324.000000	0.000000	144.000000	56.000000	0.000000	0.000000
0.470000	55.780000	45.190000	0.000000	1.000000	144.000000	56.000000	0.000000	0.000000
0.480000	55.780000	45.190000	0.000000	0.000000	144.000000	56.000000	0.000000	0.000000
0.490000	55.780000	45.190000	0.000000	0.000000	144.000000	56.000000	0.000000	0.000000
0.500000	56.080000	45.690000	0.000000	0.000000	144.000000	56.000000	30.000000	50.000000
0.510000	56.370000	45.940000	0.000000	0.000000	144.000000	56.000000	29.000000	25.000000
0.520000	56.700000	46.190000	0.000000	0.000000	145.000000	56.000000	33.000000	25.000000
0.530000	57.030000	46.320000	0.000000	0.000000	145.000000	56.000000	33.000000	13.000000
0.540000	57.230000	46.400000	0.000000	0.000000	145.000000	56.000000	20.000000	8.000000
0.550000	57.340000	46.400000	0.000000	0.000000	147.000000	56.000000	11.000000	0.000000
0.560000	57.340000	46.400000	182.000000	1.000000	148.000000	56.000000	0.000000	0.000000
0.570000	57.340000	46.400000	343.000000	0.000000	149.000000	56.000000	0.000000	0.000000
0.580000	57.340000	46.400000	469.000000	0.000000	149.000000	56.000000	0.000000	0.000000
0.590000	57.340000	46.400000	537.000000	0.000000	149.000000	56.000000	0.000000	0.000000
0.600000	57.340000	46.400000	594.000000	0.000000	149.000000	56.000000	0.000000	0.000000
0.610000	57.050000	46.310000	603.000000	0.000000	149.000000	56.000000	-29.000000	-9.000000
0.620000	56.920000	46.370000	610.000000	0.000000	149.000000	56.000000	-13.000000	6.000000
0.630000	56.750000	46.370000	627.000000	0.000000	149.000000	56.000000	-17.000000	0.000000
0.640000	56.510000	46.290000	652.000000	0.000000	149.000000	56.000000	-24.000000	-8.000000
0.650000	56.280000	46.170000	673.000000	0.000000	149.000000	56.000000	-23.000000	-12.000000
0.660000	56.090000	45.970000	676.000000	0.000000	147.000000	56.000000	-19.000000	-20.000000
0.670000	56.020000	45.750000	676.000000	0.000000	147.000000	56.000000	-7.000000	-22.000000
0.680000	56.020000	45.510000	688.000000	0.000000	147.000000	56.000000	0.000000	-24.000000
0.690000	56.140000	45.310000	685.000000	0.000000	145.000000	56.000000	12.000000	-20.000000
0.700000	56.320000	45.140000	690.000000	0.000000	145.000000	56.000000	18.000000	-17.000000
0.710000	56.530000	45.090000	685.000000	0.000000	145.000000	56.000000	21.000000	-5.000000
0.720000	56.840000	45.160000	673.000000	0.000000	145.000000	56.000000	31.000000	7.000000
0.730000	57.170000	45.310000	636.000000	0.000000	145.000000	56.000000	33.000000	15.000000
0.740000	57.380000	45.540000	614.000000	0.000000	147.000000	56.000000	21.000000	23.000000
0.750000	57.490000	45.830000	609.000000	0.000000	147.000000	56.000000	11.000000	29.000000
0.760000	57.490000	46.150000	599.000000	0.000000	147.000000	56.000000	0.000000	32.000000
0.770000	57.370000	46.310000	572.000000	0.000000	148.000000	57.000000	-12.000000	16.000000
0.780000	57.200000	46.440000	497.000000	0.000000	148.000000	57.000000	-17.000000	13.000000
0.790000	57.010000	46.440000	339.000000	0.000000	148.000000	57.000000	-19.000000	0.000000
0.800000	56.850000	46.280000	182.000000	0.000000	148.000000	57.000000	-16.000000	-16.000000
0.810000	56.850000	46.280000	0.000000	1.000000	148.000000	57.000000	0.000000	0.000000
0.820000	56.940000	45.990000	0.000000	0.000000	148.000000	57.000000	9.000000	-29.000000
0.830000	57.120000	45.990000	0.000000	0.000000	148.000000	57.000000	18.000000	0.000000
0.840000	57.420000	45.990000	0.000000	0.000000	148.000000	57.000000	30.000000	0.000000
0.850000	57.800000	46.100000	0.000000	0.000000	148.000000	57.000000	38.000000	11.000000
0.860000	58.210000	46.200000	0.000000	0.000000	148.000000	57.000000	41.000000	10.000000
0.870000	58.560000	46.300000	0.000000	0.000000	150.000000	57.000000	35.000000	10.000000
0.880000	58.760000	46.300000	0.000000	0.000000	151.000000	56.000000	20.000000	0.000000
0.890000	58.760000	46.300000	105.000000	1.000000	151.000000	56.000000	0.000000	0.000000
0.900000	58.760000	46.300000	233.000000	0.000000	152.000000	57.000000	0.000000	0.000000
0.910000	58.760000	46.300000	373.000000	0.000000	152.000000	57.000000	0.000000	0.000000
0.920000	58.760000	46.300000	491.000000	0.000000	154.000000	57.000000	0.000000	0.000000
0.930000	58.760000	46.300000	565.000000	0.000000	154.000000	57.000000	0.000000	0.000000
0.940000	58.760000	46.300000	619.000000	0.000000	154.000000	57.000000	0.000000	0.000000
0.950000	58.760000	46.300000	662.000000	0.000000	154.000000	57.000000	0.000000	0.000000
0.960000	58.760000	46.300000	684.000000	0.000000	154.000000	57.000000	0.000000	0.000000
0.970000	58.440000	46.360000	708.000000	0.000000	154.000000	57.000000	-32.000000	6.000000
0.980000	58.090000	46.190000	730.000000	0.000000	154.000000	57.000000	-35.000000	-17.000000
0.990000	57.940000	45.960000	728.000000	0.000000	154.000000	57.000000	-15.000000	-23.000000
1.000000	57.820000	45.750000	736.000000	0.000000	154.000000	57.000000	-12.000000	-21.000000
1.010000	57.720000	45.560000	737.000000	0.000000	151.000000	58.000000	-10.000000	-19.000000
1.020000	57.720000	45.390000	746.000000	0.000000	151.000000	58.000000	0.000000	-17.000000
1.030000	57.930000	45.240000	748.000000	0.000000	151.000000	58.000000	21.000000	-15.000000
1.040000	58.180000	45.180000	731.000000	0.000000	151.000000	58.000000	25.000000	-6.000000
1.050000	58.530000	45.240000	653.000000	0.000000	151.000000	58.000000	35.000000	6.000000
1.060000	58.890000	45.370000	415.000000	0.000000	151.000000	58.000000	36.000000	13.000000
1.070000	58.890000	45.370000	0.000000	1.000000	151.000000	58.000000	0.000000	0.000000
1.080000	59.410000	45.660000	0.000000	0.000000	153.000000	58.000000	52.000000	29.000000
1.090000	59.580000	45.840000	0.000000	0.000000	153.000000	58.000000	17.000000	18.000000
1.100000	59.750000	46.060000	0.000000	0.000000	153.000000	58.000000	17.000000	22.000000
1.110000	59.930000	46.220000	0.000000	0.000000	154.000000	58.000000	18.000000	16.000000
1.120000	60.050000	46.350000	0.000000	0.000000	154.000000	58.000000	12.000000	13.000000
1.130000	60.130000	46.400000	0.000000	0.000000	154.000000	58.000000	8.000000	5.000000
1.140000	60.130000	46.400000	0.000000	0.000000	154.000000	58.000000	0.000000	0.000000
1.150000	60.130000	46.400000	249.000000	1.000000	154.000000	58.000000	0.000000	0.000000
1.160000	60.130000	46.400000	440.000000	0.000000	156.000000	59.000000	0.000000	0.000000
1.170000	59.820000	46.320000	563.000000	0.000000	157.000000	58.000000	-31.000000	-8.000000
1.180000	59.770000	46.320000	631.000000	0.000000	157.000000	58.000000	-5.000000	0.000000
1.190000	59.770000	46.150000	664.000000	0.000000	157.000000	59.000000	0.000000	-17.000000
1.200000	59.770000	45.940000	681.000000	0.000000	157.000000	59.000000	0.000000	-21.000000
1.210000	59.710000	45.770000	693.000000	0.000000	157.000000	59.000000	-6.000000	-17.000000
1.220000	59.710000	45.600000	699.000000	0.000000	157.000000	59.000000	0.000000	-17.000000
1.230000	59.710000	45.460000	693.000000	0.000000	157.000000	59.000000	0.000000	-14.000000
1.240000	59.710000	45.330000	647.000000	0.000000	157.000000	59.000000	0.000000	-13.000000
1.250000	59.710000	45.270000	465.000000	0.000000	158.000000	58.000000	0.000000	-6.000000
1.260000	59.710000	45.270000	67.000000	0.000000	157.000000	59.000000	0.000000	0.000000
1.270000	59.710000	45.270000	0.000000	1.000000	157.000000	59.000000	0.000000	0.000000
1.280000	59.760000	45.490000	0.000000	0.000000	157.000000	59.000000	5.000000	22.000000
1.290000	59.760000	45.750000	0.000000	0.000000	157.000000	59.000000	0.000000	26.000000
1.300000	59.760000	46.050000	0.000000	0.000000	157.000000	59.000000	0.000000	30.000000
1.310000	59.760000	46.240000	0.000000	0.000000	156.000000	59.000000	0.000000	19.000000
1.320000	59.820000	46.400000	0.000000	0.000000	156.000000	59.000000	6.000000	16.000000
1.330000	59.820000	46.400000	180.000000	1.000000	156.000000	59.000000	0.000000	0.000000
1.340000	59.820000	46.400000	322.000000	0.000000	156.000000	59.000000	0.000000	0.000000
1.350000	59.770000	46.750000	453.000000	0.000000	156.000000	59.000000	-5.000000	35.000000
1.360000	59.770000	46.930000	536.000000	0.000000	157.000000	58.000000	0.000000	18.000000
1.370000	59.970000	47.100000	557.000000	0.000000	157.000000	58.000000	20.000000	17.000000
1.380000	60.170000	47.260000	557.000000	0.000000	157.000000	58.000000	20.000000	16.000000
1.390000	60.320000	47.410000	519.000000	0.000000	157.000000	58.000000	15.000000	15.000000
1.400000	60.440000	47.410000	351.000000	0.000000	157.000000	57.000000	12.000000	0.000000
1.410000	60.440000	47.410000	3.000000	1.000000	157.000000	57.000000	0.000000	0.000000
1.420000	60.440000	47.410000	0.000000	0.000000	157.000000	57.000000	0.000000	0.000000
1.430000	60.440000	47.410000	0.000000	0.000000	157.000000	57.000000	0.000000	0.000000
1.440000	60.440000	47.410000	0.000000	0.000000	157.000000	57.000000	0.000000	0.000000
1.450000	60.750000	47.100000	0.000000	0.000000	156.000000	57.000000	31.000000	-31.000000
1.460000	61.060000	47.040000	0.000000	0.000000	156.000000	57.000000	31.000000	-6.000000
1.470000	61.480000	46.960000	0.000000	0.000000	156.000000	57.000000	42.000000	-8.000000
1.480000	61.890000	46.850000	0.000000	0.000000	154.000000	56.000000	41.000000	-11.000000
1.490000	62.180000	46.720000	0.000000	0.000000	154.000000	56.000000	29.000000	-13.000000
1.500000	62.380000	46.580000	0.000000	0.000000	154.000000	56.000000	20.000000	-14.000000
1.510000	62.380000	46.440000	0.000000	0.000000	153.000000	56.000000	0.000000	-14.000000
1.520000	62.380000	46.440000	287.000000	1.000000	152.000000	57.000000	0.000000	0.000000
1.530000	62.070000	46.290000	458.000000	0.000000	152.000000	57.000000	-31.000000	-15.000000
1.540000	61.880000	46.290000	570.000000	0.000000	154.000000	57.000000	-19.000000	0.000000
1.550000	61.670000	46.290000	670.000000	0.000000	154.000000	57.000000	-21.000000	0.000000
1.560000	61.440000	46.290000	691.000000	0.000000	154.000000	57.000000	-23.000000	0.000000
1.570000	61.260000	46.220000	721.000000	0.000000	154.000000	58.000000	-18.000000	-7.000000
1.580000	60.990000	46.070000	745.000000	0.000000	154.000000	58.000000	-27.000000	-15.000000
1.590000	60.650000	45.870000	757.000000	0.000000	156.000000	59.000000	-34.000000	-20.000000
1.600000	60.370000	45.660000	754.000000	0.000000	156.000000	59.000000	-28.000000	-21.000000
1.610000	60.260000	45.480000	757.000000	0.000000	156.000000	59.000000	-11.000000	-18.000000
1.620000	60.260000	45.320000	756.000000	0.000000	156.000000	59.000000	0.000000	-16.000000
1.630000	60.370000	45.190000	767.000000	0.000000	156.000000	59.000000	11.000000	-13.000000
1.640000	60.520000	45.110000	767.000000	0.000000	156.000000	59.000000	15.000000	-8.000000
1.650000	60.820000	45.110000	759.000000	0.000000	156.000000	59.000000	30.000000	0.000000
1.660000	61.200000	45.210000	742.000000	0.000000	156.000000	59.000000	38.000000	10.000000
1.670000	61.550000	45.450000	733.000000	0.000000	156.000000	59.000000	35.000000	24.000000
1.680000	61.800000	45.760000	716.000000	0.000000	156.000000	59.000000	25.000000	31.000000
1.690000	61.980000	46.020000	668.000000	0.000000	156.000000	59.000000	18.000000	26.000000
1.700000	61.980000	46.250000	588.000000	0.000000	154.000000	58.000000	0.000000	23.000000
1.710000	61.850000	46.420000	334.000000	0.000000	154.000000	58.000000	-13.000000	17.000000
1.720000	61.850000	46.420000	0.000000	1.000000	154.000000	58.000000	0.000000	0.000000
1.730000	61.600000	46.260000	0.000000	0.000000	154.000000	58.000000	-25.000000	-16.000000
1.740000	61.460000	46.130000	0.000000	0.000000	154.000000	58.000000	-14.000000	-13.000000
1.750000	61.460000	46.070000	0.000000	0.000000	154.000000	58.000000	0.000000	-6.000000
1.760000	61.660000	46.070000	0.000000	0.000000	154.000000	58.000000	20.000000	0.000000
1.770000	62.150000	46.070000	0.000000	0.000000	155.000000	58.000000	49.000000	0.000000
1.780000	62.650000	46.140000	0.000000	0.000000	155.000000	58.000000	50.000000	7.000000
1.790000	63.150000	46.190000	0.000000	0.000000	154.000000	56.000000	50.000000	5.000000
1.800000	63.450000	46.190000	0.000000	0.000000	154.000000	56.000000	30.000000	0.000000
1.810000	63.640000	46.100000	0.000000	0.000000	154.000000	56.000000	19.000000	-9.000000
1.820000	63.640000	46.000000	0.000000	0.000000	154.000000	55.000000	0.000000	-10.000000
1.830000	63.640000	46.000000	259.000000	1.000000	154.000000	55.000000	0.000000	0.000000
1.840000	63.640000	46.000000	466.000000	0.000000	155.000000	55.000000	0.000000	0.000000
1.850000	63.640000	46.000000	605.000000	0.000000	154.000000	56.000000	0.000000	0.000000
1.860000	63.640000	46.000000	678.000000	0.000000	154.000000	56.000000	0.000000	0.000000
1.870000	63.640000	46.000000	710.000000	0.000000	154.000000	56.000000	0.000000	0.000000
1.880000	63.340000	45.830000	727.000000	0.000000	155.000000	58.000000	-30.000000	-17.000000
1.890000	62.940000	45.610000	759.000000	0.000000	155.000000	58.000000	-40.000000	-22.000000
1.900000	62.300000	45.330000	763.000000	0.000000	155.000000	58.000000	-64.000000	-28.000000
1.910000	61.490000	45.130000	767.000000	0.000000	157.000000	58.000000	-81.000000	-20.000000
1.920000	60.430000	44.960000	770.000000	0.000000	157.000000	58.000000	-106.000000	-17.000000
1.930000	59.120000	44.820000	770.000000	0.000000	157.000000	58.000000	-131.000000	-14.000000
1.940000	57.630000	44.650000	768.000000	0.000000	157.000000	58.000000	-149.000000	-17.000000
1.950000	55.890000	44.560000	770.000000	0.000000	155.000000	58.000000	-174.000000	-9.000000
1.960000	54.340000	44.560000	759.000000	0.000000	155.000000	58.000000	-155.000000	0.000000
1.970000	52.910000	44.710000	757.000000	0.000000	154.000000	57.000000	-143.000000	15.000000
1.980000	51.860000	45.070000	757.000000	0.000000	153.000000	56.000000	-105.000000	36.000000
1.990000	51.470000	45.540000	761.000000	0.000000	153.000000	56.000000	-39.000000	47.000000
2.000000	51.520000	46.090000	754.000000	0.000000	152.000000	56.000000	5.000000	55.000000
2.010000	52.220000	46.730000	754.000000	0.000000	150.000000	55.000000	70.000000	64.000000
2.020000	53.540000	47.430000	758.000000	0.000000	150.000000	55.000000	132.000000	70.000000
2.030000	55.280000	48.140000	754.000000	0.000000	150.000000	54.000000	174.000000	71.000000
2.040000	57.200000	48.750000	757.000000	0.000000	151.000000	54.000000	192.000000	61.000000
2.050000	58.700000	48.750000	756.000000	0.000000	152.000000	54.000000	150.000000	0.000000
2.060000	59.910000	48.390000	751.000000	0.000000	153.000000	54.000000	121.000000	-36.000000
2.070000	60.440000	47.890000	758.000000	0.000000	156.000000	53.000000	53.000000	-50.000000
2.080000	60.440000	47.380000	757.000000	0.000000	157.000000	54.000000	0.000000	-51.000000
2.090000	60.200000	46.810000	755.000000	0.000000	158.000000	54.000000	-24.000000	-57.000000
2.100000	59.330000	46.180000	754.000000	0.000000	158.000000	54.000000	-87.000000	-63.000000
2.110000	58.130000	45.620000	749.000000	0.000000	159.000000	55.000000	-120.000000	-56.000000
2.120000	56.710000	45.110000	749.000000	0.000000	158.000000	56.000000	-142.000000	-51.000000
2.130000	55.380000	44.560000	752.000000	0.000000	158.000000	56.000000	-133.000000	-55.000000
2.140000	54.100000	43.950000	757.000000	0.000000	157.000000	56.000000	-128.000000	-61.000000
2.150000	53.270000	43.300000	759.000000	0.000000	155.000000	55.000000	-83.000000	-65.000000
2.160000	52.730000	42.770000	765.000000	0.000000	154.000000	55.000000	-54.000000	-53.000000
2.170000	52.730000	42.370000	783.000000	0.000000	153.000000	55.000000	0.000000	-40.000000
2.180000	53.260000	42.070000	827.000000	0.000000	151.000000	54.000000	53.000000	-30.000000
2.190000	54.200000	41.970000	866.000000	0.000000	150.000000	54.000000	94.000000	-10.000000
2.200000	55.870000	42.090000	872.000000	0.000000	150.000000	54.000000	167.000000	12.000000
2.210000	57.910000	42.360000	897.000000	0.000000	150.000000	54.000000	204.000000	27.000000
