t	x	y	pressure	penup	azimuth	inclination	v_x	v_y
0.000000	49.270000	12.490000	8.000000	1.000000	134.000000	60.000000	0.000000	0.000000
0.010000	49.270000	12.490000	12.000000	0.000000	132.000000	60.000000	0.000000	0.000000
0.020000	49.270000	12.490000	29.000000	1.000000	132.000000	61.000000	0.000000	0.000000
0.030000	49.400000	12.190000	34.000000	0.000000	130.000000	62.000000	13.000000	-30.000000
0.040000	49.510000	11.910000	36.000000	0.000000	129.000000	63.000000	11.000000	-28.000000
0.050000	49.610000	11.510000	46.000000	0.000000	130.000000	63.000000	10.000000	-40.000000
0.060000	49.740000	11.180000	61.000000	0.000000	129.000000	64.000000	13.000000	-33.000000
0.070000	49.910000	10.910000	51.000000	0.000000	129.000000	64.000000	17.000000	-27.000000
0.080000	50.090000	10.640000	56.000000	0.000000	129.000000	64.000000	18.000000	-27.000000
0.090000	50.260000	10.470000	71.000000	0.000000	129.000000	64.000000	17.000000	-17.000000
0.100000	50.390000	10.360000	80.000000	0.000000	129.000000	64.000000	13.000000	-11.000000
0.110000	50.450000	10.300000	101.000000	0.000000	129.000000	64.000000	6.000000	-6.000000
0.120000	50.450000	10.300000	149.000000	0.000000	129.000000	64.000000	0.000000	0.000000
0.130000	50.360000	10.440000	195.000000	0.000000	129.000000	64.000000	-9.000000	14.000000
0.140000	50.170000	10.680000	219.000000	0.000000	129.000000	64.000000	-19.000000	24.000000
0.150000	49.930000	10.970000	246.000000	0.000000	129.000000	64.000000	-24.000000	29.000000
0.160000	49.670000	11.290000	265.000000	0.000000	129.000000	64.000000	-26.000000	32.000000
0.170000	49.380000	11.830000	274.000000	0.000000	129.000000	64.000000	-29.000000	54.000000
0.180000	49.060000	12.440000	289.000000	0.000000	129.000000	64.000000	-32.000000	61.000000
0.190000	48.880000	13.100000	302.000000	0.000000	129.000000	64.000000	-18.000000	66.000000
0.200000	48.880000	13.520000	311.000000	0.000000	129.000000	64.000000	0.000000	42.000000
0.210000	48.930000	13.870000	302.000000	0.000000	129.000000	64.000000	5.000000	35.000000
0.220000	49.150000	14.120000	282.000000	0.000000	129.000000	64.000000	22.000000	25.000000
0.230000	49.410000	14.290000	285.000000	0.000000	129.000000	64.000000	26.000000	17.000000
0.240000	49.710000	14.400000	272.000000	0.000000	130.000000	63.000000	30.000000	11.000000
0.250000	49.940000	14.340000	259.000000	0.000000	130.000000	63.000000	23.000000	-6.000000
0.260000	50.130000	14.170000	255.000000	0.000000	130.000000	63.000000	19.000000	-17.000000
0.270000	50.250000	13.940000	257.000000	0.000000	132.000000	63.000000	12.000000	-23.000000
0.280000	50.250000	13.680000	260.000000	0.000000	132.000000	63.000000	0.000000	-26.000000
0.290000	50.250000	13.360000	265.000000	0.000000	132.000000	63.000000	0.000000	-32.000000
0.300000	50.200000	13.000000	265.000000	0.000000	132.000000	63.000000	-5.000000	-36.000000
0.310000	50.090000	12.630000	269.000000	0.000000	132.000000	63.000000	-11.000000	-37.000000
0.320000	49.960000	12.240000	270.000000	0.000000	130.000000	63.000000	-13.000000	-39.000000
0.330000	49.910000	11.860000	270.000000	0.000000	130.000000	63.000000	-5.000000	-38.000000
0.340000	49.910000	11.500000	269.000000	0.000000	130.000000	63.000000	0.000000	-36.000000
0.350000	49.910000	11.250000	270.000000	0.000000	129.000000	64.000000	0.000000	-25.000000
0.360000	49.970000	11.060000	270.000000	0.000000	129.000000	64.000000	6.000000	-19.000000
0.370000	50.160000	10.890000	269.000000	0.000000	130.000000	65.000000	19.000000	-17.000000
0.380000	50.390000	10.710000	269.000000	0.000000	130.000000	65.000000	23.000000	-18.000000
0.390000	50.660000	10.600000	270.000000	0.000000	130.000000	65.000000	27.000000	-11.000000
0.400000	50.960000	10.540000	262.000000	0.000000	130.000000	65.000000	30.000000	-6.000000
0.410000	51.270000	10.540000	222.000000	0.000000	130.000000	65.000000	31.000000	0.000000
0.420000	51.590000	10.540000	103.000000	0.000000	130.000000	65.000000	32.000000	0.000000
0.430000	51.590000	10.540000	0.000000	1.000000	130.000000	65.000000	0.000000	0.000000
0.440000	52.180000	10.800000	0.000000	0.000000	130.000000	65.000000	59.000000	26.000000
0.450000	52.400000	10.960000	0.000000	0.000000	130.000000	65.000000	22.000000	16.000000
0.460000	52.590000	11.150000	0.000000	0.000000	130.000000	65.000000	19.000000	19.000000
0.470000	52.750000	11.320000	0.000000	0.000000	130.000000	65.000000	16.000000	17.000000
0.480000	52.910000	11.510000	0.000000	0.000000	129.000000	64.000000	16.000000	19.000000
0.490000	53.080000	11.720000	0.000000	0.000000	129.000000	64.000000	17.000000	21.000000
0.500000	53.220000	11.910000	0.000000	0.000000	130.000000	63.000000	14.000000	19.000000
0.510000	53.340000	12.100000	0.000000	0.000000	130.000000	63.000000	12.000000	19.000000
0.520000	53.340000	12.240000	0.000000	0.000000	130.000000	63.000000	0.000000	14.000000
0.530000	53.280000	12.350000	0.000000	0.000000	132.000000	63.000000	-6.000000	11.000000
0.540000	53.280000	12.350000	108.000000	1.000000	130.000000	63.000000	0.000000	0.000000
0.550000	52.940000	12.490000	122.000000	0.000000	129.000000	63.000000	-34.000000	14.000000
0.560000	52.700000	12.490000	170.000000	0.000000	129.000000	63.000000	-24.000000	0.000000
0.570000	52.450000	12.440000	225.000000	0.000000	129.000000	64.000000	-25.000000	-5.000000
0.580000	52.230000	12.330000	251.000000	0.000000	129.000000	64.000000	-22.000000	-11.000000
0.590000	52.040000	12.220000	250.000000	0.000000	129.000000	64.000000	-19.000000	-11.000000
0.600000	51.920000	12.090000	260.000000	0.000000	127.000000	64.000000	-12.000000	-13.000000
0.610000	51.860000	11.900000	275.000000	0.000000	127.000000	64.000000	-6.000000	-19.000000
0.620000	51.860000	11.650000	275.000000	0.000000	127.000000	64.000000	0.000000	-25.000000
0.630000	51.940000	11.410000	277.000000	0.000000	127.000000	64.000000	8.000000	-24.000000
0.640000	52.080000	11.240000	280.000000	0.000000	127.000000	64.000000	14.000000	-17.000000
0.650000	52.270000	11.110000	285.000000	0.000000	127.000000	64.000000	19.000000	-13.000000
0.660000	52.560000	10.990000	274.000000	0.000000	127.000000	64.000000	29.000000	-12.000000
0.670000	52.910000	10.990000	279.000000	0.000000	127.000000	64.000000	35.000000	0.000000
0.680000	53.230000	10.990000	279.000000	0.000000	127.000000	64.000000	32.000000	0.000000
0.690000	53.560000	11.050000	281.000000	0.000000	127.000000	64.000000	33.000000	6.000000
0.700000	53.920000	11.200000	280.000000	0.000000	127.000000	64.000000	36.000000	15.000000
0.710000	54.140000	11.400000	280.000000	0.000000	127.000000	64.000000	22.000000	20.000000
0.720000	54.270000	11.680000	279.000000	0.000000	127.000000	64.000000	13.000000	28.000000
0.730000	54.270000	11.940000	272.000000	0.000000	127.000000	64.000000	0.000000	26.000000
0.740000	54.170000	12.160000	257.000000	0.000000	127.000000	64.000000	-10.000000	22.000000
0.750000	53.950000	12.310000	249.000000	0.000000	127.000000	64.000000	-22.000000	15.000000
0.760000	53.650000	12.390000	212.000000	0.000000	127.000000	64.000000	-30.000000	8.000000
0.770000	53.340000	12.390000	137.000000	0.000000	127.000000	64.000000	-31.000000	0.000000
0.780000	53.030000	12.340000	107.000000	0.000000	127.000000	64.000000	-31.000000	-5.000000
0.790000	52.870000	12.260000	1.000000	1.000000	127.000000	64.000000	0.000000	0.000000
0.800000	52.870000	12.260000	0.000000	0.000000	127.000000	64.000000	0.000000	0.000000
0.810000	52.770000	12.200000	0.000000	0.000000	127.000000	64.000000	-10.000000	-6.000000
0.820000	52.890000	12.200000	0.000000	0.000000	127.000000	64.000000	12.000000	0.000000
0.830000	53.080000	12.200000	0.000000	0.000000	127.000000	64.000000	19.000000	0.000000
0.840000	53.330000	12.280000	0.000000	0.000000	127.000000	64.000000	25.000000	8.000000
0.850000	53.590000	12.340000	0.000000	0.000000	127.000000	64.000000	26.000000	6.000000
0.860000	53.860000	12.410000	0.000000	0.000000	129.000000	64.000000	27.000000	7.000000
0.870000	54.150000	12.500000	0.000000	0.000000	129.000000	64.000000	29.000000	9.000000
0.880000	54.430000	12.580000	0.000000	0.000000	129.000000	64.000000	28.000000	8.000000
0.890000	54.680000	12.700000	0.000000	0.000000	130.000000	63.000000	25.000000	12.000000
0.900000	54.900000	12.860000	0.000000	0.000000	132.000000	64.000000	22.000000	16.000000
0.910000	55.090000	13.050000	0.000000	0.000000	132.000000	64.000000	19.000000	19.000000
0.920000	55.180000	13.210000	0.000000	0.000000	133.000000	63.000000	9.000000	16.000000
0.930000	55.180000	13.210000	5.000000	0.000000	133.000000	63.000000	0.000000	0.000000
0.940000	55.180000	13.210000	41.000000	1.000000	133.000000	63.000000	0.000000	0.000000
0.950000	55.180000	13.210000	78.000000	0.000000	133.000000	63.000000	0.000000	0.000000
0.960000	54.800000	13.410000	120.000000	0.000000	132.000000	64.000000	-38.000000	20.000000
0.970000	54.630000	13.410000	132.000000	0.000000	132.000000	64.000000	-17.000000	0.000000
0.980000	54.470000	13.330000	168.000000	0.000000	132.000000	64.000000	-16.000000	-8.000000
0.990000	54.330000	13.230000	171.000000	0.000000	132.000000	64.000000	-14.000000	-10.000000
1.000000	54.220000	13.080000	190.000000	0.000000	130.000000	65.000000	-11.000000	-15.000000
1.010000	54.160000	12.900000	202.000000	0.000000	129.000000	64.000000	-6.000000	-18.000000
1.020000	54.160000	12.720000	207.000000	0.000000	129.000000	64.000000	0.000000	-18.000000
1.030000	54.160000	12.490000	208.000000	0.000000	129.000000	64.000000	0.000000	-23.000000
1.040000	54.260000	12.250000	210.000000	0.000000	129.000000	64.000000	10.000000	-24.000000
1.050000	54.430000	12.020000	212.000000	0.000000	127.000000	64.000000	17.000000	-23.000000
1.060000	54.660000	11.830000	215.000000	0.000000	127.000000	64.000000	23.000000	-19.000000
1.070000	54.890000	11.670000	220.000000	0.000000	128.000000	65.000000	23.000000	-16.000000
1.080000	55.130000	11.670000	207.000000	0.000000	128.000000	65.000000	24.000000	0.000000
1.090000	55.400000	11.670000	211.000000	0.000000	128.000000	65.000000	27.000000	0.000000
1.100000	55.680000	11.770000	222.000000	0.000000	128.000000	65.000000	28.000000	10.000000
1.110000	55.960000	12.000000	220.000000	0.000000	130.000000	66.000000	28.000000	23.000000
1.120000	56.230000	12.240000	212.000000	0.000000	130.000000	66.000000	27.000000	24.000000
1.130000	56.390000	12.500000	205.000000	0.000000	130.000000	66.000000	16.000000	26.000000
1.140000	56.470000	12.720000	205.000000	0.000000	130.000000	66.000000	8.000000	22.000000
1.150000	56.470000	12.940000	205.000000	0.000000	131.000000	67.000000	0.000000	22.000000
1.160000	56.470000	13.150000	212.000000	0.000000	131.000000	67.000000	0.000000	21.000000
1.170000	56.420000	13.310000	206.000000	0.000000	131.000000	67.000000	-5.000000	16.000000
1.180000	56.310000	13.460000	235.000000	0.000000	131.000000	67.000000	-11.000000	15.000000
1.190000	56.210000	13.590000	259.000000	0.000000	133.000000	66.000000	-10.000000	13.000000
1.200000	56.120000	13.690000	280.000000	0.000000	133.000000	66.000000	-9.000000	10.000000
1.210000	56.070000	13.770000	301.000000	0.000000	133.000000	66.000000	-5.000000	8.000000
1.220000	56.020000	13.820000	337.000000	0.000000	133.000000	66.000000	-5.000000	5.000000
1.230000	56.020000	13.820000	337.000000	0.000000	132.000000	65.000000	0.000000	0.000000
1.240000	56.020000	13.820000	330.000000	0.000000	133.000000	65.000000	0.000000	0.000000
1.250000	56.020000	13.820000	329.000000	0.000000	133.000000	65.000000	0.000000	0.000000
1.260000	56.020000	13.820000	330.000000	0.000000	133.000000	65.000000	0.000000	0.000000
1.270000	56.130000	13.500000	332.000000	0.000000	133.000000	65.000000	11.000000	-32.000000
1.280000	56.190000	13.220000	332.000000	0.000000	133.000000	65.000000	6.000000	-28.000000
1.290000	56.290000	12.930000	332.000000	0.000000	133.000000	65.000000	10.000000	-29.000000
1.300000	56.400000	12.690000	330.000000	0.000000	133.000000	65.000000	11.000000	-24.000000
1.310000	56.550000	12.480000	325.000000	0.000000	133.000000	66.000000	15.000000	-21.000000
1.320000	56.730000	12.320000	314.000000	0.000000	133.000000	66.000000	18.000000	-16.000000
1.330000	57.000000	12.320000	280.000000	0.000000	133.000000	66.000000	27.000000	0.000000
1.340000	57.320000	12.320000	213.000000	0.000000	135.000000	67.000000	32.000000	0.000000
1.350000	57.720000	12.500000	130.000000	0.000000	135.000000	67.000000	40.000000	18.000000
1.360000	58.130000	12.710000	12.000000	1.000000	135.000000	67.000000	0.000000	0.000000
1.370000	58.130000	12.710000	0.000000	0.000000	135.000000	67.000000	0.000000	0.000000
1.380000	58.750000	13.140000	0.000000	0.000000	133.000000	66.000000	62.000000	43.000000
1.390000	58.930000	13.300000	0.000000	0.000000	133.000000	66.000000	18.000000	16.000000
1.400000	59.040000	13.430000	0.000000	0.000000	133.000000	66.000000	11.000000	13.000000
1.410000	59.110000	13.590000	0.000000	0.000000	135.000000	65.000000	7.000000	16.000000
1.420000	59.110000	13.760000	0.000000	0.000000	135.000000	65.000000	0.000000	17.000000
1.430000	59.200000	13.910000	0.000000	0.000000	133.000000	65.000000	9.000000	15.000000
1.440000	59.200000	14.060000	0.000000	0.000000	135.000000	64.000000	0.000000	15.000000
1.450000	59.200000	14.060000	29.000000	1.000000	135.000000	64.000000	0.000000	0.000000
1.460000	59.200000	14.060000	47.000000	0.000000	135.000000	64.000000	0.000000	0.000000
1.470000	58.880000	14.350000	80.000000	0.000000	137.000000	63.000000	-32.000000	29.000000
1.480000	58.760000	14.350000	110.000000	0.000000	137.000000	63.000000	-12.000000	0.000000
1.490000	58.630000	14.410000	131.000000	0.000000	137.000000	63.000000	-13.000000	6.000000
1.500000	58.470000	14.360000	176.000000	0.000000	137.000000	63.000000	-16.000000	-5.000000
1.510000	58.300000	14.290000	215.000000	0.000000	137.000000	63.000000	-17.000000	-7.000000
1.520000	58.120000	14.190000	214.000000	0.000000	137.000000	63.000000	-18.000000	-10.000000
1.530000	57.970000	14.050000	225.000000	0.000000	137.000000	63.000000	-15.000000	-14.000000
1.540000	57.870000	13.860000	246.000000	0.000000	135.000000	64.000000	-10.000000	-19.000000
1.550000	57.770000	13.670000	249.000000	0.000000	135.000000	64.000000	-10.000000	-19.000000
1.560000	57.770000	13.500000	241.000000	0.000000	135.000000	64.000000	0.000000	-17.000000
1.570000	57.910000	13.300000	249.000000	0.000000	133.000000	65.000000	14.000000	-20.000000
1.580000	58.120000	13.110000	254.000000	0.000000	133.000000	65.000000	21.000000	-19.000000
1.590000	58.350000	12.950000	272.000000	0.000000	133.000000	65.000000	23.000000	-16.000000
1.600000	58.620000	12.800000	279.000000	0.000000	133.000000	66.000000	27.000000	-15.000000
1.610000	58.900000	12.800000	282.000000	0.000000	133.000000	66.000000	28.000000	0.000000
1.620000	59.170000	12.800000	301.000000	0.000000	133.000000	66.000000	27.000000	0.000000
1.630000	59.440000	12.960000	299.000000	0.000000	131.000000	67.000000	27.000000	16.000000
1.640000	59.700000	13.200000	304.000000	0.000000	130.000000	66.000000	26.000000	24.000000
1.650000	59.870000	13.460000	304.000000	0.000000	130.000000	66.000000	17.000000	26.000000
1.660000	59.980000	13.730000	307.000000	0.000000	130.000000	66.000000	11.000000	27.000000
1.670000	59.980000	13.930000	284.000000	0.000000	132.000000	65.000000	0.000000	20.000000
1.680000	59.820000	14.090000	226.000000	0.000000	132.000000	65.000000	-16.000000	16.000000
1.690000	59.620000	14.190000	58.000000	0.000000	132.000000	65.000000	-20.000000	10.000000
1.700000	59.620000	14.190000	0.000000	1.000000	133.000000	65.000000	0.000000	0.000000
1.710000	58.970000	14.240000	0.000000	0.000000	133.000000	65.000000	-65.000000	5.000000
1.720000	58.520000	14.300000	0.000000	0.000000	135.000000	64.000000	-45.000000	6.000000
1.730000	58.010000	14.360000	0.000000	0.000000	135.000000	64.000000	-51.000000	6.000000
1.740000	57.510000	14.360000	0.000000	0.000000	138.000000	64.000000	-50.000000	0.000000
1.750000	57.050000	14.420000	0.000000	0.000000	140.000000	63.000000	-46.000000	6.000000
1.760000	56.670000	14.420000	0.000000	0.000000	140.000000	63.000000	-38.000000	0.000000
1.770000	56.380000	14.350000	0.000000	0.000000	141.000000	63.000000	-29.000000	-7.000000
1.780000	56.170000	14.350000	0.000000	0.000000	141.000000	63.000000	-21.000000	0.000000
1.790000	56.020000	14.300000	0.000000	0.000000	144.000000	62.000000	-15.000000	-5.000000
1.800000	55.930000	14.300000	0.000000	0.000000	144.000000	62.000000	-9.000000	0.000000
1.810000	55.850000	14.300000	0.000000	0.000000	144.000000	62.000000	-8.000000	0.000000
1.820000	55.850000	14.300000	0.000000	0.000000	144.000000	62.000000	0.000000	0.000000
1.830000	55.850000	14.300000	0.000000	0.000000	144.000000	62.000000	0.000000	0.000000
1.840000	55.850000	14.300000	0.000000	0.000000	144.000000	62.000000	0.000000	0.000000
1.850000	55.850000	14.300000	0.000000	0.000000	141.000000	63.000000	0.000000	0.000000
1.860000	55.850000	14.300000	61.000000	1.000000	141.000000	63.000000	0.000000	0.000000
1.870000	55.950000	14.220000	109.000000	0.000000	141.000000	63.000000	10.000000	-8.000000
1.880000	55.950000	14.290000	149.000000	0.000000	138.000000	63.000000	0.000000	7.000000
1.890000	55.950000	14.420000	212.000000	0.000000	138.000000	63.000000	0.000000	13.000000
1.900000	55.950000	14.600000	277.000000	0.000000	138.000000	63.000000	0.000000	18.000000
1.910000	55.950000	14.810000	361.000000	0.000000	138.000000	63.000000	0.000000	21.000000
1.920000	55.950000	15.120000	397.000000	0.000000	138.000000	63.000000	0.000000	31.000000
1.930000	55.950000	15.550000	410.000000	0.000000	138.000000	63.000000	0.000000	43.000000
1.940000	55.950000	16.050000	417.000000	0.000000	138.000000	63.000000	0.000000	50.000000
1.950000	56.070000	16.610000	404.000000	0.000000	138.000000	61.000000	12.000000	56.000000
1.960000	56.200000	16.930000	317.000000	0.000000	139.000000	61.000000	13.000000	32.000000
1.970000	56.350000	17.100000	93.000000	0.000000	141.000000	61.000000	15.000000	17.000000
1.980000	56.350000	17.100000	0.000000	1.000000	142.000000	61.000000	0.000000	0.000000
1.990000	56.660000	16.910000	0.000000	0.000000	142.000000	61.000000	31.000000	-19.000000
2.000000	56.810000	16.740000	0.000000	0.000000	144.000000	60.000000	15.000000	-17.000000
2.010000	56.880000	16.630000	0.000000	0.000000	146.000000	60.000000	7.000000	-11.000000
2.020000	56.880000	16.560000	0.000000	0.000000	147.000000	59.000000	0.000000	-7.000000
2.030000	57.060000	16.300000	0.000000	0.000000	150.000000	58.000000	18.000000	-26.000000
2.040000	57.270000	16.000000	0.000000	0.000000	152.000000	59.000000	21.000000	-30.000000
2.050000	57.560000	15.670000	0.000000	0.000000	154.000000	58.000000	29.000000	-33.000000
2.060000	58.030000	15.350000	0.000000	0.000000	155.000000	58.000000	47.000000	-32.000000
2.070000	58.620000	14.960000	0.000000	0.000000	154.000000	56.000000	59.000000	-39.000000
2.080000	59.190000	14.570000	0.000000	0.000000	153.000000	56.000000	57.000000	-39.000000
2.090000	59.740000	14.180000	0.000000	0.000000	150.000000	55.000000	55.000000	-39.000000
2.100000	60.270000	13.840000	0.000000	0.000000	150.000000	54.000000	53.000000	-34.000000
2.110000	60.900000	13.540000	0.000000	0.000000	147.000000	53.000000	63.000000	-30.000000
2.120000	61.190000	13.300000	0.000000	0.000000	145.000000	53.000000	29.000000	-24.000000
2.130000	61.250000	13.050000	0.000000	0.000000	143.000000	52.000000	6.000000	-25.000000
2.140000	61.330000	12.910000	0.000000	0.000000	142.000000	53.000000	8.000000	-14.000000
2.150000	61.410000	12.840000	0.000000	0.000000	142.000000	53.000000	8.000000	-7.000000
2.160000	61.410000	12.840000	0.000000	0.000000	144.000000	54.000000	0.000000	0.000000
2.170000	61.410000	12.840000	0.000000	0.000000	145.000000	55.000000	0.000000	0.000000
2.180000	61.090000	13.120000	0.000000	0.000000	145.000000	56.000000	-32.000000	28.000000
2.190000	60.830000	13.330000	0.000000	0.000000	144.000000	57.000000	-26.000000	21.000000
2.200000	60.550000	13.520000	0.000000	0.000000	144.000000	58.000000	-28.000000	19.000000
2.210000	60.270000	13.620000	0.000000	0.000000	144.000000	58.000000	-28.000000	10.000000
2.220000	59.980000	13.620000	0.000000	0.000000	144.000000	58.000000	-29.000000	0.000000
