t	x	y	pressure	penup	azimuth	inclination	v_x	v_y
0.000000	15.980000	62.700000	89.000000	1.000000	142.000000	66.000000	0.000000	0.000000
0.010000	15.980000	62.700000	148.000000	0.000000	144.000000	66.000000	0.000000	0.000000
0.020000	15.980000	62.700000	200.000000	0.000000	144.000000	66.000000	0.000000	0.000000
0.030000	15.980000	62.700000	245.000000	0.000000	144.000000	66.000000	0.000000	0.000000
0.040000	15.980000	62.700000	297.000000	0.000000	144.000000	66.000000	0.000000	0.000000
0.050000	15.980000	62.700000	333.000000	0.000000	144.000000	66.000000	0.000000	0.000000
0.060000	15.980000	62.700000	381.000000	0.000000	144.000000	66.000000	0.000000	0.000000
0.070000	15.980000	62.700000	420.000000	0.000000	144.000000	66.000000	0.000000	0.000000
0.080000	15.980000	62.700000	455.000000	0.000000	144.000000	66.000000	0.000000	0.000000
0.090000	15.980000	62.700000	481.000000	0.000000	145.000000	65.000000	0.000000	0.000000
0.100000	15.980000	62.700000	501.000000	0.000000	145.000000	65.000000	0.000000	0.000000
0.110000	15.920000	62.350000	526.000000	0.000000	145.000000	65.000000	-6.000000	-35.000000
0.120000	15.830000	62.070000	542.000000	0.000000	145.000000	65.000000	-9.000000	-28.000000
0.130000	15.720000	61.740000	562.000000	0.000000	145.000000	65.000000	-11.000000	-33.000000
0.140000	15.600000	61.360000	560.000000	0.000000	142.000000	65.000000	-12.000000	-38.000000
0.150000	15.500000	60.970000	581.000000	0.000000	142.000000	65.000000	-10.000000	-39.000000
0.160000	15.390000	60.550000	586.000000	0.000000	142.000000	65.000000	-11.000000	-42.000000
0.170000	15.280000	60.130000	595.000000	0.000000	140.000000	66.000000	-11.000000	-42.000000
0.180000	15.160000	59.710000	591.000000	0.000000	138.000000	65.000000	-12.000000	-42.000000
0.190000	15.080000	59.360000	594.000000	0.000000	138.000000	65.000000	-8.000000	-35.000000
0.200000	15.010000	59.050000	597.000000	0.000000	137.000000	66.000000	-7.000000	-31.000000
0.210000	15.010000	58.850000	599.000000	0.000000	137.000000	66.000000	0.000000	-20.000000
0.220000	14.940000	58.760000	597.000000	0.000000	133.000000	66.000000	-7.000000	-9.000000
0.230000	14.940000	58.760000	602.000000	0.000000	133.000000	66.000000	0.000000	0.000000
0.240000	14.940000	58.760000	597.000000	0.000000	131.000000	67.000000	0.000000	0.000000
0.250000	14.940000	58.760000	592.000000	0.000000	131.000000	67.000000	0.000000	0.000000
0.260000	14.940000	58.760000	585.000000	0.000000	131.000000	67.000000	0.000000	0.000000
0.270000	15.010000	58.900000	581.000000	0.000000	130.000000	67.000000	7.000000	14.000000
0.280000	15.060000	59.140000	570.000000	0.000000	130.000000	67.000000	5.000000	24.000000
0.290000	15.150000	59.480000	545.000000	0.000000	130.000000	67.000000	9.000000	34.000000
0.300000	15.250000	59.820000	529.000000	0.000000	130.000000	67.000000	10.000000	34.000000
0.310000	15.360000	60.190000	509.000000	0.000000	131.000000	67.000000	11.000000	37.000000
0.320000	15.480000	60.590000	492.000000	0.000000	133.000000	67.000000	12.000000	40.000000
0.330000	15.610000	61.000000	488.000000	0.000000	133.000000	67.000000	13.000000	41.000000
0.340000	15.750000	61.420000	485.000000	0.000000	135.000000	67.000000	14.000000	42.000000
0.350000	15.930000	61.860000	473.000000	0.000000	135.000000	67.000000	18.000000	44.000000
0.360000	16.170000	62.180000	468.000000	0.000000	137.000000	66.000000	24.000000	32.000000
0.370000	16.440000	62.470000	468.000000	0.000000	137.000000	66.000000	27.000000	29.000000
0.380000	16.620000	62.670000	467.000000	0.000000	137.000000	66.000000	18.000000	20.000000
0.390000	16.740000	62.760000	467.000000	0.000000	137.000000	65.000000	12.000000	9.000000
0.400000	16.840000	62.760000	465.000000	0.000000	137.000000	65.000000	10.000000	0.000000
0.410000	16.840000	62.760000	467.000000	0.000000	137.000000	65.000000	0.000000	0.000000
0.420000	16.890000	62.760000	467.000000	0.000000	135.000000	64.000000	5.000000	0.000000
0.430000	16.940000	62.670000	477.000000	0.000000	135.000000	64.000000	5.000000	-9.000000
0.440000	16.940000	62.530000	485.000000	0.000000	135.000000	64.000000	0.000000	-14.000000
0.450000	16.940000	62.340000	491.000000	0.000000	133.000000	63.000000	0.000000	-19.000000
0.460000	16.940000	62.110000	492.000000	0.000000	135.000000	64.000000	0.000000	-23.000000
0.470000	16.940000	61.850000	499.000000	0.000000	135.000000	64.000000	0.000000	-26.000000
0.480000	16.890000	61.590000	512.000000	0.000000	135.000000	64.000000	-5.000000	-26.000000
0.490000	16.820000	61.360000	522.000000	0.000000	133.000000	65.000000	-7.000000	-23.000000
0.500000	16.740000	61.110000	526.000000	0.000000	132.000000	64.000000	-8.000000	-25.000000
0.510000	16.660000	60.860000	530.000000	0.000000	132.000000	64.000000	-8.000000	-25.000000
0.520000	16.600000	60.610000	532.000000	0.000000	132.000000	64.000000	-6.000000	-25.000000
0.530000	16.550000	60.340000	535.000000	0.000000	130.000000	65.000000	-5.000000	-27.000000
0.540000	16.550000	60.070000	538.000000	0.000000	130.000000	65.000000	0.000000	-27.000000
0.550000	16.550000	59.850000	539.000000	0.000000	130.000000	65.000000	0.000000	-22.000000
0.560000	16.650000	59.650000	545.000000	0.000000	127.000000	64.000000	10.000000	-20.000000
0.570000	16.740000	59.430000	546.000000	0.000000	127.000000	64.000000	9.000000	-22.000000
0.580000	16.830000	59.300000	545.000000	0.000000	127.000000	64.000000	9.000000	-13.000000
0.590000	16.920000	59.220000	518.000000	0.000000	126.000000	66.000000	9.000000	-8.000000
0.600000	17.020000	59.150000	472.000000	0.000000	126.000000	66.000000	10.000000	-7.000000
0.610000	17.150000	59.150000	373.000000	0.000000	126.000000	66.000000	13.000000	0.000000
0.620000	17.310000	59.150000	119.000000	0.000000	126.000000	66.000000	16.000000	0.000000
0.630000	17.310000	59.150000	0.000000	1.000000	128.000000	66.000000	0.000000	0.000000
0.640000	17.710000	59.360000	0.000000	0.000000	128.000000	66.000000	40.000000	21.000000
0.650000	17.900000	59.510000	0.000000	0.000000	128.000000	66.000000	19.000000	15.000000
0.660000	18.080000	59.650000	0.000000	0.000000	128.000000	66.000000	18.000000	14.000000
0.670000	18.310000	59.830000	0.000000	0.000000	128.000000	66.000000	23.000000	18.000000
0.680000	18.550000	60.030000	0.000000	0.000000	128.000000	66.000000	24.000000	20.000000
0.690000	18.790000	60.200000	0.000000	0.000000	128.000000	66.000000	24.000000	17.000000
0.700000	19.040000	60.360000	0.000000	0.000000	126.000000	66.000000	25.000000	16.000000
0.710000	19.160000	60.500000	0.000000	0.000000	126.000000	66.000000	12.000000	14.000000
0.720000	19.160000	60.610000	0.000000	0.000000	126.000000	66.000000	0.000000	11.000000
0.730000	19.160000	60.710000	0.000000	0.000000	126.000000	66.000000	0.000000	10.000000
0.740000	19.160000	60.710000	141.000000	1.000000	128.000000	65.000000	0.000000	0.000000
0.750000	19.160000	60.710000	237.000000	0.000000	128.000000	65.000000	0.000000	0.000000
0.760000	19.050000	61.090000	312.000000	0.000000	130.000000	66.000000	-11.000000	38.000000
0.770000	18.990000	61.170000	393.000000	0.000000	132.000000	65.000000	-6.000000	8.000000
0.780000	18.930000	61.220000	468.000000	0.000000	132.000000	65.000000	-6.000000	5.000000
0.790000	18.880000	61.220000	485.000000	0.000000	132.000000	65.000000	-5.000000	0.000000
0.800000	18.780000	61.160000	496.000000	0.000000	132.000000	65.000000	-10.000000	-6.000000
0.810000	18.620000	61.060000	514.000000	0.000000	132.000000	65.000000	-16.000000	-10.000000
0.820000	18.410000	60.820000	512.000000	0.000000	133.000000	65.000000	-21.000000	-24.000000
0.830000	18.290000	60.490000	513.000000	0.000000	133.000000	65.000000	-12.000000	-33.000000
0.840000	18.200000	60.200000	519.000000	0.000000	133.000000	65.000000	-9.000000	-29.000000
0.850000	18.200000	59.900000	519.000000	0.000000	132.000000	65.000000	0.000000	-30.000000
0.860000	18.200000	59.580000	521.000000	0.000000	132.000000	65.000000	0.000000	-32.000000
0.870000	18.250000	59.350000	529.000000	0.000000	132.000000	65.000000	5.000000	-23.000000
0.880000	18.390000	59.180000	530.000000	0.000000	130.000000	66.000000	14.000000	-17.000000
0.890000	18.590000	59.080000	535.000000	0.000000	130.000000	66.000000	20.000000	-10.000000
0.900000	18.820000	59.080000	533.000000	0.000000	128.000000	66.000000	23.000000	0.000000
0.910000	19.060000	59.180000	537.000000	0.000000	128.000000	66.000000	24.000000	10.000000
0.920000	19.290000	59.360000	538.000000	0.000000	128.000000	66.000000	23.000000	18.000000
0.930000	19.470000	59.530000	544.000000	0.000000	128.000000	66.000000	18.000000	17.000000
0.940000	19.600000	59.780000	537.000000	0.000000	128.000000	66.000000	13.000000	25.000000
0.950000	19.680000	60.080000	556.000000	0.000000	128.000000	66.000000	8.000000	30.000000
0.960000	19.680000	60.360000	570.000000	0.000000	128.000000	66.000000	0.000000	28.000000
0.970000	19.680000	60.620000	594.000000	0.000000	130.000000	66.000000	0.000000	26.000000
0.980000	19.620000	60.850000	620.000000	0.000000	130.000000	66.000000	-6.000000	23.000000
0.990000	19.530000	61.000000	642.000000	0.000000	130.000000	66.000000	-9.000000	15.000000
1.000000	19.410000	61.100000	656.000000	0.000000	132.000000	65.000000	-12.000000	10.000000
1.010000	19.330000	61.100000	664.000000	0.000000	132.000000	65.000000	-8.000000	0.000000
1.020000	19.260000	61.100000	673.000000	0.000000	132.000000	65.000000	-7.000000	0.000000
1.030000	19.260000	61.100000	671.000000	0.000000	133.000000	65.000000	0.000000	0.000000
1.040000	19.260000	61.100000	659.000000	0.000000	133.000000	65.000000	0.000000	0.000000
1.050000	18.960000	61.050000	620.000000	0.000000	133.000000	65.000000	-30.000000	-5.000000
1.060000	18.960000	61.000000	533.000000	0.000000	133.000000	65.000000	0.000000	-5.000000
1.070000	18.870000	60.910000	334.000000	0.000000	133.000000	65.000000	-9.000000	-9.000000
1.080000	18.870000	60.910000	0.000000	1.000000	133.000000	65.000000	0.000000	0.000000
1.090000	18.860000	60.660000	0.000000	0.000000	133.000000	65.000000	-1.000000	-25.000000
1.100000	18.960000	60.600000	0.000000	0.000000	133.000000	65.000000	10.000000	-6.000000
1.110000	19.100000	60.600000	0.000000	0.000000	132.000000	64.000000	14.000000	0.000000
1.120000	19.320000	60.600000	0.000000	0.000000	132.000000	64.000000	22.000000	0.000000
1.130000	19.720000	60.690000	0.000000	0.000000	132.000000	64.000000	40.000000	9.000000
1.140000	20.240000	60.820000	0.000000	0.000000	132.000000	64.000000	52.000000	13.000000
1.150000	20.840000	61.000000	0.000000	0.000000	132.000000	64.000000	60.000000	18.000000
1.160000	21.420000	61.170000	0.000000	0.000000	130.000000	63.000000	58.000000	17.000000
1.170000	21.870000	61.330000	0.000000	0.000000	130.000000	63.000000	45.000000	16.000000
1.180000	22.230000	61.480000	0.000000	0.000000	130.000000	63.000000	36.000000	15.000000
1.190000	22.230000	61.480000	148.000000	1.000000	130.000000	63.000000	0.000000	0.000000
1.200000	22.700000	61.560000	254.000000	0.000000	130.000000	63.000000	47.000000	8.000000
1.210000	22.370000	61.640000	362.000000	0.000000	132.000000	64.000000	-33.000000	8.000000
1.220000	22.320000	61.640000	493.000000	0.000000	133.000000	63.000000	-5.000000	0.000000
1.230000	22.250000	61.690000	532.000000	0.000000	133.000000	63.000000	-7.000000	5.000000
1.240000	22.170000	61.690000	543.000000	0.000000	133.000000	63.000000	-8.000000	0.000000
1.250000	22.010000	61.640000	556.000000	0.000000	133.000000	63.000000	-16.000000	-5.000000
1.260000	21.810000	61.560000	565.000000	0.000000	133.000000	63.000000	-20.000000	-8.000000
1.270000	21.590000	61.450000	560.000000	0.000000	133.000000	63.000000	-22.000000	-11.000000
1.280000	21.470000	61.280000	561.000000	0.000000	133.000000	63.000000	-12.000000	-17.000000
1.290000	21.320000	61.060000	567.000000	0.000000	133.000000	63.000000	-15.000000	-22.000000
1.300000	21.180000	60.810000	567.000000	0.000000	133.000000	63.000000	-14.000000	-25.000000
1.310000	21.110000	60.560000	567.000000	0.000000	133.000000	63.000000	-7.000000	-25.000000
1.320000	21.110000	60.310000	567.000000	0.000000	133.000000	63.000000	0.000000	-25.000000
1.330000	21.110000	60.090000	567.000000	0.000000	133.000000	63.000000	0.000000	-22.000000
1.340000	21.230000	59.900000	577.000000	0.000000	133.000000	63.000000	12.000000	-19.000000
1.350000	21.410000	59.720000	591.000000	0.000000	132.000000	64.000000	18.000000	-18.000000
1.360000	21.630000	59.610000	594.000000	0.000000	132.000000	64.000000	22.000000	-11.000000
1.370000	21.870000	59.560000	603.000000	0.000000	132.000000	64.000000	24.000000	-5.000000
1.380000	22.100000	59.560000	611.000000	0.000000	132.000000	64.000000	23.000000	0.000000
1.390000	22.340000	59.640000	614.000000	0.000000	130.000000	65.000000	24.000000	8.000000
1.400000	22.530000	59.800000	620.000000	0.000000	130.000000	65.000000	19.000000	16.000000
1.410000	22.750000	60.010000	616.000000	0.000000	130.000000	65.000000	22.000000	21.000000
1.420000	22.960000	60.270000	616.000000	0.000000	130.000000	65.000000	21.000000	26.000000
1.430000	23.100000	60.580000	616.000000	0.000000	130.000000	65.000000	14.000000	31.000000
1.440000	23.200000	60.930000	611.000000	0.000000	132.000000	64.000000	10.000000	35.000000
1.450000	23.330000	61.230000	606.000000	0.000000	132.000000	64.000000	13.000000	30.000000
1.460000	23.330000	61.510000	605.000000	0.000000	133.000000	65.000000	0.000000	28.000000
1.470000	23.330000	61.740000	603.000000	0.000000	133.000000	65.000000	0.000000	23.000000
1.480000	23.390000	61.820000	605.000000	0.000000	135.000000	64.000000	6.000000	8.000000
1.490000	23.390000	61.820000	605.000000	0.000000	135.000000	64.000000	0.000000	0.000000
1.500000	23.390000	61.820000	597.000000	0.000000	135.000000	64.000000	0.000000	0.000000
1.510000	23.390000	61.820000	600.000000	0.000000	137.000000	63.000000	0.000000	0.000000
1.520000	23.390000	61.740000	609.000000	0.000000	137.000000	63.000000	0.000000	-8.000000
1.530000	23.290000	61.550000	616.000000	0.000000	137.000000	63.000000	-10.000000	-19.000000
1.540000	23.290000	61.280000	610.000000	0.000000	137.000000	63.000000	0.000000	-27.000000
1.550000	23.210000	60.980000	622.000000	0.000000	137.000000	63.000000	-8.000000	-30.000000
1.560000	23.160000	60.680000	634.000000	0.000000	137.000000	63.000000	-5.000000	-30.000000
1.570000	23.160000	60.390000	645.000000	0.000000	137.000000	63.000000	0.000000	-29.000000
1.580000	23.100000	60.120000	637.000000	0.000000	135.000000	64.000000	-6.000000	-27.000000
1.590000	23.100000	59.930000	647.000000	0.000000	135.000000	64.000000	0.000000	-19.000000
1.600000	23.100000	59.790000	613.000000	0.000000	135.000000	64.000000	0.000000	-14.000000
1.610000	23.100000	59.790000	469.000000	0.000000	135.000000	64.000000	0.000000	0.000000
1.620000	23.170000	59.790000	156.000000	0.000000	132.000000	64.000000	7.000000	0.000000
1.630000	23.170000	59.790000	0.000000	1.000000	132.000000	64.000000	0.000000	0.000000
1.640000	23.350000	60.040000	0.000000	0.000000	133.000000	65.000000	18.000000	25.000000
1.650000	23.430000	60.330000	0.000000	0.000000	133.000000	65.000000	8.000000	29.000000
1.660000	23.560000	60.650000	0.000000	0.000000	133.000000	65.000000	13.000000	32.000000
1.670000	23.790000	61.070000	0.000000	0.000000	133.000000	65.000000	23.000000	42.000000
1.680000	24.050000	61.500000	0.000000	0.000000	135.000000	65.000000	26.000000	43.000000
1.690000	24.210000	61.940000	0.000000	0.000000	137.000000	65.000000	16.000000	44.000000
1.700000	24.310000	62.210000	0.000000	0.000000	137.000000	65.000000	10.000000	27.000000
1.710000	24.310000	62.210000	253.000000	1.000000	137.000000	65.000000	0.000000	0.000000
1.720000	24.060000	62.210000	305.000000	0.000000	138.000000	64.000000	-25.000000	0.000000
1.730000	23.870000	62.280000	358.000000	0.000000	138.000000	64.000000	-19.000000	7.000000
1.740000	23.790000	62.330000	391.000000	0.000000	138.000000	64.000000	-8.000000	5.000000
1.750000	23.720000	62.330000	384.000000	0.000000	140.000000	63.000000	-7.000000	0.000000
1.760000	23.720000	62.240000	345.000000	0.000000	140.000000	63.000000	0.000000	-9.000000
1.770000	23.720000	62.090000	184.000000	0.000000	140.000000	63.000000	0.000000	-15.000000
1.780000	23.720000	62.090000	0.000000	1.000000	140.000000	63.000000	0.000000	0.000000
1.790000	23.950000	61.660000	0.000000	0.000000	138.000000	63.000000	23.000000	-43.000000
1.800000	24.170000	61.530000	0.000000	0.000000	138.000000	63.000000	22.000000	-13.000000
1.810000	24.410000	61.470000	0.000000	0.000000	140.000000	63.000000	24.000000	-6.000000
1.820000	24.660000	61.470000	0.000000	0.000000	140.000000	63.000000	25.000000	0.000000
1.830000	24.920000	61.470000	0.000000	0.000000	138.000000	64.000000	26.000000	0.000000
1.840000	25.080000	61.470000	0.000000	0.000000	140.000000	65.000000	16.000000	0.000000
1.850000	25.080000	61.470000	173.000000	1.000000	140.000000	65.000000	0.000000	0.000000
1.860000	25.080000	61.470000	247.000000	0.000000	140.000000	65.000000	0.000000	0.000000
1.870000	25.080000	61.470000	333.000000	0.000000	140.000000	65.000000	0.000000	0.000000
1.880000	25.080000	61.470000	402.000000	0.000000	140.000000	65.000000	0.000000	0.000000
1.890000	25.080000	61.470000	418.000000	0.000000	140.000000	65.000000	0.000000	0.000000
1.900000	24.740000	61.500000	435.000000	0.000000	140.000000	65.000000	-34.000000	3.000000
1.910000	24.500000	61.260000	469.000000	0.000000	140.000000	65.000000	-24.000000	-24.000000
1.920000	24.310000	60.910000	491.000000	0.000000	140.000000	65.000000	-19.000000	-35.000000
1.930000	24.220000	60.570000	521.000000	0.000000	140.000000	65.000000	-9.000000	-34.000000
1.940000	24.220000	60.210000	565.000000	0.000000	140.000000	65.000000	0.000000	-36.000000
1.950000	24.370000	59.840000	592.000000	0.000000	140.000000	65.000000	15.000000	-37.000000
1.960000	24.580000	59.620000	611.000000	0.000000	137.000000	65.000000	21.000000	-22.000000
1.970000	24.860000	59.490000	639.000000	0.000000	137.000000	65.000000	28.000000	-13.000000
1.980000	25.160000	59.440000	649.000000	0.000000	137.000000	65.000000	30.000000	-5.000000
1.990000	25.440000	59.540000	664.000000	0.000000	138.000000	65.000000	28.000000	10.000000
2.000000	25.640000	59.730000	663.000000	0.000000	138.000000	65.000000	20.000000	19.000000
2.010000	25.800000	60.000000	690.000000	0.000000	138.000000	65.000000	16.000000	27.000000
2.020000	25.920000	60.250000	716.000000	0.000000	140.000000	66.000000	12.000000	25.000000
2.030000	25.920000	60.490000	731.000000	0.000000	140.000000	66.000000	0.000000	24.000000
2.040000	25.860000	60.790000	751.000000	0.000000	140.000000	66.000000	-6.000000	30.000000
2.050000	25.700000	61.110000	774.000000	0.000000	140.000000	66.000000	-16.000000	32.000000
2.060000	25.540000	61.200000	768.000000	0.000000	140.000000	66.000000	-16.000000	9.000000
2.070000	25.400000	61.250000	730.000000	0.000000	140.000000	66.000000	-14.000000	5.000000
2.080000	25.130000	61.250000	661.000000	0.000000	142.000000	65.000000	-27.000000	0.000000
2.090000	24.790000	61.090000	447.000000	0.000000	142.000000	65.000000	-34.000000	-16.000000
2.100000	24.710000	60.960000	55.000000	0.000000	142.000000	65.000000	-8.000000	-13.000000
2.110000	24.710000	60.960000	0.000000	1.000000	142.000000	65.000000	0.000000	0.000000
2.120000	24.630000	60.600000	0.000000	0.000000	140.000000	65.000000	-8.000000	-36.000000
2.130000	24.630000	60.410000	0.000000	0.000000	140.000000	65.000000	0.000000	-19.000000
2.140000	24.710000	60.240000	0.000000	0.000000	140.000000	65.000000	8.000000	-17.000000
2.150000	24.930000	59.970000	0.000000	0.000000	138.000000	65.000000	22.000000	-27.000000
2.160000	25.180000	59.810000	0.000000	0.000000	138.000000	65.000000	25.000000	-16.000000
2.170000	25.540000	59.720000	0.000000	0.000000	137.000000	66.000000	36.000000	-9.000000
2.180000	25.960000	59.550000	0.000000	0.000000	139.000000	67.000000	42.000000	-17.000000
2.190000	26.390000	59.390000	0.000000	0.000000	139.000000	68.000000	43.000000	-16.000000
2.200000	26.790000	59.240000	0.000000	0.000000	139.000000	68.000000	40.000000	-15.000000
2.210000	27.120000	59.120000	0.000000	0.000000	137.000000	69.000000	33.000000	-12.000000
2.220000	27.410000	59.000000	0.000000	0.000000	133.000000	69.000000	29.000000	-12.000000
