t	x	y	pressure	penup	azimuth	inclination	v_x	v_y
0.000000	90.170000	29.270000	228.000000	1.000000	155.000000	50.000000	0.000000	0.000000
0.010000	90.480000	29.500000	388.000000	0.000000	156.000000	50.000000	31.000000	23.000000
0.020000	90.480000	29.610000	497.000000	0.000000	156.000000	50.000000	0.000000	11.000000
0.030000	90.480000	29.610000	537.000000	0.000000	157.000000	49.000000	0.000000	0.000000
0.040000	90.480000	29.610000	592.000000	0.000000	157.000000	49.000000	0.000000	0.000000
0.050000	90.480000	29.230000	613.000000	0.000000	158.000000	48.000000	0.000000	-38.000000
0.060000	90.400000	28.770000	636.000000	0.000000	158.000000	48.000000	-8.000000	-46.000000
0.070000	90.250000	28.190000	664.000000	0.000000	158.000000	48.000000	-15.000000	-58.000000
0.080000	90.030000	27.360000	664.000000	0.000000	158.000000	48.000000	-22.000000	-83.000000
0.090000	89.780000	26.690000	673.000000	0.000000	158.000000	48.000000	-25.000000	-67.000000
0.100000	89.510000	26.140000	678.000000	0.000000	157.000000	49.000000	-27.000000	-55.000000
0.110000	89.280000	25.770000	678.000000	0.000000	155.000000	49.000000	-23.000000	-37.000000
0.120000	89.200000	25.580000	679.000000	0.000000	154.000000	50.000000	-8.000000	-19.000000
0.130000	89.200000	25.500000	675.000000	0.000000	152.000000	51.000000	0.000000	-8.000000
0.140000	89.200000	25.570000	652.000000	0.000000	152.000000	51.000000	0.000000	7.000000
0.150000	89.430000	26.010000	636.000000	0.000000	151.000000	51.000000	23.000000	44.000000
0.160000	89.770000	26.710000	636.000000	0.000000	151.000000	51.000000	34.000000	70.000000
0.170000	90.050000	27.450000	641.000000	0.000000	151.000000	51.000000	28.000000	74.000000
0.180000	90.260000	28.180000	637.000000	0.000000	152.000000	51.000000	21.000000	73.000000
0.190000	90.430000	28.900000	640.000000	0.000000	154.000000	50.000000	17.000000	72.000000
0.200000	90.600000	29.340000	643.000000	0.000000	155.000000	49.000000	17.000000	44.000000
0.210000	90.810000	29.610000	637.000000	0.000000	156.000000	50.000000	21.000000	27.000000
0.220000	91.050000	29.760000	636.000000	0.000000	157.000000	49.000000	24.000000	15.000000
0.230000	91.300000	29.760000	647.000000	0.000000	158.000000	48.000000	25.000000	0.000000
0.240000	91.500000	29.610000	647.000000	0.000000	158.000000	47.000000	20.000000	-15.000000
0.250000	91.670000	29.370000	641.000000	0.000000	159.000000	46.000000	17.000000	-24.000000
0.260000	91.670000	29.040000	641.000000	0.000000	160.000000	46.000000	0.000000	-33.000000
0.270000	91.670000	28.720000	639.000000	0.000000	161.000000	45.000000	0.000000	-32.000000
0.280000	91.560000	28.410000	642.000000	0.000000	161.000000	45.000000	-11.000000	-31.000000
0.290000	91.300000	28.070000	642.000000	0.000000	161.000000	45.000000	-26.000000	-34.000000
0.300000	90.950000	27.820000	645.000000	0.000000	161.000000	45.000000	-35.000000	-25.000000
0.310000	90.540000	27.620000	636.000000	0.000000	161.000000	45.000000	-41.000000	-20.000000
0.320000	90.220000	27.400000	658.000000	0.000000	160.000000	46.000000	-32.000000	-22.000000
0.330000	89.950000	27.330000	670.000000	0.000000	160.000000	47.000000	-27.000000	-7.000000
0.340000	89.880000	27.330000	673.000000	0.000000	159.000000	48.000000	-7.000000	0.000000
0.350000	89.880000	27.330000	671.000000	0.000000	158.000000	49.000000	0.000000	0.000000
0.360000	89.960000	27.240000	662.000000	0.000000	157.000000	49.000000	8.000000	-9.000000
0.370000	90.010000	27.120000	693.000000	0.000000	156.000000	50.000000	5.000000	-12.000000
0.380000	90.200000	26.920000	725.000000	0.000000	156.000000	50.000000	19.000000	-20.000000
0.390000	90.480000	26.750000	761.000000	0.000000	155.000000	49.000000	28.000000	-17.000000
0.400000	90.780000	26.610000	779.000000	0.000000	155.000000	49.000000	30.000000	-14.000000
0.410000	91.070000	26.460000	787.000000	0.000000	155.000000	49.000000	29.000000	-15.000000
0.420000	91.230000	26.310000	791.000000	0.000000	154.000000	50.000000	16.000000	-15.000000
0.430000	91.310000	26.220000	794.000000	0.000000	154.000000	50.000000	8.000000	-9.000000
0.440000	91.380000	26.220000	794.000000	0.000000	154.000000	50.000000	7.000000	0.000000
0.450000	91.380000	26.220000	784.000000	0.000000	153.000000	51.000000	0.000000	0.000000
0.460000	91.380000	26.220000	724.000000	0.000000	155.000000	51.000000	0.000000	0.000000
0.470000	91.380000	26.220000	490.000000	0.000000	155.000000	51.000000	0.000000	0.000000
0.480000	91.380000	26.220000	0.000000	1.000000	156.000000	51.000000	0.000000	0.000000
0.490000	91.460000	26.310000	0.000000	0.000000	157.000000	52.000000	8.000000	9.000000
0.500000	91.530000	26.470000	0.000000	0.000000	158.000000	52.000000	7.000000	16.000000
0.510000	91.580000	26.630000	0.000000	0.000000	160.000000	52.000000	5.000000	16.000000
0.520000	91.810000	26.780000	0.000000	0.000000	161.000000	52.000000	23.000000	15.000000
0.530000	92.170000	26.950000	0.000000	0.000000	161.000000	52.000000	36.000000	17.000000
0.540000	92.440000	27.090000	0.000000	0.000000	162.000000	53.000000	27.000000	14.000000
0.550000	92.680000	27.140000	0.000000	0.000000	162.000000	53.000000	24.000000	5.000000
0.560000	92.890000	27.140000	0.000000	0.000000	162.000000	53.000000	21.000000	0.000000
0.570000	92.890000	27.140000	44.000000	1.000000	161.000000	52.000000	0.000000	0.000000
0.580000	92.890000	27.140000	237.000000	0.000000	162.000000	52.000000	0.000000	0.000000
0.590000	92.890000	27.140000	343.000000	0.000000	163.000000	52.000000	0.000000	0.000000
0.600000	92.890000	27.140000	417.000000	0.000000	163.000000	52.000000	0.000000	0.000000
0.610000	92.890000	27.140000	507.000000	0.000000	163.000000	52.000000	0.000000	0.000000
0.620000	92.860000	27.410000	570.000000	0.000000	165.000000	51.000000	-3.000000	27.000000
0.630000	92.790000	27.410000	591.000000	0.000000	165.000000	51.000000	-7.000000	0.000000
0.640000	92.600000	27.410000	608.000000	0.000000	165.000000	51.000000	-19.000000	0.000000
0.650000	92.320000	27.410000	628.000000	0.000000	166.000000	51.000000	-28.000000	0.000000
0.660000	92.140000	27.410000	646.000000	0.000000	166.000000	51.000000	-18.000000	0.000000
0.670000	91.870000	27.230000	650.000000	0.000000	166.000000	51.000000	-27.000000	-18.000000
0.680000	91.530000	26.940000	646.000000	0.000000	165.000000	51.000000	-34.000000	-29.000000
0.690000	91.470000	26.670000	650.000000	0.000000	165.000000	51.000000	-6.000000	-27.000000
0.700000	91.470000	26.450000	655.000000	0.000000	163.000000	52.000000	0.000000	-22.000000
0.710000	91.530000	26.230000	658.000000	0.000000	162.000000	52.000000	6.000000	-22.000000
0.720000	91.700000	26.110000	664.000000	0.000000	160.000000	51.000000	17.000000	-12.000000
0.730000	92.070000	26.050000	671.000000	0.000000	160.000000	52.000000	37.000000	-6.000000
0.740000	92.430000	26.120000	671.000000	0.000000	160.000000	52.000000	36.000000	7.000000
0.750000	92.780000	26.310000	646.000000	0.000000	160.000000	52.000000	35.000000	19.000000
0.760000	93.080000	26.590000	614.000000	0.000000	160.000000	52.000000	30.000000	28.000000
0.770000	93.170000	26.790000	569.000000	0.000000	161.000000	52.000000	9.000000	20.000000
0.780000	93.100000	26.990000	544.000000	0.000000	161.000000	52.000000	-7.000000	20.000000
0.790000	93.100000	26.990000	428.000000	0.000000	162.000000	53.000000	0.000000	0.000000
0.800000	92.880000	27.300000	312.000000	0.000000	162.000000	53.000000	-22.000000	31.000000
0.810000	92.750000	27.300000	32.000000	0.000000	164.000000	53.000000	-13.000000	0.000000
0.820000	92.750000	27.300000	0.000000	1.000000	164.000000	52.000000	0.000000	0.000000
0.830000	92.750000	27.110000	0.000000	0.000000	164.000000	52.000000	0.000000	-19.000000
0.840000	92.850000	27.060000	0.000000	0.000000	164.000000	52.000000	10.000000	-5.000000
0.850000	93.160000	27.060000	0.000000	0.000000	164.000000	52.000000	31.000000	0.000000
0.860000	93.580000	27.170000	0.000000	0.000000	164.000000	52.000000	42.000000	11.000000
0.870000	94.050000	27.170000	0.000000	0.000000	165.000000	51.000000	47.000000	0.000000
0.880000	94.400000	27.170000	0.000000	0.000000	165.000000	51.000000	35.000000	0.000000
0.890000	94.660000	27.170000	0.000000	0.000000	164.000000	51.000000	26.000000	0.000000
0.900000	94.660000	27.170000	195.000000	1.000000	164.000000	51.000000	0.000000	0.000000
0.910000	94.660000	27.170000	341.000000	0.000000	164.000000	51.000000	0.000000	0.000000
0.920000	94.660000	27.170000	410.000000	0.000000	164.000000	51.000000	0.000000	0.000000
0.930000	94.690000	27.460000	445.000000	0.000000	164.000000	51.000000	3.000000	29.000000
0.940000	94.690000	27.510000	488.000000	0.000000	164.000000	51.000000	0.000000	5.000000
0.950000	94.690000	27.510000	520.000000	0.000000	164.000000	51.000000	0.000000	0.000000
0.960000	94.540000	27.430000	550.000000	0.000000	164.000000	51.000000	-15.000000	-8.000000
0.970000	94.270000	27.320000	606.000000	0.000000	165.000000	51.000000	-27.000000	-11.000000
0.980000	93.880000	27.210000	640.000000	0.000000	165.000000	51.000000	-39.000000	-11.000000
0.990000	93.540000	26.870000	659.000000	0.000000	165.000000	51.000000	-34.000000	-34.000000
1.000000	93.240000	26.640000	671.000000	0.000000	165.000000	51.000000	-30.000000	-23.000000
1.010000	93.110000	26.490000	663.000000	0.000000	164.000000	52.000000	-13.000000	-15.000000
1.020000	93.110000	26.330000	676.000000	0.000000	164.000000	52.000000	0.000000	-16.000000
1.030000	93.220000	26.170000	681.000000	0.000000	164.000000	52.000000	11.000000	-16.000000
1.040000	93.540000	26.090000	684.000000	0.000000	164.000000	53.000000	32.000000	-8.000000
1.050000	93.880000	26.090000	684.000000	0.000000	162.000000	53.000000	34.000000	0.000000
1.060000	94.220000	26.090000	655.000000	0.000000	162.000000	53.000000	34.000000	0.000000
1.070000	94.530000	26.200000	561.000000	0.000000	162.000000	53.000000	31.000000	11.000000
1.080000	94.860000	26.340000	275.000000	0.000000	162.000000	53.000000	33.000000	14.000000
1.090000	94.860000	26.340000	0.000000	1.000000	162.000000	53.000000	0.000000	0.000000
1.100000	95.220000	26.690000	0.000000	0.000000	162.000000	53.000000	36.000000	35.000000
1.110000	95.300000	26.910000	0.000000	0.000000	162.000000	53.000000	8.000000	22.000000
1.120000	95.400000	27.170000	0.000000	0.000000	162.000000	53.000000	10.000000	26.000000
1.130000	95.540000	27.360000	0.000000	0.000000	162.000000	53.000000	14.000000	19.000000
1.140000	95.640000	27.500000	0.000000	0.000000	162.000000	53.000000	10.000000	14.000000
1.150000	95.640000	27.500000	0.000000	0.000000	162.000000	53.000000	0.000000	0.000000
1.160000	95.640000	27.500000	180.000000	1.000000	162.000000	52.000000	0.000000	0.000000
1.170000	95.640000	27.500000	376.000000	0.000000	162.000000	52.000000	0.000000	0.000000
1.180000	95.640000	27.500000	492.000000	0.000000	162.000000	52.000000	0.000000	0.000000
1.190000	95.640000	27.500000	540.000000	0.000000	162.000000	52.000000	0.000000	0.000000
1.200000	95.640000	27.500000	564.000000	0.000000	162.000000	51.000000	0.000000	0.000000
1.210000	95.640000	27.500000	595.000000	0.000000	162.000000	51.000000	0.000000	0.000000
1.220000	95.520000	27.150000	645.000000	0.000000	162.000000	51.000000	-12.000000	-35.000000
1.230000	95.470000	26.820000	650.000000	0.000000	162.000000	51.000000	-5.000000	-33.000000
1.240000	95.370000	26.590000	653.000000	0.000000	163.000000	52.000000	-10.000000	-23.000000
1.250000	95.300000	26.430000	653.000000	0.000000	163.000000	52.000000	-7.000000	-16.000000
1.260000	95.300000	26.280000	603.000000	0.000000	163.000000	52.000000	0.000000	-15.000000
1.270000	95.300000	26.180000	485.000000	0.000000	163.000000	52.000000	0.000000	-10.000000
1.280000	95.300000	26.180000	185.000000	0.000000	162.000000	53.000000	0.000000	0.000000
1.290000	95.300000	26.180000	0.000000	1.000000	162.000000	53.000000	0.000000	0.000000
1.300000	95.460000	26.430000	0.000000	0.000000	162.000000	53.000000	16.000000	25.000000
1.310000	95.460000	26.690000	0.000000	0.000000	162.000000	53.000000	0.000000	26.000000
1.320000	95.460000	27.010000	0.000000	0.000000	162.000000	53.000000	0.000000	32.000000
1.330000	95.530000	27.280000	0.000000	0.000000	162.000000	53.000000	7.000000	27.000000
1.340000	95.580000	27.490000	0.000000	0.000000	162.000000	53.000000	5.000000	21.000000
1.350000	95.580000	27.570000	0.000000	0.000000	162.000000	53.000000	0.000000	8.000000
1.360000	95.580000	27.570000	250.000000	1.000000	161.000000	52.000000	0.000000	0.000000
1.370000	95.580000	27.930000	414.000000	0.000000	161.000000	52.000000	0.000000	36.000000
1.380000	95.580000	28.130000	496.000000	0.000000	162.000000	52.000000	0.000000	20.000000
1.390000	95.710000	28.300000	522.000000	0.000000	160.000000	51.000000	13.000000	17.000000
1.400000	95.860000	28.450000	515.000000	0.000000	160.000000	51.000000	15.000000	15.000000
1.410000	96.040000	28.580000	510.000000	0.000000	162.000000	52.000000	18.000000	13.000000
1.420000	96.280000	28.700000	425.000000	0.000000	162.000000	52.000000	24.000000	12.000000
1.430000	96.400000	28.770000	182.000000	0.000000	162.000000	51.000000	12.000000	7.000000
1.440000	96.400000	28.770000	0.000000	1.000000	162.000000	51.000000	0.000000	0.000000
1.450000	96.450000	28.770000	0.000000	0.000000	162.000000	51.000000	5.000000	0.000000
1.460000	96.450000	28.710000	0.000000	0.000000	162.000000	51.000000	0.000000	-6.000000
1.470000	96.450000	28.710000	0.000000	0.000000	162.000000	51.000000	0.000000	0.000000
1.480000	96.630000	28.630000	0.000000	0.000000	162.000000	51.000000	18.000000	-8.000000
1.490000	96.900000	28.570000	0.000000	0.000000	160.000000	51.000000	27.000000	-6.000000
1.500000	97.240000	28.480000	0.000000	0.000000	160.000000	51.000000	34.000000	-9.000000
1.510000	97.530000	28.360000	0.000000	0.000000	160.000000	51.000000	29.000000	-12.000000
1.520000	97.700000	28.170000	0.000000	0.000000	159.000000	51.000000	17.000000	-19.000000
1.530000	97.780000	27.930000	0.000000	0.000000	159.000000	51.000000	8.000000	-24.000000
1.540000	97.780000	27.930000	158.000000	1.000000	160.000000	52.000000	0.000000	0.000000
1.550000	97.780000	27.520000	257.000000	0.000000	160.000000	52.000000	0.000000	-41.000000
1.560000	97.680000	27.520000	374.000000	0.000000	160.000000	52.000000	-10.000000	0.000000
1.570000	97.680000	27.460000	452.000000	0.000000	161.000000	52.000000	0.000000	-6.000000
1.580000	97.590000	27.460000	492.000000	0.000000	161.000000	52.000000	-9.000000	0.000000
1.590000	97.590000	27.460000	538.000000	0.000000	162.000000	52.000000	0.000000	0.000000
1.600000	97.390000	27.460000	567.000000	0.000000	163.000000	52.000000	-20.000000	0.000000
1.610000	97.160000	27.460000	592.000000	0.000000	163.000000	52.000000	-23.000000	0.000000
1.620000	96.870000	27.460000	605.000000	0.000000	164.000000	52.000000	-29.000000	0.000000
1.630000	96.520000	27.340000	633.000000	0.000000	164.000000	52.000000	-35.000000	-12.000000
1.640000	96.120000	27.200000	647.000000	0.000000	164.000000	52.000000	-40.000000	-14.000000
1.650000	95.900000	26.990000	640.000000	0.000000	164.000000	52.000000	-22.000000	-21.000000
1.660000	95.820000	26.780000	641.000000	0.000000	164.000000	52.000000	-8.000000	-21.000000
1.670000	95.820000	26.600000	646.000000	0.000000	164.000000	53.000000	0.000000	-18.000000
1.680000	96.000000	26.420000	650.000000	0.000000	162.000000	53.000000	18.000000	-18.000000
1.690000	96.310000	26.330000	655.000000	0.000000	162.000000	53.000000	31.000000	-9.000000
1.700000	96.710000	26.330000	658.000000	0.000000	162.000000	53.000000	40.000000	0.000000
1.710000	97.120000	26.430000	641.000000	0.000000	162.000000	53.000000	41.000000	10.000000
1.720000	97.400000	26.580000	617.000000	0.000000	162.000000	53.000000	28.000000	15.000000
1.730000	97.580000	26.760000	595.000000	0.000000	162.000000	53.000000	18.000000	18.000000
1.740000	97.580000	27.020000	560.000000	0.000000	162.000000	53.000000	0.000000	26.000000
1.750000	97.470000	27.260000	495.000000	0.000000	162.000000	53.000000	-11.000000	24.000000
1.760000	97.310000	27.490000	315.000000	0.000000	162.000000	53.000000	-16.000000	23.000000
1.770000	97.140000	27.690000	10.000000	1.000000	162.000000	53.000000	0.000000	0.000000
1.780000	97.140000	27.690000	0.000000	0.000000	162.000000	53.000000	0.000000	0.000000
1.790000	96.680000	27.670000	0.000000	0.000000	162.000000	53.000000	-46.000000	-2.000000
1.800000	96.680000	27.480000	0.000000	0.000000	162.000000	53.000000	0.000000	-19.000000
1.810000	96.680000	27.480000	0.000000	0.000000	163.000000	52.000000	0.000000	0.000000
1.820000	96.950000	27.480000	0.000000	0.000000	163.000000	52.000000	27.000000	0.000000
1.830000	97.360000	27.430000	0.000000	0.000000	164.000000	52.000000	41.000000	-5.000000
1.840000	98.070000	27.370000	0.000000	0.000000	164.000000	52.000000	71.000000	-6.000000
1.850000	98.810000	27.280000	0.000000	0.000000	164.000000	52.000000	74.000000	-9.000000
1.860000	99.360000	27.180000	0.000000	0.000000	166.000000	52.000000	55.000000	-10.000000
1.870000	99.760000	26.980000	0.000000	0.000000	167.000000	51.000000	40.000000	-20.000000
1.880000	99.760000	26.980000	257.000000	1.000000	167.000000	51.000000	0.000000	0.000000
1.890000	99.920000	26.640000	361.000000	0.000000	167.000000	52.000000	16.000000	-34.000000
1.900000	99.700000	26.590000	510.000000	0.000000	168.000000	52.000000	-22.000000	-5.000000
1.910000	99.550000	26.590000	584.000000	0.000000	168.000000	52.000000	-15.000000	0.000000
1.920000	99.360000	26.590000	588.000000	0.000000	168.000000	52.000000	-19.000000	0.000000
1.930000	98.880000	26.540000	602.000000	0.000000	168.000000	53.000000	-48.000000	-5.000000
1.940000	98.220000	26.440000	605.000000	0.000000	168.000000	53.000000	-66.000000	-10.000000
1.950000	97.390000	26.330000	609.000000	0.000000	168.000000	53.000000	-83.000000	-11.000000
1.960000	96.140000	26.190000	616.000000	0.000000	168.000000	53.000000	-125.000000	-14.000000
1.970000	94.600000	26.040000	614.000000	0.000000	166.000000	53.000000	-154.000000	-15.000000
1.980000	92.730000	25.910000	613.000000	0.000000	166.000000	53.000000	-187.000000	-13.000000
1.990000	90.880000	25.850000	600.000000	0.000000	166.000000	53.000000	-185.000000	-6.000000
2.000000	89.340000	26.000000	602.000000	0.000000	165.000000	53.000000	-154.000000	15.000000
2.010000	87.990000	26.300000	608.000000	0.000000	164.000000	53.000000	-135.000000	30.000000
2.020000	87.450000	26.570000	617.000000	0.000000	164.000000	53.000000	-54.000000	27.000000
2.030000	87.370000	26.860000	616.000000	0.000000	162.000000	53.000000	-8.000000	29.000000
2.040000	87.600000	27.150000	617.000000	0.000000	163.000000	52.000000	23.000000	29.000000
2.050000	88.640000	27.590000	613.000000	0.000000	163.000000	52.000000	104.000000	44.000000
2.060000	90.220000	28.140000	627.000000	0.000000	162.000000	51.000000	158.000000	55.000000
2.070000	92.170000	28.530000	641.000000	0.000000	164.000000	50.000000	195.000000	39.000000
2.080000	94.350000	28.590000	645.000000	0.000000	165.000000	49.000000	218.000000	6.000000
2.090000	95.990000	28.440000	647.000000	0.000000	165.000000	49.000000	164.000000	-15.000000
2.100000	97.270000	28.080000	636.000000	0.000000	166.000000	48.000000	128.000000	-36.000000
2.110000	97.750000	27.700000	641.000000	0.000000	167.000000	48.000000	48.000000	-38.000000
2.120000	97.700000	27.290000	650.000000	0.000000	167.000000	49.000000	-5.000000	-41.000000
2.130000	97.290000	26.900000	653.000000	0.000000	168.000000	49.000000	-41.000000	-39.000000
2.140000	96.270000	26.520000	650.000000	0.000000	168.000000	50.000000	-102.000000	-38.000000
2.150000	94.750000	26.190000	652.000000	0.000000	168.000000	50.000000	-152.000000	-33.000000
2.160000	92.900000	25.830000	650.000000	0.000000	167.000000	51.000000	-185.000000	-36.000000
2.170000	91.350000	25.430000	653.000000	0.000000	167.000000	52.000000	-155.000000	-40.000000
2.180000	89.840000	24.990000	661.000000	0.000000	166.000000	52.000000	-151.000000	-44.000000
2.190000	89.020000	24.590000	671.000000	0.000000	164.000000	52.000000	-82.000000	-40.000000
2.200000	88.640000	24.310000	673.000000	0.000000	164.000000	52.000000	-38.000000	-28.000000
2.210000	88.640000	24.080000	693.000000	0.000000	163.000000	52.000000	0.000000	-23.000000
