t	x	y	pressure	penup	azimuth	inclination	v_x	v_y
0.000000	16.860000	68.070000	148.000000	1.000000	133.000000	67.000000	0.000000	0.000000
0.010000	16.860000	68.070000	218.000000	0.000000	133.000000	67.000000	0.000000	0.000000
0.020000	16.860000	68.070000	302.000000	0.000000	133.000000	67.000000	0.000000	0.000000
0.030000	16.860000	68.070000	353.000000	0.000000	133.000000	67.000000	0.000000	0.000000
0.040000	16.860000	68.070000	417.000000	0.000000	131.000000	68.000000	0.000000	0.000000
0.050000	16.540000	67.600000	450.000000	0.000000	131.000000	68.000000	-32.000000	-47.000000
0.060000	16.410000	67.290000	504.000000	0.000000	131.000000	68.000000	-13.000000	-31.000000
0.070000	16.240000	66.880000	543.000000	0.000000	133.000000	69.000000	-17.000000	-41.000000
0.080000	16.050000	66.400000	572.000000	0.000000	133.000000	69.000000	-19.000000	-48.000000
0.090000	15.900000	65.970000	588.000000	0.000000	133.000000	69.000000	-15.000000	-43.000000
0.100000	15.740000	65.540000	616.000000	0.000000	133.000000	69.000000	-16.000000	-43.000000
0.110000	15.590000	65.200000	631.000000	0.000000	133.000000	69.000000	-15.000000	-34.000000
0.120000	15.520000	64.910000	644.000000	0.000000	133.000000	69.000000	-7.000000	-29.000000
0.130000	15.470000	64.730000	653.000000	0.000000	133.000000	69.000000	-5.000000	-18.000000
0.140000	15.470000	64.730000	668.000000	0.000000	133.000000	69.000000	0.000000	0.000000
0.150000	15.470000	64.730000	691.000000	0.000000	133.000000	69.000000	0.000000	0.000000
0.160000	15.470000	64.730000	691.000000	0.000000	133.000000	69.000000	0.000000	0.000000
0.170000	15.470000	64.780000	700.000000	0.000000	133.000000	69.000000	0.000000	5.000000
0.180000	15.530000	64.970000	694.000000	0.000000	133.000000	69.000000	6.000000	19.000000
0.190000	15.630000	65.290000	685.000000	0.000000	133.000000	69.000000	10.000000	32.000000
0.200000	15.810000	65.700000	666.000000	0.000000	133.000000	69.000000	18.000000	41.000000
0.210000	16.010000	66.150000	661.000000	0.000000	133.000000	69.000000	20.000000	45.000000
0.220000	16.250000	66.640000	645.000000	0.000000	133.000000	69.000000	24.000000	49.000000
0.230000	16.510000	67.160000	628.000000	0.000000	133.000000	69.000000	26.000000	52.000000
0.240000	16.820000	67.640000	620.000000	0.000000	133.000000	69.000000	31.000000	48.000000
0.250000	17.130000	68.060000	622.000000	0.000000	133.000000	69.000000	31.000000	42.000000
0.260000	17.400000	68.370000	620.000000	0.000000	135.000000	69.000000	27.000000	31.000000
0.270000	17.630000	68.550000	625.000000	0.000000	135.000000	69.000000	23.000000	18.000000
0.280000	17.770000	68.640000	625.000000	0.000000	137.000000	69.000000	14.000000	9.000000
0.290000	17.910000	68.640000	627.000000	0.000000	139.000000	69.000000	14.000000	0.000000
0.300000	17.970000	68.560000	641.000000	0.000000	139.000000	69.000000	6.000000	-8.000000
0.310000	17.970000	68.350000	637.000000	0.000000	141.000000	68.000000	0.000000	-21.000000
0.320000	17.920000	68.050000	655.000000	0.000000	141.000000	68.000000	-5.000000	-30.000000
0.330000	17.780000	67.690000	665.000000	0.000000	141.000000	68.000000	-14.000000	-36.000000
0.340000	17.570000	67.340000	670.000000	0.000000	141.000000	68.000000	-21.000000	-35.000000
0.350000	17.370000	67.010000	676.000000	0.000000	139.000000	69.000000	-20.000000	-33.000000
0.360000	17.210000	66.770000	682.000000	0.000000	139.000000	69.000000	-16.000000	-24.000000
0.370000	17.100000	66.590000	685.000000	0.000000	139.000000	69.000000	-11.000000	-18.000000
0.380000	17.000000	66.440000	688.000000	0.000000	139.000000	69.000000	-10.000000	-15.000000
0.390000	16.940000	66.340000	700.000000	0.000000	139.000000	69.000000	-6.000000	-10.000000
0.400000	16.890000	66.220000	697.000000	0.000000	139.000000	69.000000	-5.000000	-12.000000
0.410000	16.840000	66.050000	713.000000	0.000000	137.000000	69.000000	-5.000000	-17.000000
0.420000	16.840000	65.890000	722.000000	0.000000	137.000000	69.000000	0.000000	-16.000000
0.430000	16.840000	65.730000	733.000000	0.000000	137.000000	69.000000	0.000000	-16.000000
0.440000	16.890000	65.560000	763.000000	0.000000	135.000000	68.000000	5.000000	-17.000000
0.450000	16.890000	65.330000	761.000000	0.000000	135.000000	68.000000	0.000000	-23.000000
0.460000	16.990000	65.130000	756.000000	0.000000	135.000000	68.000000	10.000000	-20.000000
0.470000	17.080000	64.960000	762.000000	0.000000	135.000000	68.000000	9.000000	-17.000000
0.480000	17.190000	64.770000	750.000000	0.000000	135.000000	68.000000	11.000000	-19.000000
0.490000	17.300000	64.660000	697.000000	0.000000	137.000000	69.000000	11.000000	-11.000000
0.500000	17.400000	64.600000	591.000000	0.000000	137.000000	69.000000	10.000000	-6.000000
0.510000	17.540000	64.600000	309.000000	0.000000	137.000000	69.000000	14.000000	0.000000
0.520000	17.540000	64.600000	0.000000	1.000000	137.000000	69.000000	0.000000	0.000000
0.530000	17.990000	64.600000	0.000000	0.000000	137.000000	69.000000	45.000000	0.000000
0.540000	18.250000	64.980000	0.000000	0.000000	137.000000	69.000000	26.000000	38.000000
0.550000	18.520000	65.260000	0.000000	0.000000	137.000000	69.000000	27.000000	28.000000
0.560000	18.810000	65.490000	0.000000	0.000000	137.000000	69.000000	29.000000	23.000000
0.570000	19.080000	65.770000	0.000000	0.000000	137.000000	69.000000	27.000000	28.000000
0.580000	19.280000	66.040000	0.000000	0.000000	137.000000	69.000000	20.000000	27.000000
0.590000	19.440000	66.300000	0.000000	0.000000	137.000000	69.000000	16.000000	26.000000
0.600000	19.440000	66.300000	223.000000	1.000000	137.000000	69.000000	0.000000	0.000000
0.610000	19.440000	66.300000	381.000000	0.000000	137.000000	69.000000	0.000000	0.000000
0.620000	19.440000	66.300000	496.000000	0.000000	139.000000	68.000000	0.000000	0.000000
0.630000	19.170000	66.510000	561.000000	0.000000	139.000000	68.000000	-27.000000	21.000000
0.640000	19.010000	66.410000	619.000000	0.000000	139.000000	68.000000	-16.000000	-10.000000
0.650000	18.770000	66.220000	637.000000	0.000000	137.000000	69.000000	-24.000000	-19.000000
0.660000	18.650000	65.950000	652.000000	0.000000	137.000000	69.000000	-12.000000	-27.000000
0.670000	18.560000	65.670000	659.000000	0.000000	137.000000	69.000000	-9.000000	-28.000000
0.680000	18.560000	65.380000	661.000000	0.000000	137.000000	69.000000	0.000000	-29.000000
0.690000	18.510000	65.100000	666.000000	0.000000	137.000000	69.000000	-5.000000	-28.000000
0.700000	18.510000	64.830000	676.000000	0.000000	137.000000	69.000000	0.000000	-27.000000
0.710000	18.660000	64.740000	687.000000	0.000000	137.000000	69.000000	15.000000	-9.000000
0.720000	18.800000	64.740000	702.000000	0.000000	137.000000	69.000000	14.000000	0.000000
0.730000	18.960000	64.810000	703.000000	0.000000	137.000000	69.000000	16.000000	7.000000
0.740000	19.220000	64.970000	710.000000	0.000000	137.000000	69.000000	26.000000	16.000000
0.750000	19.440000	65.190000	716.000000	0.000000	137.000000	69.000000	22.000000	22.000000
0.760000	19.630000	65.410000	724.000000	0.000000	137.000000	69.000000	19.000000	22.000000
0.770000	19.740000	65.660000	725.000000	0.000000	137.000000	69.000000	11.000000	25.000000
0.780000	19.860000	65.930000	727.000000	0.000000	139.000000	69.000000	12.000000	27.000000
0.790000	19.860000	66.190000	737.000000	0.000000	139.000000	69.000000	0.000000	26.000000
0.800000	19.770000	66.370000	776.000000	0.000000	139.000000	69.000000	-9.000000	18.000000
0.810000	19.700000	66.440000	773.000000	0.000000	139.000000	69.000000	-7.000000	7.000000
0.820000	19.530000	66.440000	774.000000	0.000000	139.000000	69.000000	-17.000000	0.000000
0.830000	19.280000	66.440000	774.000000	0.000000	141.000000	68.000000	-25.000000	0.000000
0.840000	19.030000	66.350000	767.000000	0.000000	141.000000	68.000000	-25.000000	-9.000000
0.850000	18.820000	66.120000	737.000000	0.000000	141.000000	68.000000	-21.000000	-23.000000
0.860000	18.670000	65.970000	603.000000	0.000000	141.000000	68.000000	-15.000000	-15.000000
0.870000	18.670000	65.880000	362.000000	0.000000	141.000000	68.000000	0.000000	-9.000000
0.880000	18.670000	65.880000	0.000000	1.000000	141.000000	68.000000	0.000000	0.000000
0.890000	18.910000	65.740000	0.000000	0.000000	139.000000	68.000000	24.000000	-14.000000
0.900000	19.130000	65.740000	0.000000	0.000000	139.000000	68.000000	22.000000	0.000000
0.910000	19.430000	65.810000	0.000000	0.000000	139.000000	68.000000	30.000000	7.000000
0.920000	19.810000	65.900000	0.000000	0.000000	139.000000	68.000000	38.000000	9.000000
0.930000	20.280000	66.030000	0.000000	0.000000	139.000000	68.000000	47.000000	13.000000
0.940000	20.710000	66.200000	0.000000	0.000000	137.000000	67.000000	43.000000	17.000000
0.950000	21.110000	66.330000	0.000000	0.000000	137.000000	67.000000	40.000000	13.000000
0.960000	21.470000	66.460000	0.000000	0.000000	137.000000	67.000000	36.000000	13.000000
0.970000	21.700000	66.580000	0.000000	0.000000	137.000000	67.000000	23.000000	12.000000
0.980000	21.700000	66.580000	193.000000	1.000000	140.000000	67.000000	0.000000	0.000000
0.990000	21.700000	66.580000	333.000000	0.000000	139.000000	68.000000	0.000000	0.000000
1.000000	21.700000	66.580000	477.000000	0.000000	139.000000	68.000000	0.000000	0.000000
1.010000	21.700000	66.580000	588.000000	0.000000	139.000000	68.000000	0.000000	0.000000
1.020000	21.640000	66.850000	643.000000	0.000000	139.000000	68.000000	-6.000000	27.000000
1.030000	21.580000	66.850000	664.000000	0.000000	139.000000	68.000000	-6.000000	0.000000
1.040000	21.430000	66.850000	685.000000	0.000000	139.000000	68.000000	-15.000000	0.000000
1.050000	21.230000	66.740000	691.000000	0.000000	139.000000	68.000000	-20.000000	-11.000000
1.060000	21.080000	66.610000	708.000000	0.000000	139.000000	68.000000	-15.000000	-13.000000
1.070000	20.930000	66.470000	727.000000	0.000000	139.000000	68.000000	-15.000000	-14.000000
1.080000	20.790000	66.240000	725.000000	0.000000	139.000000	68.000000	-14.000000	-23.000000
1.090000	20.680000	66.000000	736.000000	0.000000	139.000000	68.000000	-11.000000	-24.000000
1.100000	20.630000	65.760000	737.000000	0.000000	139.000000	68.000000	-5.000000	-24.000000
1.110000	20.630000	65.550000	746.000000	0.000000	139.000000	68.000000	0.000000	-21.000000
1.120000	20.630000	65.360000	749.000000	0.000000	139.000000	68.000000	0.000000	-19.000000
1.130000	20.630000	65.250000	743.000000	0.000000	139.000000	68.000000	0.000000	-11.000000
1.140000	20.760000	65.180000	746.000000	0.000000	139.000000	68.000000	13.000000	-7.000000
1.150000	20.880000	65.130000	754.000000	0.000000	137.000000	67.000000	12.000000	-5.000000
1.160000	21.060000	65.130000	755.000000	0.000000	137.000000	67.000000	18.000000	0.000000
1.170000	21.310000	65.130000	754.000000	0.000000	137.000000	67.000000	25.000000	0.000000
1.180000	21.520000	65.200000	755.000000	0.000000	139.000000	68.000000	21.000000	7.000000
1.190000	21.690000	65.330000	749.000000	0.000000	139.000000	68.000000	17.000000	13.000000
1.200000	21.940000	65.460000	742.000000	0.000000	139.000000	68.000000	25.000000	13.000000
1.210000	22.200000	65.660000	730.000000	0.000000	139.000000	68.000000	26.000000	20.000000
1.220000	22.410000	65.920000	733.000000	0.000000	139.000000	68.000000	21.000000	26.000000
1.230000	22.580000	66.200000	725.000000	0.000000	139.000000	68.000000	17.000000	28.000000
1.240000	22.750000	66.460000	721.000000	0.000000	139.000000	68.000000	17.000000	26.000000
1.250000	22.840000	66.700000	722.000000	0.000000	139.000000	68.000000	9.000000	24.000000
1.260000	22.840000	66.830000	728.000000	0.000000	139.000000	68.000000	0.000000	13.000000
1.270000	22.890000	66.910000	727.000000	0.000000	139.000000	68.000000	5.000000	8.000000
1.280000	22.890000	66.910000	731.000000	0.000000	141.000000	68.000000	0.000000	0.000000
1.290000	22.890000	66.910000	736.000000	0.000000	141.000000	68.000000	0.000000	0.000000
1.300000	22.890000	66.910000	733.000000	0.000000	141.000000	68.000000	0.000000	0.000000
1.310000	22.890000	66.910000	731.000000	0.000000	141.000000	68.000000	0.000000	0.000000
1.320000	22.890000	66.840000	737.000000	0.000000	141.000000	68.000000	0.000000	-7.000000
1.330000	22.800000	66.690000	745.000000	0.000000	141.000000	68.000000	-9.000000	-15.000000
1.340000	22.730000	66.490000	757.000000	0.000000	141.000000	68.000000	-7.000000	-20.000000
1.350000	22.660000	66.300000	751.000000	0.000000	139.000000	68.000000	-7.000000	-19.000000
1.360000	22.600000	66.100000	754.000000	0.000000	139.000000	68.000000	-6.000000	-20.000000
1.370000	22.550000	65.890000	760.000000	0.000000	140.000000	67.000000	-5.000000	-21.000000
1.380000	22.550000	65.740000	763.000000	0.000000	140.000000	67.000000	0.000000	-15.000000
1.390000	22.670000	65.640000	767.000000	0.000000	140.000000	67.000000	12.000000	-10.000000
1.400000	22.800000	65.540000	762.000000	0.000000	140.000000	67.000000	13.000000	-10.000000
1.410000	22.920000	65.470000	760.000000	0.000000	140.000000	67.000000	12.000000	-7.000000
1.420000	23.030000	65.470000	751.000000	0.000000	140.000000	67.000000	11.000000	0.000000
1.430000	23.200000	65.420000	722.000000	0.000000	140.000000	67.000000	17.000000	-5.000000
1.440000	23.330000	65.420000	633.000000	0.000000	140.000000	67.000000	13.000000	0.000000
1.450000	23.420000	65.420000	354.000000	0.000000	142.000000	68.000000	9.000000	0.000000
1.460000	23.420000	65.420000	0.000000	1.000000	142.000000	68.000000	0.000000	0.000000
1.470000	23.570000	65.640000	0.000000	0.000000	142.000000	68.000000	15.000000	22.000000
1.480000	23.620000	65.780000	0.000000	0.000000	142.000000	68.000000	5.000000	14.000000
1.490000	23.620000	65.930000	0.000000	0.000000	142.000000	68.000000	0.000000	15.000000
1.500000	23.790000	66.160000	0.000000	0.000000	145.000000	68.000000	17.000000	23.000000
1.510000	23.930000	66.450000	0.000000	0.000000	145.000000	68.000000	14.000000	29.000000
1.520000	24.100000	66.710000	0.000000	0.000000	146.000000	67.000000	17.000000	26.000000
1.530000	24.280000	66.960000	0.000000	0.000000	146.000000	67.000000	18.000000	25.000000
1.540000	24.440000	67.180000	0.000000	0.000000	148.000000	67.000000	16.000000	22.000000
1.550000	24.550000	67.400000	0.000000	0.000000	150.000000	67.000000	11.000000	22.000000
1.560000	24.630000	67.610000	0.000000	0.000000	151.000000	66.000000	8.000000	21.000000
1.570000	24.630000	67.740000	0.000000	0.000000	152.000000	65.000000	0.000000	13.000000
1.580000	24.630000	67.860000	0.000000	0.000000	152.000000	65.000000	0.000000	12.000000
1.590000	24.630000	67.950000	0.000000	0.000000	152.000000	65.000000	0.000000	9.000000
1.600000	24.630000	68.060000	0.000000	0.000000	153.000000	65.000000	0.000000	11.000000
1.610000	24.630000	68.170000	0.000000	0.000000	153.000000	65.000000	0.000000	11.000000
1.620000	24.630000	68.250000	0.000000	0.000000	153.000000	65.000000	0.000000	8.000000
1.630000	24.630000	68.330000	0.000000	0.000000	153.000000	65.000000	0.000000	8.000000
1.640000	24.690000	68.380000	0.000000	0.000000	152.000000	65.000000	6.000000	5.000000
1.650000	24.690000	68.380000	0.000000	0.000000	152.000000	65.000000	0.000000	0.000000
1.660000	24.690000	68.440000	0.000000	0.000000	152.000000	65.000000	0.000000	6.000000
1.670000	24.690000	68.440000	0.000000	0.000000	151.000000	66.000000	0.000000	0.000000
1.680000	24.690000	68.440000	0.000000	0.000000	151.000000	66.000000	0.000000	0.000000
1.690000	24.690000	68.440000	0.000000	0.000000	151.000000	66.000000	0.000000	0.000000
1.700000	24.630000	68.440000	0.000000	0.000000	148.000000	67.000000	-6.000000	0.000000
1.710000	24.630000	68.440000	93.000000	1.000000	148.000000	67.000000	0.000000	0.000000
1.720000	24.630000	68.440000	191.000000	0.000000	148.000000	67.000000	0.000000	0.000000
1.730000	24.630000	68.440000	314.000000	0.000000	148.000000	67.000000	0.000000	0.000000
1.740000	24.630000	68.440000	422.000000	0.000000	148.000000	67.000000	0.000000	0.000000
1.750000	24.630000	68.440000	481.000000	0.000000	148.000000	67.000000	0.000000	0.000000
1.760000	24.380000	68.500000	514.000000	0.000000	148.000000	67.000000	-25.000000	6.000000
1.770000	24.320000	68.400000	546.000000	0.000000	144.000000	67.000000	-6.000000	-10.000000
1.780000	24.220000	68.270000	588.000000	0.000000	144.000000	67.000000	-10.000000	-13.000000
1.790000	24.090000	68.100000	588.000000	0.000000	144.000000	67.000000	-13.000000	-17.000000
1.800000	24.040000	68.040000	595.000000	0.000000	144.000000	67.000000	-5.000000	-6.000000
1.810000	24.040000	68.040000	608.000000	0.000000	144.000000	67.000000	0.000000	0.000000
1.820000	24.040000	68.040000	627.000000	0.000000	144.000000	67.000000	0.000000	0.000000
1.830000	24.040000	68.040000	625.000000	0.000000	144.000000	67.000000	0.000000	0.000000
1.840000	24.040000	68.090000	633.000000	0.000000	142.000000	68.000000	0.000000	5.000000
1.850000	24.150000	68.170000	633.000000	0.000000	140.000000	67.000000	11.000000	8.000000
1.860000	24.280000	68.300000	636.000000	0.000000	142.000000	68.000000	13.000000	13.000000
1.870000	24.420000	68.470000	639.000000	0.000000	142.000000	68.000000	14.000000	17.000000
1.880000	24.420000	68.470000	644.000000	0.000000	144.000000	67.000000	0.000000	0.000000
1.890000	24.420000	68.470000	662.000000	0.000000	144.000000	67.000000	0.000000	0.000000
1.900000	24.420000	68.470000	671.000000	0.000000	144.000000	67.000000	0.000000	0.000000
1.910000	24.250000	68.340000	664.000000	0.000000	144.000000	67.000000	-17.000000	-13.000000
1.920000	24.010000	68.200000	663.000000	0.000000	144.000000	67.000000	-24.000000	-14.000000
1.930000	23.940000	68.070000	655.000000	0.000000	144.000000	67.000000	-7.000000	-13.000000
1.940000	23.940000	68.020000	594.000000	0.000000	144.000000	67.000000	0.000000	-5.000000
1.950000	23.940000	68.020000	409.000000	0.000000	144.000000	67.000000	0.000000	0.000000
1.960000	23.940000	68.020000	0.000000	1.000000	142.000000	68.000000	0.000000	0.000000
1.970000	23.880000	67.930000	0.000000	0.000000	142.000000	68.000000	-6.000000	-9.000000
1.980000	23.880000	67.820000	0.000000	0.000000	142.000000	68.000000	0.000000	-11.000000
1.990000	23.880000	67.690000	0.000000	0.000000	140.000000	67.000000	0.000000	-13.000000
2.000000	23.970000	67.510000	0.000000	0.000000	140.000000	67.000000	9.000000	-18.000000
2.010000	24.110000	67.360000	0.000000	0.000000	140.000000	67.000000	14.000000	-15.000000
2.020000	24.370000	67.240000	0.000000	0.000000	142.000000	68.000000	26.000000	-12.000000
2.030000	24.680000	67.150000	0.000000	0.000000	144.000000	67.000000	31.000000	-9.000000
2.040000	25.000000	67.050000	0.000000	0.000000	144.000000	67.000000	32.000000	-10.000000
2.050000	25.260000	66.980000	0.000000	0.000000	148.000000	67.000000	26.000000	-7.000000
2.060000	25.480000	66.920000	0.000000	0.000000	150.000000	67.000000	22.000000	-6.000000
2.070000	25.600000	66.860000	0.000000	0.000000	150.000000	67.000000	12.000000	-6.000000
2.080000	25.600000	66.860000	0.000000	0.000000	153.000000	67.000000	0.000000	0.000000
2.090000	25.600000	66.860000	0.000000	0.000000	153.000000	67.000000	0.000000	0.000000
2.100000	25.660000	66.860000	0.000000	0.000000	152.000000	68.000000	6.000000	0.000000
2.110000	25.660000	66.930000	0.000000	0.000000	152.000000	68.000000	0.000000	7.000000
2.120000	25.660000	66.930000	0.000000	0.000000	152.000000	68.000000	0.000000	0.000000
2.130000	25.660000	66.930000	149.000000	1.000000	151.000000	68.000000	0.000000	0.000000
2.140000	25.660000	66.930000	269.000000	0.000000	151.000000	68.000000	0.000000	0.000000
2.150000	25.660000	66.930000	377.000000	0.000000	149.000000	69.000000	0.000000	0.000000
2.160000	25.360000	67.110000	467.000000	0.000000	149.000000	69.000000	-30.000000	18.000000
2.170000	25.260000	67.110000	533.000000	0.000000	149.000000	69.000000	-10.000000	0.000000
2.180000	25.160000	67.110000	561.000000	0.000000	149.000000	69.000000	-10.000000	0.000000
2.190000	25.080000	67.050000	595.000000	0.000000	149.000000	69.000000	-8.000000	-6.000000
2.200000	24.920000	66.960000	619.000000	0.000000	147.000000	69.000000	-16.000000	-9.000000
2.210000	24.700000	66.800000	640.000000	0.000000	147.000000	69.000000	-22.000000	-16.000000
2.220000	24.540000	66.590000	656.000000	0.000000	147.000000	69.000000	-16.000000	-21.000000
