t	x	y	pressure	penup	azimuth	inclination	v_x	v_y
0.000000	48.500000	44.590000	110.000000	1.000000	131.000000	60.000000	0.000000	0.000000
0.010000	48.500000	44.590000	134.000000	0.000000	132.000000	60.000000	0.000000	0.000000
0.020000	48.500000	44.590000	163.000000	0.000000	132.000000	60.000000	0.000000	0.000000
0.030000	48.500000	44.590000	175.000000	0.000000	132.000000	60.000000	0.000000	0.000000
0.040000	48.500000	44.590000	222.000000	0.000000	132.000000	61.000000	0.000000	0.000000
0.050000	48.500000	44.590000	239.000000	0.000000	132.000000	61.000000	0.000000	0.000000
0.060000	48.790000	44.400000	244.000000	0.000000	132.000000	61.000000	29.000000	-19.000000
0.070000	48.940000	44.130000	247.000000	0.000000	132.000000	61.000000	15.000000	-27.000000
0.080000	49.060000	43.820000	244.000000	0.000000	133.000000	62.000000	12.000000	-31.000000
0.090000	49.170000	43.490000	244.000000	0.000000	133.000000	62.000000	11.000000	-33.000000
0.100000	49.260000	43.270000	247.000000	0.000000	135.000000	62.000000	9.000000	-22.000000
0.110000	49.310000	43.100000	251.000000	0.000000	135.000000	62.000000	5.000000	-17.000000
0.120000	49.310000	43.100000	257.000000	0.000000	137.000000	62.000000	0.000000	0.000000
0.130000	49.310000	43.190000	274.000000	0.000000	137.000000	62.000000	0.000000	9.000000
0.140000	49.150000	43.380000	333.000000	0.000000	137.000000	62.000000	-16.000000	19.000000
0.150000	48.970000	43.760000	366.000000	0.000000	137.000000	62.000000	-18.000000	38.000000
0.160000	48.770000	44.230000	387.000000	0.000000	137.000000	62.000000	-20.000000	47.000000
0.170000	48.510000	44.770000	392.000000	0.000000	137.000000	62.000000	-26.000000	54.000000
0.180000	48.210000	45.210000	415.000000	0.000000	135.000000	62.000000	-30.000000	44.000000
0.190000	47.960000	45.630000	455.000000	0.000000	135.000000	62.000000	-25.000000	42.000000
0.200000	47.830000	46.040000	469.000000	0.000000	135.000000	62.000000	-13.000000	41.000000
0.210000	47.780000	46.410000	464.000000	0.000000	134.000000	61.000000	-5.000000	37.000000
0.220000	47.870000	46.720000	465.000000	0.000000	134.000000	61.000000	9.000000	31.000000
0.230000	48.010000	46.940000	465.000000	0.000000	134.000000	61.000000	14.000000	22.000000
0.240000	48.260000	47.180000	467.000000	0.000000	132.000000	60.000000	25.000000	24.000000
0.250000	48.580000	47.410000	474.000000	0.000000	134.000000	61.000000	32.000000	23.000000
0.260000	48.930000	47.510000	458.000000	0.000000	134.000000	61.000000	35.000000	10.000000
0.270000	49.260000	47.570000	445.000000	0.000000	135.000000	60.000000	33.000000	6.000000
0.280000	49.470000	47.440000	449.000000	0.000000	136.000000	61.000000	21.000000	-13.000000
0.290000	49.610000	47.210000	446.000000	0.000000	136.000000	61.000000	14.000000	-23.000000
0.300000	49.610000	46.840000	448.000000	0.000000	138.000000	60.000000	0.000000	-37.000000
0.310000	49.450000	46.430000	439.000000	0.000000	138.000000	61.000000	-16.000000	-41.000000
0.320000	49.240000	45.970000	440.000000	0.000000	138.000000	61.000000	-21.000000	-46.000000
0.330000	49.080000	45.590000	448.000000	0.000000	138.000000	61.000000	-16.000000	-38.000000
0.340000	48.920000	45.250000	455.000000	0.000000	138.000000	61.000000	-16.000000	-34.000000
0.350000	48.810000	44.890000	456.000000	0.000000	137.000000	62.000000	-11.000000	-36.000000
0.360000	48.810000	44.540000	456.000000	0.000000	135.000000	62.000000	0.000000	-35.000000
0.370000	48.860000	44.240000	456.000000	0.000000	135.000000	62.000000	5.000000	-30.000000
0.380000	49.000000	43.980000	453.000000	0.000000	135.000000	62.000000	14.000000	-26.000000
0.390000	49.190000	43.770000	458.000000	0.000000	135.000000	62.000000	19.000000	-21.000000
0.400000	49.460000	43.670000	460.000000	0.000000	135.000000	62.000000	27.000000	-10.000000
0.410000	49.760000	43.670000	456.000000	0.000000	135.000000	62.000000	30.000000	0.000000
0.420000	50.080000	43.670000	456.000000	0.000000	135.000000	62.000000	32.000000	0.000000
0.430000	50.420000	43.670000	442.000000	0.000000	135.000000	62.000000	34.000000	0.000000
0.440000	50.770000	43.810000	399.000000	0.000000	136.000000	61.000000	35.000000	14.000000
0.450000	51.050000	43.810000	255.000000	0.000000	136.000000	61.000000	28.000000	0.000000
0.460000	51.050000	43.810000	0.000000	1.000000	136.000000	61.000000	0.000000	0.000000
0.470000	51.780000	43.930000	0.000000	0.000000	136.000000	61.000000	73.000000	12.000000
0.480000	51.830000	44.020000	0.000000	0.000000	136.000000	61.000000	5.000000	9.000000
0.490000	51.590000	44.110000	0.000000	0.000000	136.000000	61.000000	-24.000000	9.000000
0.500000	51.590000	44.190000	0.000000	0.000000	135.000000	60.000000	0.000000	8.000000
0.510000	51.590000	44.270000	0.000000	0.000000	135.000000	60.000000	0.000000	8.000000
0.520000	51.740000	44.410000	0.000000	0.000000	135.000000	60.000000	15.000000	14.000000
0.530000	51.910000	44.600000	0.000000	0.000000	135.000000	60.000000	17.000000	19.000000
0.540000	52.090000	44.780000	0.000000	0.000000	135.000000	60.000000	18.000000	18.000000
0.550000	52.260000	44.960000	0.000000	0.000000	134.000000	60.000000	17.000000	18.000000
0.560000	52.260000	44.960000	32.000000	1.000000	134.000000	60.000000	0.000000	0.000000
0.570000	52.410000	45.260000	73.000000	0.000000	134.000000	61.000000	15.000000	30.000000
0.580000	52.340000	45.390000	149.000000	0.000000	134.000000	61.000000	-7.000000	13.000000
0.590000	52.210000	45.490000	226.000000	0.000000	134.000000	61.000000	-13.000000	10.000000
0.600000	52.070000	45.560000	260.000000	0.000000	134.000000	61.000000	-14.000000	7.000000
0.610000	51.910000	45.560000	289.000000	0.000000	134.000000	61.000000	-16.000000	0.000000
0.620000	51.710000	45.560000	330.000000	0.000000	132.000000	61.000000	-20.000000	0.000000
0.630000	51.520000	45.440000	334.000000	0.000000	132.000000	61.000000	-19.000000	-12.000000
0.640000	51.350000	45.280000	344.000000	0.000000	132.000000	61.000000	-17.000000	-16.000000
0.650000	51.230000	45.080000	338.000000	0.000000	132.000000	61.000000	-12.000000	-20.000000
0.660000	51.160000	44.830000	349.000000	0.000000	132.000000	61.000000	-7.000000	-25.000000
0.670000	51.160000	44.560000	346.000000	0.000000	132.000000	61.000000	0.000000	-27.000000
0.680000	51.240000	44.280000	344.000000	0.000000	132.000000	61.000000	8.000000	-28.000000
0.690000	51.400000	44.070000	344.000000	0.000000	132.000000	61.000000	16.000000	-21.000000
0.700000	51.630000	43.910000	344.000000	0.000000	132.000000	61.000000	23.000000	-16.000000
0.710000	51.880000	43.800000	358.000000	0.000000	134.000000	61.000000	25.000000	-11.000000
0.720000	52.140000	43.800000	366.000000	0.000000	134.000000	61.000000	26.000000	0.000000
0.730000	52.470000	43.860000	373.000000	0.000000	134.000000	61.000000	33.000000	6.000000
0.740000	52.820000	44.030000	361.000000	0.000000	134.000000	61.000000	35.000000	17.000000
0.750000	53.030000	44.250000	366.000000	0.000000	134.000000	61.000000	21.000000	22.000000
0.760000	53.150000	44.510000	364.000000	0.000000	134.000000	61.000000	12.000000	26.000000
0.770000	53.150000	44.740000	364.000000	0.000000	135.000000	60.000000	0.000000	23.000000
0.780000	53.150000	44.940000	358.000000	0.000000	134.000000	61.000000	0.000000	20.000000
0.790000	52.960000	45.090000	341.000000	0.000000	134.000000	61.000000	-19.000000	15.000000
0.800000	52.680000	45.180000	339.000000	0.000000	134.000000	61.000000	-28.000000	9.000000
0.810000	52.400000	45.230000	287.000000	0.000000	132.000000	60.000000	-28.000000	5.000000
0.820000	52.140000	45.230000	214.000000	0.000000	132.000000	60.000000	-26.000000	0.000000
0.830000	51.950000	45.230000	137.000000	0.000000	134.000000	61.000000	-19.000000	0.000000
0.840000	51.850000	45.160000	20.000000	0.000000	134.000000	61.000000	-10.000000	-7.000000
0.850000	51.850000	45.160000	0.000000	1.000000	132.000000	61.000000	0.000000	0.000000
0.860000	51.850000	45.090000	0.000000	0.000000	132.000000	61.000000	0.000000	-7.000000
0.870000	52.050000	45.090000	0.000000	0.000000	132.000000	61.000000	20.000000	0.000000
0.880000	52.310000	45.090000	0.000000	0.000000	132.000000	61.000000	26.000000	0.000000
0.890000	52.620000	45.140000	0.000000	0.000000	134.000000	61.000000	31.000000	5.000000
0.900000	52.980000	45.290000	0.000000	0.000000	134.000000	61.000000	36.000000	15.000000
0.910000	53.350000	45.430000	0.000000	0.000000	134.000000	61.000000	37.000000	14.000000
0.920000	53.710000	45.630000	0.000000	0.000000	134.000000	61.000000	36.000000	20.000000
0.930000	54.020000	45.860000	0.000000	0.000000	134.000000	61.000000	31.000000	23.000000
0.940000	54.290000	46.030000	0.000000	0.000000	134.000000	61.000000	27.000000	17.000000
0.950000	54.290000	46.030000	34.000000	1.000000	134.000000	61.000000	0.000000	0.000000
0.960000	54.410000	46.290000	94.000000	0.000000	134.000000	61.000000	12.000000	26.000000
0.970000	54.300000	46.360000	144.000000	0.000000	134.000000	61.000000	-11.000000	7.000000
0.980000	54.210000	46.420000	175.000000	0.000000	134.000000	61.000000	-9.000000	6.000000
0.990000	54.060000	46.420000	195.000000	0.000000	134.000000	61.000000	-15.000000	0.000000
1.000000	53.880000	46.420000	226.000000	0.000000	132.000000	61.000000	-18.000000	0.000000
1.010000	53.670000	46.320000	225.000000	0.000000	132.000000	61.000000	-21.000000	-10.000000
1.020000	53.520000	46.180000	240.000000	0.000000	132.000000	61.000000	-15.000000	-14.000000
1.030000	53.460000	46.020000	246.000000	0.000000	132.000000	61.000000	-6.000000	-16.000000
1.040000	53.410000	45.830000	249.000000	0.000000	132.000000	61.000000	-5.000000	-19.000000
1.050000	53.410000	45.610000	247.000000	0.000000	132.000000	61.000000	0.000000	-22.000000
1.060000	53.410000	45.410000	256.000000	0.000000	132.000000	61.000000	0.000000	-20.000000
1.070000	53.560000	45.170000	256.000000	0.000000	132.000000	61.000000	15.000000	-24.000000
1.080000	53.710000	44.940000	242.000000	0.000000	132.000000	61.000000	15.000000	-23.000000
1.090000	53.880000	44.820000	252.000000	0.000000	132.000000	61.000000	17.000000	-12.000000
1.100000	54.090000	44.820000	254.000000	0.000000	132.000000	61.000000	21.000000	0.000000
1.110000	54.320000	44.820000	255.000000	0.000000	132.000000	61.000000	23.000000	0.000000
1.120000	54.590000	44.930000	249.000000	0.000000	134.000000	61.000000	27.000000	11.000000
1.130000	54.900000	45.080000	256.000000	0.000000	134.000000	61.000000	31.000000	15.000000
1.140000	55.200000	45.300000	228.000000	0.000000	134.000000	61.000000	30.000000	22.000000
1.150000	55.470000	45.540000	219.000000	0.000000	134.000000	61.000000	27.000000	24.000000
1.160000	55.700000	45.790000	191.000000	0.000000	134.000000	61.000000	23.000000	25.000000
1.170000	55.770000	45.960000	176.000000	0.000000	134.000000	61.000000	7.000000	17.000000
1.180000	55.770000	46.110000	170.000000	0.000000	134.000000	61.000000	0.000000	15.000000
1.190000	55.680000	46.210000	173.000000	0.000000	132.000000	61.000000	-9.000000	10.000000
1.200000	55.680000	46.210000	183.000000	0.000000	132.000000	61.000000	0.000000	0.000000
1.210000	55.680000	46.210000	213.000000	0.000000	132.000000	61.000000	0.000000	0.000000
1.220000	55.440000	46.530000	235.000000	0.000000	133.000000	62.000000	-24.000000	32.000000
1.230000	55.390000	46.670000	272.000000	0.000000	133.000000	62.000000	-5.000000	14.000000
1.240000	55.390000	46.670000	304.000000	0.000000	133.000000	62.000000	0.000000	0.000000
1.250000	55.390000	46.740000	305.000000	0.000000	135.000000	62.000000	0.000000	7.000000
1.260000	55.390000	46.740000	305.000000	0.000000	135.000000	62.000000	0.000000	0.000000
1.270000	55.390000	46.740000	307.000000	0.000000	135.000000	62.000000	0.000000	0.000000
1.280000	55.390000	46.740000	304.000000	0.000000	135.000000	62.000000	0.000000	0.000000
1.290000	55.390000	46.650000	305.000000	0.000000	135.000000	62.000000	0.000000	-9.000000
1.300000	55.390000	46.540000	309.000000	0.000000	135.000000	62.000000	0.000000	-11.000000
1.310000	55.460000	46.370000	310.000000	0.000000	135.000000	62.000000	7.000000	-17.000000
1.320000	55.510000	46.170000	309.000000	0.000000	135.000000	62.000000	5.000000	-20.000000
1.330000	55.590000	45.930000	309.000000	0.000000	135.000000	62.000000	8.000000	-24.000000
1.340000	55.690000	45.690000	305.000000	0.000000	135.000000	62.000000	10.000000	-24.000000
1.350000	55.770000	45.550000	307.000000	0.000000	135.000000	62.000000	8.000000	-14.000000
1.360000	55.840000	45.410000	307.000000	0.000000	135.000000	62.000000	7.000000	-14.000000
1.370000	56.010000	45.360000	314.000000	0.000000	135.000000	62.000000	17.000000	-5.000000
1.380000	56.190000	45.360000	292.000000	0.000000	135.000000	62.000000	18.000000	0.000000
1.390000	56.390000	45.450000	255.000000	0.000000	137.000000	62.000000	20.000000	9.000000
1.400000	56.610000	45.580000	175.000000	0.000000	137.000000	62.000000	22.000000	13.000000
1.410000	56.850000	45.760000	68.000000	0.000000	137.000000	62.000000	24.000000	18.000000
1.420000	56.850000	45.760000	0.000000	1.000000	137.000000	62.000000	0.000000	0.000000
1.430000	57.120000	45.980000	0.000000	0.000000	138.000000	63.000000	27.000000	22.000000
1.440000	57.190000	46.030000	0.000000	0.000000	138.000000	63.000000	7.000000	5.000000
1.450000	57.190000	46.030000	0.000000	0.000000	138.000000	63.000000	0.000000	0.000000
1.460000	57.240000	46.120000	0.000000	0.000000	138.000000	63.000000	5.000000	9.000000
1.470000	57.380000	46.190000	0.000000	0.000000	140.000000	63.000000	14.000000	7.000000
1.480000	57.520000	46.280000	0.000000	0.000000	140.000000	63.000000	14.000000	9.000000
1.490000	57.670000	46.400000	0.000000	0.000000	140.000000	63.000000	15.000000	12.000000
1.500000	57.820000	46.550000	0.000000	0.000000	140.000000	63.000000	15.000000	15.000000
1.510000	57.900000	46.710000	0.000000	0.000000	140.000000	63.000000	8.000000	16.000000
1.520000	57.900000	46.850000	0.000000	0.000000	140.000000	63.000000	0.000000	14.000000
1.530000	57.900000	46.970000	0.000000	0.000000	140.000000	63.000000	0.000000	12.000000
1.540000	57.900000	46.970000	68.000000	1.000000	141.000000	63.000000	0.000000	0.000000
1.550000	57.900000	46.970000	125.000000	0.000000	141.000000	63.000000	0.000000	0.000000
1.560000	57.900000	46.970000	182.000000	0.000000	141.000000	63.000000	0.000000	0.000000
1.570000	57.580000	47.040000	218.000000	0.000000	141.000000	63.000000	-32.000000	7.000000
1.580000	57.450000	47.090000	244.000000	0.000000	141.000000	63.000000	-13.000000	5.000000
1.590000	57.290000	47.090000	260.000000	0.000000	143.000000	62.000000	-16.000000	0.000000
1.600000	57.170000	47.090000	274.000000	0.000000	143.000000	62.000000	-12.000000	0.000000
1.610000	57.120000	47.040000	274.000000	0.000000	143.000000	62.000000	-5.000000	-5.000000
1.620000	57.120000	47.040000	276.000000	0.000000	143.000000	62.000000	0.000000	0.000000
1.630000	57.120000	46.940000	279.000000	0.000000	143.000000	62.000000	0.000000	-10.000000
1.640000	57.070000	46.780000	276.000000	0.000000	141.000000	61.000000	-5.000000	-16.000000
1.650000	57.070000	46.540000	273.000000	0.000000	141.000000	61.000000	0.000000	-24.000000
1.660000	57.070000	46.300000	273.000000	0.000000	140.000000	62.000000	0.000000	-24.000000
1.670000	57.120000	46.080000	274.000000	0.000000	140.000000	62.000000	5.000000	-22.000000
1.680000	57.220000	45.910000	289.000000	0.000000	140.000000	62.000000	10.000000	-17.000000
1.690000	57.360000	45.800000	304.000000	0.000000	140.000000	62.000000	14.000000	-11.000000
1.700000	57.570000	45.740000	314.000000	0.000000	138.000000	63.000000	21.000000	-6.000000
1.710000	57.840000	45.740000	324.000000	0.000000	138.000000	63.000000	27.000000	0.000000
1.720000	58.130000	45.870000	340.000000	0.000000	138.000000	63.000000	29.000000	13.000000
1.730000	58.430000	46.020000	344.000000	0.000000	140.000000	63.000000	30.000000	15.000000
1.740000	58.650000	46.270000	345.000000	0.000000	140.000000	63.000000	22.000000	25.000000
1.750000	58.810000	46.520000	338.000000	0.000000	140.000000	63.000000	16.000000	25.000000
1.760000	58.900000	46.760000	334.000000	0.000000	140.000000	63.000000	9.000000	24.000000
1.770000	58.900000	46.960000	314.000000	0.000000	141.000000	63.000000	0.000000	20.000000
1.780000	58.800000	47.110000	254.000000	0.000000	141.000000	63.000000	-10.000000	15.000000
1.790000	58.560000	47.200000	167.000000	0.000000	141.000000	63.000000	-24.000000	9.000000
1.800000	58.230000	47.200000	27.000000	0.000000	141.000000	63.000000	-33.000000	0.000000
1.810000	58.230000	47.200000	0.000000	1.000000	141.000000	63.000000	0.000000	0.000000
1.820000	57.370000	47.200000	0.000000	0.000000	143.000000	62.000000	-86.000000	0.000000
1.830000	56.940000	47.200000	0.000000	0.000000	143.000000	62.000000	-43.000000	0.000000
1.840000	56.580000	47.200000	0.000000	0.000000	143.000000	62.000000	-36.000000	0.000000
1.850000	56.240000	47.200000	0.000000	0.000000	143.000000	62.000000	-34.000000	0.000000
1.860000	55.950000	47.200000	0.000000	0.000000	143.000000	62.000000	-29.000000	0.000000
1.870000	55.730000	47.200000	0.000000	0.000000	141.000000	61.000000	-22.000000	0.000000
1.880000	55.730000	47.200000	24.000000	1.000000	141.000000	61.000000	0.000000	0.000000
1.890000	55.730000	47.200000	68.000000	0.000000	141.000000	61.000000	0.000000	0.000000
1.900000	55.730000	47.200000	139.000000	0.000000	139.000000	61.000000	0.000000	0.000000
1.910000	55.730000	47.200000	228.000000	0.000000	139.000000	61.000000	0.000000	0.000000
1.920000	55.730000	47.200000	311.000000	0.000000	139.000000	61.000000	0.000000	0.000000
1.930000	55.730000	47.200000	363.000000	0.000000	139.000000	61.000000	0.000000	0.000000
1.940000	55.540000	47.650000	393.000000	0.000000	138.000000	60.000000	-19.000000	45.000000
1.950000	55.590000	47.970000	396.000000	0.000000	138.000000	60.000000	5.000000	32.000000
1.960000	55.590000	48.370000	394.000000	0.000000	139.000000	61.000000	0.000000	40.000000
1.970000	55.590000	48.630000	343.000000	0.000000	141.000000	60.000000	0.000000	26.000000
1.980000	55.590000	48.850000	173.000000	0.000000	141.000000	60.000000	0.000000	22.000000
1.990000	55.590000	48.850000	0.000000	1.000000	141.000000	60.000000	0.000000	0.000000
2.000000	55.720000	49.110000	0.000000	0.000000	142.000000	59.000000	13.000000	26.000000
2.010000	55.900000	49.230000	0.000000	0.000000	142.000000	59.000000	18.000000	12.000000
2.020000	56.130000	49.360000	0.000000	0.000000	142.000000	59.000000	23.000000	13.000000
2.030000	56.360000	49.290000	0.000000	0.000000	145.000000	59.000000	23.000000	-7.000000
2.040000	56.570000	49.180000	0.000000	0.000000	144.000000	60.000000	21.000000	-11.000000
2.050000	56.810000	48.880000	0.000000	0.000000	144.000000	60.000000	24.000000	-30.000000
2.060000	57.100000	48.460000	0.000000	0.000000	145.000000	60.000000	29.000000	-42.000000
2.070000	57.460000	48.110000	0.000000	0.000000	147.000000	61.000000	36.000000	-35.000000
2.080000	57.820000	47.750000	0.000000	0.000000	147.000000	61.000000	36.000000	-36.000000
2.090000	58.070000	47.400000	0.000000	0.000000	147.000000	61.000000	25.000000	-35.000000
2.100000	58.250000	47.180000	0.000000	0.000000	147.000000	61.000000	18.000000	-22.000000
2.110000	58.370000	47.040000	0.000000	0.000000	147.000000	61.000000	12.000000	-14.000000
2.120000	58.480000	47.040000	0.000000	0.000000	147.000000	61.000000	11.000000	0.000000
2.130000	58.570000	47.040000	0.000000	0.000000	146.000000	60.000000	9.000000	0.000000
2.140000	58.650000	47.040000	0.000000	0.000000	146.000000	60.000000	8.000000	0.000000
2.150000	58.780000	47.140000	0.000000	0.000000	144.000000	60.000000	13.000000	10.000000
2.160000	58.940000	47.210000	0.000000	0.000000	144.000000	60.000000	16.000000	7.000000
2.170000	59.100000	47.330000	0.000000	0.000000	144.000000	60.000000	16.000000	12.000000
2.180000	59.260000	47.480000	0.000000	0.000000	142.000000	61.000000	16.000000	15.000000
2.190000	59.360000	47.560000	0.000000	0.000000	144.000000	61.000000	10.000000	8.000000
2.200000	59.410000	47.630000	0.000000	0.000000	144.000000	61.000000	5.000000	7.000000
2.210000	59.410000	47.630000	0.000000	0.000000	144.000000	61.000000	0.000000	0.000000
2.220000	59.460000	47.630000	0.000000	0.000000	144.000000	61.000000	5.000000	0.000000
