t	x	y	pressure	penup	azimuth	inclination	v_x	v_y
0.000000	12.750000	48.230000	8.000000	1.000000	148.000000	50.000000	0.000000	0.000000
0.010000	12.750000	48.230000	68.000000	1.000000	148.000000	50.000000	0.000000	0.000000
0.020000	12.750000	48.230000	81.000000	0.000000	148.000000	50.000000	0.000000	0.000000
0.030000	13.100000	48.160000	101.000000	0.000000	148.000000	50.000000	35.000000	-7.000000
0.040000	13.420000	48.160000	144.000000	0.000000	149.000000	49.000000	32.000000	0.000000
0.050000	13.840000	48.160000	179.000000	0.000000	149.000000	49.000000	42.000000	0.000000
0.060000	14.320000	48.250000	205.000000	0.000000	151.000000	49.000000	48.000000	9.000000
0.070000	14.800000	48.410000	207.000000	0.000000	150.000000	50.000000	48.000000	16.000000
0.080000	15.290000	48.630000	247.000000	0.000000	150.000000	50.000000	49.000000	22.000000
0.090000	15.720000	48.830000	259.000000	0.000000	151.000000	50.000000	43.000000	20.000000
0.100000	16.140000	49.090000	270.000000	0.000000	152.000000	51.000000	42.000000	26.000000
0.110000	16.500000	49.390000	287.000000	0.000000	152.000000	51.000000	36.000000	30.000000
0.120000	16.830000	49.670000	274.000000	0.000000	153.000000	51.000000	33.000000	28.000000
0.130000	16.950000	49.960000	274.000000	0.000000	153.000000	51.000000	12.000000	29.000000
0.140000	16.950000	50.270000	280.000000	0.000000	153.000000	51.000000	0.000000	31.000000
0.150000	16.870000	50.590000	280.000000	0.000000	153.000000	51.000000	-8.000000	32.000000
0.160000	16.580000	50.810000	275.000000	0.000000	154.000000	50.000000	-29.000000	22.000000
0.170000	16.160000	51.000000	269.000000	0.000000	154.000000	50.000000	-42.000000	19.000000
0.180000	15.660000	51.110000	270.000000	0.000000	153.000000	50.000000	-50.000000	11.000000
0.190000	15.170000	51.110000	269.000000	0.000000	154.000000	49.000000	-49.000000	0.000000
0.200000	14.640000	51.060000	267.000000	0.000000	154.000000	49.000000	-53.000000	-5.000000
0.210000	14.050000	50.830000	267.000000	0.000000	154.000000	49.000000	-59.000000	-23.000000
0.220000	13.420000	50.500000	269.000000	0.000000	153.000000	49.000000	-63.000000	-33.000000
0.230000	12.810000	50.050000	265.000000	0.000000	151.000000	48.000000	-61.000000	-45.000000
0.240000	12.210000	49.550000	267.000000	0.000000	151.000000	49.000000	-60.000000	-50.000000
0.250000	11.620000	48.950000	269.000000	0.000000	149.000000	49.000000	-59.000000	-60.000000
0.260000	11.190000	48.260000	269.000000	0.000000	148.000000	48.000000	-43.000000	-69.000000
0.270000	10.860000	47.550000	269.000000	0.000000	146.000000	49.000000	-33.000000	-71.000000
0.280000	10.860000	46.890000	267.000000	0.000000	146.000000	49.000000	0.000000	-66.000000
0.290000	11.020000	46.300000	270.000000	0.000000	144.000000	49.000000	16.000000	-59.000000
0.300000	11.380000	45.860000	287.000000	0.000000	143.000000	50.000000	36.000000	-44.000000
0.310000	11.940000	45.540000	302.000000	0.000000	143.000000	50.000000	56.000000	-32.000000
0.320000	12.500000	45.330000	320.000000	0.000000	142.000000	50.000000	56.000000	-21.000000
0.330000	13.180000	45.250000	339.000000	0.000000	143.000000	51.000000	68.000000	-8.000000
0.340000	13.920000	45.250000	334.000000	0.000000	142.000000	52.000000	74.000000	0.000000
0.350000	14.570000	45.320000	334.000000	0.000000	143.000000	52.000000	65.000000	7.000000
0.360000	15.050000	45.380000	339.000000	0.000000	145.000000	53.000000	48.000000	6.000000
0.370000	15.420000	45.450000	339.000000	0.000000	146.000000	53.000000	37.000000	7.000000
0.380000	15.570000	45.450000	341.000000	0.000000	147.000000	53.000000	15.000000	0.000000
0.390000	15.650000	45.450000	339.000000	0.000000	148.000000	54.000000	8.000000	0.000000
0.400000	15.650000	45.450000	306.000000	0.000000	150.000000	54.000000	0.000000	0.000000
0.410000	15.650000	45.450000	212.000000	0.000000	151.000000	54.000000	0.000000	0.000000
0.420000	15.650000	45.450000	65.000000	0.000000	151.000000	54.000000	0.000000	0.000000
0.430000	15.650000	45.450000	0.000000	1.000000	153.000000	55.000000	0.000000	0.000000
0.440000	15.740000	45.450000	0.000000	0.000000	153.000000	55.000000	9.000000	0.000000
0.450000	15.890000	45.520000	0.000000	0.000000	153.000000	55.000000	15.000000	7.000000
0.460000	16.040000	45.700000	0.000000	0.000000	151.000000	54.000000	15.000000	18.000000
0.470000	16.190000	45.880000	0.000000	0.000000	151.000000	54.000000	15.000000	18.000000
0.480000	16.450000	46.040000	0.000000	0.000000	151.000000	54.000000	26.000000	16.000000
0.490000	16.740000	46.160000	0.000000	0.000000	151.000000	54.000000	29.000000	12.000000
0.500000	17.090000	46.240000	0.000000	0.000000	152.000000	54.000000	35.000000	8.000000
0.510000	17.420000	46.300000	0.000000	0.000000	152.000000	54.000000	33.000000	6.000000
0.520000	17.730000	46.360000	0.000000	0.000000	153.000000	54.000000	31.000000	6.000000
0.530000	18.020000	46.420000	0.000000	0.000000	153.000000	54.000000	29.000000	6.000000
0.540000	18.290000	46.490000	0.000000	0.000000	153.000000	54.000000	27.000000	7.000000
0.550000	18.520000	46.560000	0.000000	0.000000	156.000000	53.000000	23.000000	7.000000
0.560000	18.660000	46.630000	0.000000	0.000000	155.000000	54.000000	14.000000	7.000000
0.570000	18.740000	46.690000	0.000000	0.000000	156.000000	55.000000	8.000000	6.000000
0.580000	18.740000	46.690000	0.000000	0.000000	156.000000	55.000000	0.000000	0.000000
0.590000	18.740000	46.750000	0.000000	0.000000	156.000000	55.000000	0.000000	6.000000
0.600000	18.740000	46.750000	0.000000	0.000000	156.000000	55.000000	0.000000	0.000000
0.610000	18.740000	46.750000	0.000000	0.000000	157.000000	54.000000	0.000000	0.000000
0.620000	18.740000	46.750000	0.000000	0.000000	157.000000	54.000000	0.000000	0.000000
0.630000	18.740000	46.810000	0.000000	0.000000	157.000000	54.000000	0.000000	6.000000
0.640000	18.740000	46.810000	0.000000	0.000000	157.000000	54.000000	0.000000	0.000000
0.650000	18.740000	46.810000	0.000000	0.000000	157.000000	54.000000	0.000000	0.000000
0.660000	18.740000	46.810000	0.000000	0.000000	157.000000	54.000000	0.000000	0.000000
0.670000	18.740000	46.810000	0.000000	0.000000	157.000000	54.000000	0.000000	0.000000
0.680000	18.740000	46.760000	0.000000	0.000000	157.000000	54.000000	0.000000	-5.000000
0.690000	18.740000	46.760000	0.000000	0.000000	157.000000	54.000000	0.000000	0.000000
0.700000	18.690000	46.700000	0.000000	0.000000	157.000000	54.000000	-5.000000	-6.000000
0.710000	18.640000	46.700000	0.000000	0.000000	157.000000	54.000000	-5.000000	0.000000
0.720000	18.640000	46.700000	0.000000	0.000000	157.000000	54.000000	0.000000	0.000000
0.730000	18.570000	46.700000	0.000000	0.000000	158.000000	54.000000	-7.000000	0.000000
0.740000	18.570000	46.760000	0.000000	0.000000	158.000000	54.000000	0.000000	6.000000
0.750000	18.520000	46.760000	0.000000	0.000000	158.000000	54.000000	-5.000000	0.000000
0.760000	18.520000	46.760000	0.000000	0.000000	158.000000	54.000000	0.000000	0.000000
0.770000	18.520000	46.760000	0.000000	0.000000	158.000000	54.000000	0.000000	0.000000
0.780000	18.520000	46.760000	0.000000	0.000000	158.000000	54.000000	0.000000	0.000000
0.790000	18.520000	46.760000	0.000000	0.000000	158.000000	54.000000	0.000000	0.000000
0.800000	18.520000	46.760000	0.000000	0.000000	158.000000	54.000000	0.000000	0.000000
0.810000	18.520000	46.760000	0.000000	0.000000	158.000000	54.000000	0.000000	0.000000
0.820000	18.520000	46.760000	0.000000	0.000000	158.000000	54.000000	0.000000	0.000000
0.830000	18.520000	46.760000	0.000000	0.000000	158.000000	54.000000	0.000000	0.000000
0.840000	18.520000	46.760000	0.000000	0.000000	158.000000	54.000000	0.000000	0.000000
0.850000	18.520000	46.760000	0.000000	0.000000	158.000000	54.000000	0.000000	0.000000
0.860000	18.470000	46.760000	0.000000	0.000000	159.000000	53.000000	-5.000000	0.000000
0.870000	18.420000	46.710000	0.000000	0.000000	159.000000	53.000000	-5.000000	-5.000000
0.880000	18.350000	46.710000	0.000000	0.000000	159.000000	53.000000	-7.000000	0.000000
0.890000	18.300000	46.660000	0.000000	0.000000	159.000000	53.000000	-5.000000	-5.000000
0.900000	18.300000	46.660000	0.000000	0.000000	159.000000	53.000000	0.000000	0.000000
0.910000	18.300000	46.710000	0.000000	0.000000	159.000000	53.000000	0.000000	5.000000
0.920000	18.300000	46.760000	0.000000	0.000000	159.000000	53.000000	0.000000	5.000000
0.930000	18.300000	46.810000	0.000000	0.000000	159.000000	53.000000	0.000000	5.000000
0.940000	18.300000	46.860000	0.000000	0.000000	159.000000	53.000000	0.000000	5.000000
0.950000	18.300000	46.930000	0.000000	0.000000	159.000000	53.000000	0.000000	7.000000
0.960000	18.250000	47.000000	0.000000	0.000000	159.000000	53.000000	-5.000000	7.000000
0.970000	18.250000	47.100000	0.000000	0.000000	159.000000	53.000000	0.000000	10.000000
0.980000	18.190000	47.220000	0.000000	0.000000	159.000000	53.000000	-6.000000	12.000000
0.990000	18.190000	47.370000	0.000000	0.000000	159.000000	53.000000	0.000000	15.000000
1.000000	18.240000	47.550000	0.000000	0.000000	159.000000	53.000000	5.000000	18.000000
1.010000	18.300000	47.740000	0.000000	0.000000	159.000000	53.000000	6.000000	19.000000
1.020000	18.390000	47.930000	0.000000	0.000000	159.000000	53.000000	9.000000	19.000000
1.030000	18.510000	48.110000	0.000000	0.000000	159.000000	53.000000	12.000000	18.000000
1.040000	18.590000	48.240000	0.000000	0.000000	160.000000	52.000000	8.000000	13.000000
1.050000	18.640000	48.310000	0.000000	0.000000	160.000000	52.000000	5.000000	7.000000
1.060000	18.690000	48.490000	0.000000	0.000000	160.000000	52.000000	5.000000	18.000000
1.070000	18.740000	48.740000	0.000000	0.000000	160.000000	51.000000	5.000000	25.000000
1.080000	18.740000	48.930000	0.000000	0.000000	160.000000	51.000000	0.000000	19.000000
1.090000	18.740000	49.110000	0.000000	0.000000	160.000000	52.000000	0.000000	18.000000
1.100000	18.740000	49.280000	0.000000	0.000000	158.000000	52.000000	0.000000	17.000000
1.110000	18.740000	49.430000	0.000000	0.000000	158.000000	52.000000	0.000000	15.000000
1.120000	18.740000	49.560000	0.000000	0.000000	158.000000	52.000000	0.000000	13.000000
1.130000	18.740000	49.670000	0.000000	0.000000	158.000000	52.000000	0.000000	11.000000
1.140000	18.740000	49.670000	0.000000	0.000000	158.000000	52.000000	0.000000	0.000000
1.150000	18.740000	49.670000	0.000000	0.000000	158.000000	52.000000	0.000000	0.000000
1.160000	18.800000	50.000000	0.000000	0.000000	158.000000	52.000000	6.000000	33.000000
1.170000	18.800000	50.140000	0.000000	0.000000	158.000000	51.000000	0.000000	14.000000
1.180000	18.730000	50.300000	0.000000	0.000000	158.000000	51.000000	-7.000000	16.000000
1.190000	18.730000	50.300000	20.000000	1.000000	158.000000	51.000000	0.000000	0.000000
1.200000	18.730000	50.300000	30.000000	0.000000	158.000000	51.000000	0.000000	0.000000
1.210000	18.730000	50.300000	30.000000	0.000000	159.000000	50.000000	0.000000	0.000000
1.220000	18.730000	50.300000	34.000000	0.000000	157.000000	50.000000	0.000000	0.000000
1.230000	18.730000	50.300000	44.000000	0.000000	157.000000	50.000000	0.000000	0.000000
1.240000	18.730000	50.300000	51.000000	0.000000	157.000000	50.000000	0.000000	0.000000
1.250000	18.460000	50.250000	63.000000	0.000000	157.000000	50.000000	-27.000000	-5.000000
1.260000	18.400000	50.050000	88.000000	0.000000	157.000000	50.000000	-6.000000	-20.000000
1.270000	18.400000	49.720000	93.000000	0.000000	157.000000	50.000000	0.000000	-33.000000
1.280000	18.320000	49.310000	103.000000	0.000000	157.000000	50.000000	-8.000000	-41.000000
1.290000	18.230000	48.790000	110.000000	0.000000	157.000000	51.000000	-9.000000	-52.000000
1.300000	18.170000	48.230000	117.000000	0.000000	157.000000	51.000000	-6.000000	-56.000000
1.310000	18.170000	47.640000	141.000000	0.000000	157.000000	51.000000	0.000000	-59.000000
1.320000	18.170000	47.150000	137.000000	0.000000	156.000000	51.000000	0.000000	-49.000000
1.330000	18.170000	46.680000	161.000000	0.000000	156.000000	51.000000	0.000000	-47.000000
1.340000	18.280000	46.310000	180.000000	0.000000	156.000000	51.000000	11.000000	-37.000000
1.350000	18.440000	46.010000	185.000000	0.000000	155.000000	52.000000	16.000000	-30.000000
1.360000	18.650000	45.800000	220.000000	0.000000	156.000000	53.000000	21.000000	-21.000000
1.370000	18.850000	45.700000	233.000000	0.000000	156.000000	53.000000	20.000000	-10.000000
1.380000	19.040000	45.700000	249.000000	0.000000	155.000000	54.000000	19.000000	0.000000
1.390000	19.260000	45.700000	267.000000	0.000000	156.000000	55.000000	22.000000	0.000000
1.400000	19.600000	45.830000	280.000000	0.000000	155.000000	55.000000	34.000000	13.000000
1.410000	19.900000	45.970000	285.000000	0.000000	155.000000	55.000000	30.000000	14.000000
1.420000	20.130000	46.160000	285.000000	0.000000	155.000000	55.000000	23.000000	19.000000
1.430000	20.460000	46.400000	287.000000	0.000000	155.000000	55.000000	33.000000	24.000000
1.440000	20.660000	46.680000	273.000000	0.000000	155.000000	55.000000	20.000000	28.000000
1.450000	20.780000	47.000000	274.000000	0.000000	156.000000	55.000000	12.000000	32.000000
1.460000	20.870000	47.410000	274.000000	0.000000	156.000000	55.000000	9.000000	41.000000
1.470000	20.870000	47.880000	277.000000	0.000000	157.000000	54.000000	0.000000	47.000000
1.480000	20.870000	48.450000	273.000000	0.000000	158.000000	53.000000	0.000000	57.000000
1.490000	20.780000	49.110000	274.000000	0.000000	158.000000	53.000000	-9.000000	66.000000
1.500000	20.780000	49.830000	277.000000	0.000000	158.000000	52.000000	0.000000	72.000000
1.510000	20.780000	50.250000	281.000000	0.000000	158.000000	52.000000	0.000000	42.000000
1.520000	20.780000	50.510000	282.000000	0.000000	159.000000	51.000000	0.000000	26.000000
1.530000	20.780000	50.670000	281.000000	0.000000	159.000000	51.000000	0.000000	16.000000
1.540000	20.780000	50.670000	273.000000	0.000000	160.000000	50.000000	0.000000	0.000000
1.550000	20.780000	50.670000	287.000000	0.000000	159.000000	50.000000	0.000000	0.000000
1.560000	20.780000	50.670000	287.000000	0.000000	159.000000	50.000000	0.000000	0.000000
1.570000	20.780000	50.090000	285.000000	0.000000	159.000000	50.000000	0.000000	-58.000000
1.580000	20.780000	49.480000	282.000000	0.000000	159.000000	50.000000	0.000000	-61.000000
1.590000	20.780000	48.850000	257.000000	0.000000	160.000000	50.000000	0.000000	-63.000000
1.600000	20.780000	48.180000	220.000000	0.000000	160.000000	50.000000	0.000000	-67.000000
1.610000	20.840000	47.510000	130.000000	0.000000	159.000000	51.000000	6.000000	-67.000000
1.620000	20.840000	46.990000	1.000000	1.000000	159.000000	51.000000	0.000000	0.000000
1.630000	20.840000	46.990000	0.000000	0.000000	159.000000	51.000000	0.000000	0.000000
1.640000	20.650000	46.390000	0.000000	0.000000	158.000000	52.000000	-19.000000	-60.000000
1.650000	20.510000	46.390000	0.000000	0.000000	158.000000	53.000000	-14.000000	0.000000
1.660000	20.340000	46.510000	0.000000	0.000000	158.000000	53.000000	-17.000000	12.000000
1.670000	20.110000	46.740000	0.000000	0.000000	157.000000	54.000000	-23.000000	23.000000
1.680000	19.810000	47.010000	0.000000	0.000000	157.000000	54.000000	-30.000000	27.000000
1.690000	19.470000	47.240000	0.000000	0.000000	157.000000	54.000000	-34.000000	23.000000
1.700000	19.150000	47.390000	0.000000	0.000000	157.000000	54.000000	-32.000000	15.000000
1.710000	18.840000	47.480000	0.000000	0.000000	157.000000	54.000000	-31.000000	9.000000
1.720000	18.520000	47.550000	0.000000	0.000000	157.000000	54.000000	-32.000000	7.000000
1.730000	18.160000	47.550000	0.000000	0.000000	157.000000	54.000000	-36.000000	0.000000
1.740000	17.770000	47.600000	0.000000	0.000000	156.000000	53.000000	-39.000000	5.000000
1.750000	17.370000	47.600000	0.000000	0.000000	156.000000	53.000000	-40.000000	0.000000
1.760000	16.970000	47.600000	0.000000	0.000000	156.000000	53.000000	-40.000000	0.000000
1.770000	16.600000	47.540000	0.000000	0.000000	156.000000	53.000000	-37.000000	-6.000000
1.780000	16.310000	47.410000	0.000000	0.000000	157.000000	52.000000	-29.000000	-13.000000
1.790000	16.250000	47.220000	0.000000	0.000000	156.000000	51.000000	-6.000000	-19.000000
1.800000	16.250000	47.220000	94.000000	1.000000	155.000000	52.000000	0.000000	0.000000
1.810000	16.320000	46.940000	130.000000	0.000000	155.000000	52.000000	7.000000	-28.000000
1.820000	16.320000	46.990000	183.000000	0.000000	154.000000	52.000000	0.000000	5.000000
1.830000	16.390000	46.990000	279.000000	0.000000	154.000000	52.000000	7.000000	0.000000
1.840000	16.470000	46.990000	322.000000	0.000000	154.000000	52.000000	8.000000	0.000000
1.850000	16.550000	47.070000	329.000000	0.000000	153.000000	52.000000	8.000000	8.000000
1.860000	16.640000	47.070000	302.000000	0.000000	153.000000	52.000000	9.000000	0.000000
1.870000	16.640000	47.070000	144.000000	0.000000	153.000000	52.000000	0.000000	0.000000
1.880000	16.640000	47.070000	0.000000	1.000000	153.000000	52.000000	0.000000	0.000000
1.890000	16.570000	47.070000	0.000000	0.000000	153.000000	52.000000	-7.000000	0.000000
1.900000	16.440000	47.070000	0.000000	0.000000	153.000000	52.000000	-13.000000	0.000000
1.910000	16.260000	47.170000	0.000000	0.000000	153.000000	52.000000	-18.000000	10.000000
1.920000	16.260000	47.370000	0.000000	0.000000	153.000000	52.000000	0.000000	20.000000
1.930000	16.540000	47.370000	0.000000	0.000000	153.000000	52.000000	28.000000	0.000000
1.940000	16.990000	47.370000	0.000000	0.000000	153.000000	52.000000	45.000000	0.000000
1.950000	17.530000	47.250000	0.000000	0.000000	153.000000	51.000000	54.000000	-12.000000
1.960000	18.170000	47.090000	0.000000	0.000000	153.000000	51.000000	64.000000	-16.000000
1.970000	18.880000	46.940000	0.000000	0.000000	154.000000	50.000000	71.000000	-15.000000
1.980000	19.510000	46.820000	0.000000	0.000000	154.000000	49.000000	63.000000	-12.000000
1.990000	20.010000	46.660000	0.000000	0.000000	154.000000	49.000000	50.000000	-16.000000
2.000000	20.410000	46.500000	0.000000	0.000000	154.000000	49.000000	40.000000	-16.000000
2.010000	20.700000	46.350000	0.000000	0.000000	153.000000	48.000000	29.000000	-15.000000
2.020000	20.920000	46.200000	0.000000	0.000000	154.000000	49.000000	22.000000	-15.000000
2.030000	21.080000	46.010000	0.000000	0.000000	154.000000	49.000000	16.000000	-19.000000
2.040000	21.080000	45.790000	0.000000	0.000000	154.000000	49.000000	0.000000	-22.000000
2.050000	21.080000	46.080000	0.000000	0.000000	154.000000	50.000000	0.000000	29.000000
2.060000	20.990000	46.140000	0.000000	0.000000	154.000000	50.000000	-9.000000	6.000000
2.070000	20.850000	46.040000	0.000000	0.000000	155.000000	51.000000	-14.000000	-10.000000
2.080000	20.720000	46.040000	0.000000	0.000000	155.000000	51.000000	-13.000000	0.000000
2.090000	20.650000	46.040000	0.000000	0.000000	155.000000	52.000000	-7.000000	0.000000
2.100000	20.650000	46.150000	0.000000	0.000000	155.000000	52.000000	0.000000	11.000000
2.110000	20.650000	46.240000	0.000000	0.000000	155.000000	52.000000	0.000000	9.000000
2.120000	20.770000	46.330000	0.000000	0.000000	154.000000	53.000000	12.000000	9.000000
2.130000	20.850000	46.390000	0.000000	0.000000	154.000000	53.000000	8.000000	6.000000
2.140000	20.930000	46.460000	0.000000	0.000000	156.000000	53.000000	8.000000	7.000000
2.150000	20.930000	46.550000	0.000000	0.000000	156.000000	53.000000	0.000000	9.000000
2.160000	20.930000	46.660000	0.000000	0.000000	156.000000	53.000000	0.000000	11.000000
2.170000	20.930000	46.780000	0.000000	0.000000	156.000000	53.000000	0.000000	12.000000
2.180000	20.930000	46.900000	0.000000	0.000000	156.000000	53.000000	0.000000	12.000000
2.190000	20.930000	47.020000	0.000000	0.000000	156.000000	53.000000	0.000000	12.000000
2.200000	20.930000	47.150000	0.000000	0.000000	156.000000	53.000000	0.000000	13.000000
2.210000	20.880000	47.270000	0.000000	0.000000	156.000000	53.000000	-5.000000	12.000000
2.220000	20.880000	47.390000	0.000000	0.000000	156.000000	53.000000	0.000000	12.000000
2.230000	20.880000	47.480000	0.000000	0.000000	156.000000	53.000000	0.000000	9.000000
2.240000	20.880000	47.570000	0.000000	0.000000	156.000000	53.000000	0.000000	9.000000
2.250000	20.940000	47.660000	0.000000	0.000000	156.000000	53.000000	6.000000	9.000000
