t	x	y	pressure	penup	azimuth	inclination	v_x	v_y
0.000000	51.920000	67.280000	15.000000	1.000000	141.000000	55.000000	0.000000	0.000000
0.010000	51.970000	67.160000	36.000000	0.000000	140.000000	55.000000	5.000000	-12.000000
0.020000	51.900000	67.160000	50.000000	0.000000	140.000000	55.000000	-7.000000	0.000000
0.030000	51.900000	67.160000	98.000000	0.000000	139.000000	56.000000	0.000000	0.000000
0.040000	51.900000	67.160000	115.000000	0.000000	139.000000	56.000000	0.000000	0.000000
0.050000	51.900000	67.160000	144.000000	0.000000	139.000000	56.000000	0.000000	0.000000
0.060000	51.900000	67.160000	151.000000	0.000000	139.000000	56.000000	0.000000	0.000000
0.070000	51.900000	67.160000	187.000000	0.000000	139.000000	56.000000	0.000000	0.000000
0.080000	51.900000	67.160000	213.000000	0.000000	139.000000	56.000000	0.000000	0.000000
0.090000	51.900000	67.160000	254.000000	0.000000	139.000000	56.000000	0.000000	0.000000
0.100000	51.900000	67.160000	274.000000	0.000000	139.000000	56.000000	0.000000	0.000000
0.110000	52.290000	67.160000	310.000000	0.000000	139.000000	56.000000	39.000000	0.000000
0.120000	52.610000	67.210000	329.000000	0.000000	139.000000	56.000000	32.000000	5.000000
0.130000	53.030000	67.390000	337.000000	0.000000	139.000000	56.000000	42.000000	18.000000
0.140000	53.480000	67.630000	342.000000	0.000000	139.000000	56.000000	45.000000	24.000000
0.150000	53.930000	67.900000	339.000000	0.000000	139.000000	56.000000	45.000000	27.000000
0.160000	54.260000	68.240000	337.000000	0.000000	139.000000	56.000000	33.000000	34.000000
0.170000	54.500000	68.590000	327.000000	0.000000	140.000000	55.000000	24.000000	35.000000
0.180000	54.440000	68.960000	324.000000	0.000000	140.000000	55.000000	-6.000000	37.000000
0.190000	54.080000	69.170000	324.000000	0.000000	141.000000	55.000000	-36.000000	21.000000
0.200000	53.510000	69.170000	340.000000	0.000000	141.000000	55.000000	-57.000000	0.000000
0.210000	52.670000	69.040000	373.000000	0.000000	142.000000	54.000000	-84.000000	-13.000000
0.220000	51.720000	68.590000	381.000000	0.000000	142.000000	54.000000	-95.000000	-45.000000
0.230000	50.690000	68.100000	396.000000	0.000000	142.000000	54.000000	-103.000000	-49.000000
0.240000	50.000000	67.400000	402.000000	0.000000	144.000000	54.000000	-69.000000	-70.000000
0.250000	49.700000	66.580000	412.000000	0.000000	144.000000	54.000000	-30.000000	-82.000000
0.260000	49.700000	65.910000	418.000000	0.000000	144.000000	54.000000	0.000000	-67.000000
0.270000	49.860000	65.410000	415.000000	0.000000	143.000000	55.000000	16.000000	-50.000000
0.280000	50.370000	65.020000	435.000000	0.000000	143.000000	55.000000	51.000000	-39.000000
0.290000	51.080000	64.830000	450.000000	0.000000	141.000000	56.000000	71.000000	-19.000000
0.300000	52.220000	65.100000	458.000000	0.000000	141.000000	56.000000	114.000000	27.000000
0.310000	53.330000	65.670000	458.000000	0.000000	140.000000	56.000000	111.000000	57.000000
0.320000	54.420000	66.250000	431.000000	0.000000	140.000000	56.000000	109.000000	58.000000
0.330000	54.760000	66.450000	256.000000	0.000000	139.000000	56.000000	34.000000	20.000000
0.340000	54.760000	66.450000	0.000000	1.000000	139.000000	56.000000	0.000000	0.000000
0.350000	54.410000	66.250000	0.000000	0.000000	140.000000	55.000000	-35.000000	-20.000000
0.360000	53.820000	66.080000	0.000000	0.000000	140.000000	55.000000	-59.000000	-17.000000
0.370000	53.230000	66.080000	0.000000	0.000000	140.000000	55.000000	-59.000000	0.000000
0.380000	53.230000	66.240000	0.000000	0.000000	140.000000	55.000000	0.000000	16.000000
0.390000	53.570000	66.420000	0.000000	0.000000	141.000000	55.000000	34.000000	18.000000
0.400000	54.280000	66.570000	0.000000	0.000000	142.000000	54.000000	71.000000	15.000000
0.410000	54.840000	66.570000	0.000000	0.000000	143.000000	53.000000	56.000000	0.000000
0.420000	55.290000	66.430000	0.000000	0.000000	143.000000	52.000000	45.000000	-14.000000
0.430000	55.570000	66.140000	0.000000	0.000000	144.000000	51.000000	28.000000	-29.000000
0.440000	55.570000	66.140000	619.000000	1.000000	144.000000	51.000000	0.000000	0.000000
0.450000	55.670000	65.520000	644.000000	0.000000	146.000000	52.000000	10.000000	-62.000000
0.460000	55.330000	65.520000	645.000000	0.000000	145.000000	53.000000	-34.000000	0.000000
0.470000	55.330000	65.740000	641.000000	0.000000	143.000000	53.000000	0.000000	22.000000
0.480000	55.440000	65.660000	638.000000	0.000000	142.000000	54.000000	11.000000	-8.000000
0.490000	55.440000	65.660000	556.000000	0.000000	141.000000	55.000000	0.000000	0.000000
0.500000	55.440000	65.660000	233.000000	0.000000	140.000000	55.000000	0.000000	0.000000
0.510000	55.440000	65.660000	0.000000	1.000000	139.000000	56.000000	0.000000	0.000000
0.520000	55.440000	65.830000	0.000000	0.000000	139.000000	56.000000	0.000000	17.000000
0.530000	55.440000	66.080000	0.000000	0.000000	140.000000	56.000000	0.000000	25.000000
0.540000	55.120000	66.350000	0.000000	0.000000	140.000000	56.000000	-32.000000	27.000000
0.550000	55.120000	66.620000	0.000000	0.000000	140.000000	56.000000	0.000000	27.000000
0.560000	55.280000	66.900000	0.000000	0.000000	141.000000	56.000000	16.000000	28.000000
0.570000	55.470000	67.190000	0.000000	0.000000	145.000000	55.000000	19.000000	29.000000
0.580000	55.790000	67.260000	0.000000	0.000000	146.000000	54.000000	32.000000	7.000000
0.590000	56.250000	67.260000	0.000000	0.000000	148.000000	53.000000	46.000000	0.000000
0.600000	56.750000	67.160000	0.000000	0.000000	149.000000	52.000000	50.000000	-10.000000
0.610000	57.150000	67.160000	0.000000	0.000000	150.000000	51.000000	40.000000	0.000000
0.620000	57.560000	67.260000	0.000000	0.000000	151.000000	50.000000	41.000000	10.000000
0.630000	58.030000	67.380000	0.000000	0.000000	151.000000	50.000000	47.000000	12.000000
0.640000	58.550000	67.600000	0.000000	0.000000	154.000000	49.000000	52.000000	22.000000
0.650000	58.710000	67.700000	0.000000	0.000000	155.000000	47.000000	16.000000	10.000000
0.660000	58.530000	67.700000	0.000000	0.000000	157.000000	46.000000	-18.000000	0.000000
0.670000	58.120000	67.210000	0.000000	0.000000	158.000000	44.000000	-41.000000	-49.000000
0.680000	57.960000	66.770000	0.000000	0.000000	157.000000	43.000000	-16.000000	-44.000000
0.690000	58.090000	66.370000	0.000000	0.000000	156.000000	40.000000	13.000000	-40.000000
0.700000	58.410000	66.230000	0.000000	0.000000	153.000000	39.000000	32.000000	-14.000000
0.710000	58.520000	66.060000	0.000000	0.000000	150.000000	36.000000	11.000000	-17.000000
0.720000	58.370000	65.850000	0.000000	0.000000	149.000000	35.000000	-15.000000	-21.000000
0.730000	58.050000	65.630000	0.000000	0.000000	148.000000	34.000000	-32.000000	-22.000000
0.740000	57.740000	65.480000	0.000000	0.000000	148.000000	34.000000	-31.000000	-15.000000
0.750000	57.450000	65.380000	0.000000	0.000000	148.000000	34.000000	-29.000000	-10.000000
0.760000	57.230000	65.380000	0.000000	0.000000	148.000000	34.000000	-22.000000	0.000000
0.770000	57.070000	65.730000	0.000000	0.000000	145.000000	34.000000	-16.000000	35.000000
0.780000	56.740000	66.220000	0.000000	0.000000	143.000000	35.000000	-33.000000	49.000000
0.790000	56.310000	66.430000	0.000000	0.000000	140.000000	36.000000	-43.000000	21.000000
0.800000	55.990000	66.540000	0.000000	0.000000	139.000000	37.000000	-32.000000	11.000000
0.810000	55.680000	66.590000	0.000000	0.000000	141.000000	39.000000	-31.000000	5.000000
0.820000	55.610000	66.290000	0.000000	0.000000	142.000000	41.000000	-7.000000	-30.000000
0.830000	55.680000	65.990000	0.000000	0.000000	144.000000	44.000000	7.000000	-30.000000
0.840000	55.680000	65.920000	0.000000	0.000000	147.000000	46.000000	0.000000	-7.000000
0.850000	55.680000	66.000000	0.000000	0.000000	148.000000	48.000000	0.000000	8.000000
0.860000	55.680000	66.190000	0.000000	0.000000	150.000000	50.000000	0.000000	19.000000
0.870000	55.790000	66.300000	0.000000	0.000000	150.000000	51.000000	11.000000	11.000000
0.880000	55.920000	66.350000	0.000000	0.000000	148.000000	51.000000	13.000000	5.000000
0.890000	56.110000	66.870000	0.000000	0.000000	147.000000	52.000000	19.000000	52.000000
0.900000	56.350000	67.270000	0.000000	0.000000	148.000000	53.000000	24.000000	40.000000
0.910000	56.580000	67.600000	0.000000	0.000000	147.000000	53.000000	23.000000	33.000000
0.920000	56.810000	68.060000	0.000000	0.000000	147.000000	53.000000	23.000000	46.000000
0.930000	57.080000	68.560000	0.000000	0.000000	148.000000	54.000000	27.000000	50.000000
0.940000	57.310000	69.080000	0.000000	0.000000	148.000000	54.000000	23.000000	52.000000
0.950000	57.430000	69.460000	0.000000	0.000000	148.000000	54.000000	12.000000	38.000000
0.960000	57.430000	69.460000	141.000000	1.000000	148.000000	54.000000	0.000000	0.000000
0.970000	57.490000	69.850000	131.000000	0.000000	148.000000	54.000000	6.000000	39.000000
0.980000	57.250000	69.990000	181.000000	0.000000	148.000000	54.000000	-24.000000	14.000000
0.990000	57.140000	70.070000	249.000000	0.000000	148.000000	54.000000	-11.000000	8.000000
1.000000	57.140000	70.070000	265.000000	0.000000	148.000000	54.000000	0.000000	0.000000
1.010000	57.090000	70.010000	284.000000	0.000000	148.000000	54.000000	-5.000000	-6.000000
1.020000	56.940000	69.500000	314.000000	0.000000	148.000000	54.000000	-15.000000	-51.000000
1.030000	56.710000	68.680000	335.000000	0.000000	147.000000	53.000000	-23.000000	-82.000000
1.040000	56.540000	67.790000	345.000000	0.000000	147.000000	53.000000	-17.000000	-89.000000
1.050000	56.480000	67.100000	336.000000	0.000000	146.000000	54.000000	-6.000000	-69.000000
1.060000	56.480000	66.540000	339.000000	0.000000	146.000000	54.000000	0.000000	-56.000000
1.070000	56.590000	66.160000	339.000000	0.000000	144.000000	54.000000	11.000000	-38.000000
1.080000	56.710000	65.970000	343.000000	0.000000	143.000000	55.000000	12.000000	-19.000000
1.090000	56.850000	65.920000	341.000000	0.000000	143.000000	55.000000	14.000000	-5.000000
1.100000	57.190000	66.030000	334.000000	0.000000	141.000000	56.000000	34.000000	11.000000
1.110000	57.670000	66.450000	345.000000	0.000000	141.000000	56.000000	48.000000	42.000000
1.120000	58.300000	67.080000	333.000000	0.000000	142.000000	57.000000	63.000000	63.000000
1.130000	58.700000	67.790000	334.000000	0.000000	142.000000	57.000000	40.000000	71.000000
1.140000	58.940000	68.500000	341.000000	0.000000	143.000000	56.000000	24.000000	71.000000
1.150000	59.110000	69.330000	349.000000	0.000000	144.000000	57.000000	17.000000	83.000000
1.160000	59.220000	70.230000	361.000000	0.000000	147.000000	56.000000	11.000000	90.000000
1.170000	59.300000	70.700000	397.000000	0.000000	147.000000	56.000000	8.000000	47.000000
1.180000	59.300000	70.780000	400.000000	0.000000	149.000000	56.000000	0.000000	8.000000
1.190000	59.300000	70.590000	415.000000	0.000000	150.000000	55.000000	0.000000	-19.000000
1.200000	59.220000	70.470000	418.000000	0.000000	153.000000	55.000000	-8.000000	-12.000000
1.210000	59.110000	69.670000	438.000000	0.000000	153.000000	55.000000	-11.000000	-80.000000
1.220000	58.970000	68.430000	448.000000	0.000000	153.000000	54.000000	-14.000000	-124.000000
1.230000	58.800000	67.650000	439.000000	0.000000	153.000000	55.000000	-17.000000	-78.000000
1.240000	58.630000	66.970000	440.000000	0.000000	153.000000	55.000000	-17.000000	-68.000000
1.250000	58.630000	66.370000	440.000000	0.000000	152.000000	56.000000	0.000000	-60.000000
1.260000	58.730000	66.020000	441.000000	0.000000	149.000000	56.000000	10.000000	-35.000000
1.270000	58.930000	65.860000	422.000000	0.000000	149.000000	56.000000	20.000000	-16.000000
1.280000	59.150000	65.860000	413.000000	0.000000	148.000000	57.000000	22.000000	0.000000
1.290000	59.430000	65.990000	392.000000	0.000000	146.000000	57.000000	28.000000	13.000000
1.300000	59.730000	66.310000	396.000000	0.000000	146.000000	57.000000	30.000000	32.000000
1.310000	59.990000	66.730000	389.000000	0.000000	146.000000	58.000000	26.000000	42.000000
1.320000	60.120000	67.070000	384.000000	0.000000	146.000000	58.000000	13.000000	34.000000
1.330000	60.170000	67.380000	384.000000	0.000000	146.000000	58.000000	5.000000	31.000000
1.340000	60.170000	67.600000	381.000000	0.000000	146.000000	58.000000	0.000000	22.000000
1.350000	60.170000	67.730000	382.000000	0.000000	146.000000	58.000000	0.000000	13.000000
1.360000	60.170000	67.780000	377.000000	0.000000	146.000000	58.000000	0.000000	5.000000
1.370000	60.170000	67.780000	371.000000	0.000000	147.000000	58.000000	0.000000	0.000000
1.380000	60.170000	67.780000	367.000000	0.000000	147.000000	58.000000	0.000000	0.000000
1.390000	60.170000	67.680000	364.000000	0.000000	147.000000	58.000000	0.000000	-10.000000
1.400000	60.170000	67.540000	343.000000	0.000000	147.000000	58.000000	0.000000	-14.000000
1.410000	60.170000	67.410000	314.000000	0.000000	148.000000	57.000000	0.000000	-13.000000
1.420000	60.170000	67.300000	291.000000	0.000000	148.000000	57.000000	0.000000	-11.000000
1.430000	60.170000	67.230000	277.000000	0.000000	148.000000	57.000000	0.000000	-7.000000
1.440000	60.230000	67.170000	285.000000	0.000000	147.000000	58.000000	6.000000	-6.000000
1.450000	60.230000	67.110000	282.000000	0.000000	147.000000	58.000000	0.000000	-6.000000
1.460000	60.230000	67.030000	280.000000	0.000000	147.000000	58.000000	0.000000	-8.000000
1.470000	60.230000	66.960000	280.000000	0.000000	146.000000	58.000000	0.000000	-7.000000
1.480000	60.300000	66.880000	280.000000	0.000000	146.000000	58.000000	7.000000	-8.000000
1.490000	60.300000	66.800000	244.000000	0.000000	146.000000	58.000000	0.000000	-8.000000
1.500000	60.300000	66.730000	210.000000	0.000000	146.000000	58.000000	0.000000	-7.000000
1.510000	60.300000	66.640000	175.000000	0.000000	146.000000	58.000000	0.000000	-9.000000
1.520000	60.300000	66.520000	136.000000	0.000000	146.000000	58.000000	0.000000	-12.000000
1.530000	60.300000	66.390000	132.000000	0.000000	146.000000	58.000000	0.000000	-13.000000
1.540000	60.240000	66.240000	134.000000	0.000000	146.000000	58.000000	-6.000000	-15.000000
1.550000	60.180000	66.150000	134.000000	0.000000	146.000000	58.000000	-6.000000	-9.000000
1.560000	60.180000	66.090000	141.000000	0.000000	146.000000	58.000000	0.000000	-6.000000
1.570000	60.130000	66.090000	149.000000	0.000000	146.000000	58.000000	-5.000000	0.000000
1.580000	60.130000	66.090000	167.000000	0.000000	146.000000	58.000000	0.000000	0.000000
1.590000	60.130000	66.150000	173.000000	0.000000	146.000000	58.000000	0.000000	6.000000
1.600000	60.130000	66.320000	171.000000	0.000000	146.000000	58.000000	0.000000	17.000000
1.610000	60.130000	66.540000	180.000000	0.000000	146.000000	58.000000	0.000000	22.000000
1.620000	60.130000	66.790000	190.000000	0.000000	146.000000	58.000000	0.000000	25.000000
1.630000	60.280000	67.090000	193.000000	0.000000	146.000000	58.000000	15.000000	30.000000
1.640000	60.490000	67.360000	212.000000	0.000000	146.000000	58.000000	21.000000	27.000000
1.650000	60.710000	67.570000	216.000000	0.000000	146.000000	58.000000	22.000000	21.000000
1.660000	60.710000	67.570000	233.000000	0.000000	146.000000	58.000000	0.000000	0.000000
1.670000	61.170000	67.690000	239.000000	0.000000	146.000000	58.000000	46.000000	12.000000
1.680000	61.420000	67.690000	237.000000	0.000000	147.000000	58.000000	25.000000	0.000000
1.690000	61.590000	67.600000	244.000000	0.000000	147.000000	58.000000	17.000000	-9.000000
1.700000	61.710000	67.450000	244.000000	0.000000	147.000000	58.000000	12.000000	-15.000000
1.710000	61.990000	67.390000	244.000000	0.000000	147.000000	58.000000	28.000000	-6.000000
1.720000	62.310000	67.390000	246.000000	0.000000	147.000000	56.000000	32.000000	0.000000
1.730000	62.680000	67.470000	246.000000	0.000000	147.000000	56.000000	37.000000	8.000000
1.740000	62.940000	67.610000	244.000000	0.000000	146.000000	57.000000	26.000000	14.000000
1.750000	63.120000	67.780000	247.000000	0.000000	146.000000	57.000000	18.000000	17.000000
1.760000	63.190000	67.940000	249.000000	0.000000	144.000000	57.000000	7.000000	16.000000
1.770000	63.140000	68.100000	241.000000	0.000000	144.000000	57.000000	-5.000000	16.000000
1.780000	63.010000	68.250000	274.000000	0.000000	144.000000	57.000000	-13.000000	15.000000
1.790000	62.810000	68.370000	289.000000	0.000000	144.000000	57.000000	-20.000000	12.000000
1.800000	62.610000	68.370000	304.000000	0.000000	145.000000	56.000000	-20.000000	0.000000
1.810000	62.400000	68.370000	315.000000	0.000000	145.000000	56.000000	-21.000000	0.000000
1.820000	62.230000	68.200000	325.000000	0.000000	145.000000	56.000000	-17.000000	-17.000000
1.830000	62.020000	67.770000	334.000000	0.000000	145.000000	56.000000	-21.000000	-43.000000
1.840000	61.790000	67.160000	349.000000	0.000000	145.000000	56.000000	-23.000000	-61.000000
1.850000	61.850000	66.740000	358.000000	0.000000	145.000000	56.000000	6.000000	-42.000000
1.860000	61.970000	66.450000	353.000000	0.000000	144.000000	57.000000	12.000000	-29.000000
1.870000	62.220000	66.240000	329.000000	0.000000	144.000000	57.000000	25.000000	-21.000000
1.880000	62.550000	66.180000	215.000000	0.000000	144.000000	57.000000	33.000000	-6.000000
1.890000	62.550000	66.180000	0.000000	1.000000	143.000000	57.000000	0.000000	0.000000
1.900000	63.340000	66.400000	0.000000	0.000000	143.000000	57.000000	79.000000	22.000000
1.910000	63.580000	66.640000	0.000000	0.000000	143.000000	57.000000	24.000000	24.000000
1.920000	63.720000	66.860000	0.000000	0.000000	142.000000	57.000000	14.000000	22.000000
1.930000	63.720000	67.050000	0.000000	0.000000	142.000000	57.000000	0.000000	19.000000
1.940000	63.870000	67.240000	0.000000	0.000000	142.000000	57.000000	15.000000	19.000000
1.950000	64.160000	67.410000	0.000000	0.000000	143.000000	56.000000	29.000000	17.000000
1.960000	64.540000	67.520000	0.000000	0.000000	143.000000	56.000000	38.000000	11.000000
1.970000	64.770000	67.520000	0.000000	0.000000	144.000000	56.000000	23.000000	0.000000
1.980000	64.820000	67.440000	0.000000	0.000000	144.000000	56.000000	5.000000	-8.000000
1.990000	64.750000	67.350000	0.000000	0.000000	145.000000	55.000000	-7.000000	-9.000000
2.000000	64.630000	67.260000	0.000000	0.000000	145.000000	55.000000	-12.000000	-9.000000
2.010000	64.450000	67.160000	0.000000	0.000000	146.000000	54.000000	-18.000000	-10.000000
2.020000	64.240000	67.050000	0.000000	0.000000	146.000000	54.000000	-21.000000	-11.000000
2.030000	64.160000	66.950000	0.000000	0.000000	146.000000	54.000000	-8.000000	-10.000000
2.040000	64.070000	66.830000	0.000000	0.000000	146.000000	54.000000	-9.000000	-12.000000
2.050000	63.990000	66.710000	0.000000	0.000000	145.000000	55.000000	-8.000000	-12.000000
2.060000	63.920000	66.580000	0.000000	0.000000	145.000000	55.000000	-7.000000	-13.000000
2.070000	63.920000	66.500000	0.000000	0.000000	145.000000	55.000000	0.000000	-8.000000
2.080000	63.920000	66.440000	0.000000	0.000000	144.000000	56.000000	0.000000	-6.000000
2.090000	63.970000	66.440000	0.000000	0.000000	144.000000	56.000000	5.000000	0.000000
2.100000	63.970000	66.440000	18.000000	1.000000	143.000000	56.000000	0.000000	0.000000
2.110000	63.970000	66.440000	63.000000	0.000000	143.000000	56.000000	0.000000	0.000000
2.120000	63.970000	66.440000	99.000000	0.000000	142.000000	57.000000	0.000000	0.000000
2.130000	63.970000	66.440000	129.000000	0.000000	142.000000	57.000000	0.000000	0.000000
2.140000	64.240000	66.780000	155.000000	0.000000	142.000000	57.000000	27.000000	34.000000
2.150000	64.340000	66.990000	175.000000	0.000000	143.000000	57.000000	10.000000	21.000000
2.160000	64.410000	67.230000	210.000000	0.000000	143.000000	57.000000	7.000000	24.000000
2.170000	64.490000	67.480000	239.000000	0.000000	143.000000	57.000000	8.000000	25.000000
2.180000	64.490000	67.670000	267.000000	0.000000	143.000000	57.000000	0.000000	19.000000
2.190000	64.490000	67.820000	309.000000	0.000000	143.000000	57.000000	0.000000	15.000000
2.200000	64.490000	67.820000	319.000000	0.000000	143.000000	57.000000	0.000000	0.000000
2.210000	64.490000	67.820000	322.000000	0.000000	143.000000	57.000000	0.000000	0.000000
2.220000	64.490000	67.820000	325.000000	0.000000	143.000000	57.000000	0.000000	0.000000
