t	x	y	pressure	penup	azimuth	inclination	v_x	v_y
0.000000	53.490000	62.520000	29.000000	1.000000	155.000000	52.000000	0.000000	0.000000
0.010000	53.490000	62.520000	75.000000	0.000000	155.000000	52.000000	0.000000	0.000000
0.020000	53.490000	62.520000	117.000000	0.000000	155.000000	52.000000	0.000000	0.000000
0.030000	53.490000	62.520000	160.000000	0.000000	155.000000	52.000000	0.000000	0.000000
0.040000	53.490000	62.520000	185.000000	0.000000	155.000000	52.000000	0.000000	0.000000
0.050000	53.790000	62.810000	212.000000	0.000000	155.000000	52.000000	30.000000	29.000000
0.060000	54.040000	62.960000	235.000000	0.000000	155.000000	52.000000	25.000000	15.000000
0.070000	54.390000	63.150000	253.000000	0.000000	155.000000	52.000000	35.000000	19.000000
0.080000	54.720000	63.360000	262.000000	0.000000	155.000000	52.000000	33.000000	21.000000
0.090000	55.020000	63.630000	274.000000	0.000000	155.000000	52.000000	30.000000	27.000000
0.100000	55.260000	63.900000	284.000000	0.000000	155.000000	52.000000	24.000000	27.000000
0.110000	55.420000	64.160000	273.000000	0.000000	155.000000	52.000000	16.000000	26.000000
0.120000	55.520000	64.400000	286.000000	0.000000	155.000000	52.000000	10.000000	24.000000
0.130000	55.520000	64.620000	309.000000	0.000000	155.000000	52.000000	0.000000	22.000000
0.140000	55.280000	64.770000	311.000000	0.000000	155.000000	52.000000	-24.000000	15.000000
0.150000	54.960000	64.860000	317.000000	0.000000	155.000000	52.000000	-32.000000	9.000000
0.160000	54.340000	64.680000	309.000000	0.000000	155.000000	52.000000	-62.000000	-18.000000
0.170000	53.490000	64.340000	307.000000	0.000000	155.000000	52.000000	-85.000000	-34.000000
0.180000	52.480000	63.670000	314.000000	0.000000	156.000000	53.000000	-101.000000	-67.000000
0.190000	51.540000	62.990000	342.000000	0.000000	156.000000	53.000000	-94.000000	-68.000000
0.200000	50.920000	62.330000	351.000000	0.000000	156.000000	53.000000	-62.000000	-66.000000
0.210000	50.500000	61.690000	366.000000	0.000000	156.000000	53.000000	-42.000000	-64.000000
0.220000	50.270000	61.030000	389.000000	0.000000	158.000000	53.000000	-23.000000	-66.000000
0.230000	50.270000	60.360000	398.000000	0.000000	158.000000	53.000000	0.000000	-67.000000
0.240000	50.360000	59.840000	391.000000	0.000000	157.000000	54.000000	9.000000	-52.000000
0.250000	50.730000	59.420000	398.000000	0.000000	157.000000	54.000000	37.000000	-42.000000
0.260000	51.280000	59.110000	379.000000	0.000000	157.000000	54.000000	55.000000	-31.000000
0.270000	51.960000	59.030000	302.000000	0.000000	156.000000	55.000000	68.000000	-8.000000
0.280000	52.770000	59.100000	153.000000	0.000000	156.000000	55.000000	81.000000	7.000000
0.290000	52.770000	59.100000	0.000000	1.000000	156.000000	55.000000	0.000000	0.000000
0.300000	54.120000	59.510000	0.000000	0.000000	156.000000	55.000000	135.000000	41.000000
0.310000	54.630000	59.810000	0.000000	0.000000	155.000000	54.000000	51.000000	30.000000
0.320000	54.990000	60.210000	0.000000	0.000000	155.000000	54.000000	36.000000	40.000000
0.330000	55.250000	60.550000	0.000000	0.000000	155.000000	54.000000	26.000000	34.000000
0.340000	55.460000	60.790000	0.000000	0.000000	153.000000	54.000000	21.000000	24.000000
0.350000	55.520000	60.790000	0.000000	0.000000	153.000000	54.000000	6.000000	0.000000
0.360000	55.520000	60.790000	208.000000	1.000000	153.000000	54.000000	0.000000	0.000000
0.370000	55.520000	60.790000	285.000000	0.000000	153.000000	54.000000	0.000000	0.000000
0.380000	55.520000	60.790000	337.000000	0.000000	153.000000	54.000000	0.000000	0.000000
0.390000	55.520000	60.790000	441.000000	0.000000	153.000000	54.000000	0.000000	0.000000
0.400000	55.520000	60.790000	468.000000	0.000000	153.000000	54.000000	0.000000	0.000000
0.410000	55.360000	60.950000	461.000000	0.000000	153.000000	54.000000	-16.000000	16.000000
0.420000	55.360000	60.950000	441.000000	0.000000	153.000000	54.000000	0.000000	0.000000
0.430000	55.490000	60.950000	294.000000	0.000000	154.000000	53.000000	13.000000	0.000000
0.440000	55.720000	60.900000	1.000000	1.000000	154.000000	53.000000	0.000000	0.000000
0.450000	55.720000	60.900000	0.000000	0.000000	156.000000	53.000000	0.000000	0.000000
0.460000	56.450000	60.980000	0.000000	0.000000	156.000000	53.000000	73.000000	8.000000
0.470000	56.890000	61.260000	0.000000	0.000000	156.000000	53.000000	44.000000	28.000000
0.480000	57.470000	61.600000	0.000000	0.000000	157.000000	54.000000	58.000000	34.000000
0.490000	58.130000	61.940000	0.000000	0.000000	157.000000	54.000000	66.000000	34.000000
0.500000	58.700000	62.260000	0.000000	0.000000	157.000000	54.000000	57.000000	32.000000
0.510000	59.150000	62.430000	0.000000	0.000000	157.000000	54.000000	45.000000	17.000000
0.520000	59.510000	62.520000	0.000000	0.000000	157.000000	54.000000	36.000000	9.000000
0.530000	59.730000	62.520000	0.000000	0.000000	157.000000	54.000000	22.000000	0.000000
0.540000	59.790000	62.520000	0.000000	0.000000	157.000000	54.000000	6.000000	0.000000
0.550000	59.730000	62.440000	0.000000	0.000000	157.000000	54.000000	-6.000000	-8.000000
0.560000	59.560000	62.310000	0.000000	0.000000	157.000000	54.000000	-17.000000	-13.000000
0.570000	59.410000	62.310000	0.000000	0.000000	159.000000	53.000000	-15.000000	0.000000
0.580000	59.290000	62.310000	0.000000	0.000000	159.000000	53.000000	-12.000000	0.000000
0.590000	59.220000	62.450000	0.000000	0.000000	159.000000	53.000000	-7.000000	14.000000
0.600000	59.160000	62.630000	0.000000	0.000000	160.000000	53.000000	-6.000000	18.000000
0.610000	59.160000	62.840000	0.000000	0.000000	162.000000	54.000000	0.000000	21.000000
0.620000	59.110000	63.020000	0.000000	0.000000	162.000000	54.000000	-5.000000	18.000000
0.630000	59.110000	63.230000	0.000000	0.000000	163.000000	54.000000	0.000000	21.000000
0.640000	59.110000	63.460000	0.000000	0.000000	163.000000	54.000000	0.000000	23.000000
0.650000	59.110000	63.460000	68.000000	1.000000	163.000000	54.000000	0.000000	0.000000
0.660000	58.970000	64.090000	107.000000	0.000000	163.000000	54.000000	-14.000000	63.000000
0.670000	58.910000	64.430000	148.000000	0.000000	163.000000	54.000000	-6.000000	34.000000
0.680000	58.830000	64.600000	195.000000	0.000000	163.000000	54.000000	-8.000000	17.000000
0.690000	58.680000	64.600000	206.000000	0.000000	163.000000	54.000000	-15.000000	0.000000
0.700000	58.490000	64.540000	267.000000	0.000000	163.000000	54.000000	-19.000000	-6.000000
0.710000	58.210000	64.180000	306.000000	0.000000	162.000000	54.000000	-28.000000	-36.000000
0.720000	57.950000	63.610000	343.000000	0.000000	162.000000	54.000000	-26.000000	-57.000000
0.730000	57.750000	62.900000	374.000000	0.000000	162.000000	54.000000	-20.000000	-71.000000
0.740000	57.640000	62.170000	393.000000	0.000000	162.000000	54.000000	-11.000000	-73.000000
0.750000	57.710000	61.490000	389.000000	0.000000	160.000000	53.000000	7.000000	-68.000000
0.760000	57.880000	60.900000	392.000000	0.000000	160.000000	54.000000	17.000000	-59.000000
0.770000	58.040000	60.360000	397.000000	0.000000	160.000000	54.000000	16.000000	-54.000000
0.780000	58.320000	59.960000	402.000000	0.000000	160.000000	54.000000	28.000000	-40.000000
0.790000	58.680000	59.830000	409.000000	0.000000	160.000000	54.000000	36.000000	-13.000000
0.800000	59.180000	59.890000	412.000000	0.000000	160.000000	55.000000	50.000000	6.000000
0.810000	59.680000	60.130000	405.000000	0.000000	160.000000	55.000000	50.000000	24.000000
0.820000	60.200000	60.610000	396.000000	0.000000	160.000000	55.000000	52.000000	48.000000
0.830000	60.610000	61.260000	392.000000	0.000000	160.000000	55.000000	41.000000	65.000000
0.840000	60.950000	61.870000	394.000000	0.000000	162.000000	56.000000	34.000000	61.000000
0.850000	61.180000	62.460000	396.000000	0.000000	162.000000	56.000000	23.000000	59.000000
0.860000	61.240000	62.980000	409.000000	0.000000	162.000000	56.000000	6.000000	52.000000
0.870000	61.180000	63.330000	418.000000	0.000000	164.000000	55.000000	-6.000000	35.000000
0.880000	61.100000	63.580000	425.000000	0.000000	164.000000	55.000000	-8.000000	25.000000
0.890000	61.030000	63.690000	420.000000	0.000000	164.000000	55.000000	-7.000000	11.000000
0.900000	60.980000	63.770000	420.000000	0.000000	164.000000	54.000000	-5.000000	8.000000
0.910000	60.980000	63.770000	448.000000	0.000000	164.000000	54.000000	0.000000	0.000000
0.920000	60.980000	63.410000	460.000000	0.000000	164.000000	54.000000	0.000000	-36.000000
0.930000	61.060000	62.820000	464.000000	0.000000	164.000000	54.000000	8.000000	-59.000000
0.940000	61.140000	62.070000	468.000000	0.000000	164.000000	54.000000	8.000000	-75.000000
0.950000	61.260000	61.380000	467.000000	0.000000	164.000000	54.000000	12.000000	-69.000000
0.960000	61.420000	60.740000	464.000000	0.000000	164.000000	54.000000	16.000000	-64.000000
0.970000	61.570000	60.300000	435.000000	0.000000	164.000000	55.000000	15.000000	-44.000000
0.980000	61.700000	59.970000	241.000000	0.000000	164.000000	55.000000	13.000000	-33.000000
0.990000	61.700000	59.970000	0.000000	1.000000	164.000000	55.000000	0.000000	0.000000
1.000000	61.880000	59.580000	0.000000	0.000000	163.000000	56.000000	18.000000	-39.000000
1.010000	61.880000	59.710000	0.000000	0.000000	162.000000	56.000000	0.000000	13.000000
1.020000	62.040000	60.020000	0.000000	0.000000	162.000000	56.000000	16.000000	31.000000
1.030000	62.210000	60.290000	0.000000	0.000000	162.000000	56.000000	17.000000	27.000000
1.040000	62.390000	60.530000	0.000000	0.000000	162.000000	56.000000	18.000000	24.000000
1.050000	62.540000	60.600000	0.000000	0.000000	160.000000	55.000000	15.000000	7.000000
1.060000	62.650000	60.600000	0.000000	0.000000	160.000000	55.000000	11.000000	0.000000
1.070000	62.650000	60.600000	155.000000	1.000000	160.000000	55.000000	0.000000	0.000000
1.080000	62.730000	60.530000	171.000000	0.000000	160.000000	55.000000	8.000000	-7.000000
1.090000	62.730000	60.680000	182.000000	0.000000	160.000000	55.000000	0.000000	15.000000
1.100000	62.730000	60.680000	175.000000	0.000000	160.000000	55.000000	0.000000	0.000000
1.110000	62.730000	60.680000	246.000000	0.000000	160.000000	55.000000	0.000000	0.000000
1.120000	62.810000	60.620000	297.000000	0.000000	160.000000	55.000000	8.000000	-6.000000
1.130000	62.810000	60.380000	335.000000	0.000000	160.000000	55.000000	0.000000	-24.000000
1.140000	62.810000	60.040000	353.000000	0.000000	161.000000	55.000000	0.000000	-34.000000
1.150000	62.930000	59.760000	359.000000	0.000000	160.000000	55.000000	12.000000	-28.000000
1.160000	63.010000	59.600000	363.000000	0.000000	160.000000	55.000000	8.000000	-16.000000
1.170000	63.070000	59.510000	364.000000	0.000000	160.000000	55.000000	6.000000	-9.000000
1.180000	63.120000	59.510000	343.000000	0.000000	160.000000	55.000000	5.000000	0.000000
1.190000	63.270000	59.630000	305.000000	0.000000	160.000000	55.000000	15.000000	12.000000
1.200000	63.460000	59.880000	279.000000	0.000000	160.000000	55.000000	19.000000	25.000000
1.210000	63.750000	60.240000	260.000000	0.000000	160.000000	55.000000	29.000000	36.000000
1.220000	64.090000	60.570000	257.000000	0.000000	160.000000	55.000000	34.000000	33.000000
1.230000	64.450000	60.850000	241.000000	0.000000	160.000000	55.000000	36.000000	28.000000
1.240000	64.840000	61.060000	247.000000	0.000000	160.000000	55.000000	39.000000	21.000000
1.250000	65.120000	61.180000	259.000000	0.000000	160.000000	55.000000	28.000000	12.000000
1.260000	65.320000	61.300000	260.000000	0.000000	160.000000	55.000000	20.000000	12.000000
1.270000	65.420000	61.420000	260.000000	0.000000	161.000000	55.000000	10.000000	12.000000
1.280000	65.420000	61.420000	260.000000	0.000000	161.000000	55.000000	0.000000	0.000000
1.290000	65.420000	61.520000	255.000000	0.000000	161.000000	55.000000	0.000000	10.000000
1.300000	65.420000	61.600000	249.000000	0.000000	161.000000	55.000000	0.000000	8.000000
1.310000	65.260000	61.600000	254.000000	0.000000	161.000000	55.000000	-16.000000	0.000000
1.320000	65.030000	61.650000	267.000000	0.000000	161.000000	55.000000	-23.000000	5.000000
1.330000	64.790000	61.560000	277.000000	0.000000	161.000000	55.000000	-24.000000	-9.000000
1.340000	64.600000	61.400000	292.000000	0.000000	161.000000	55.000000	-19.000000	-16.000000
1.350000	64.510000	61.180000	339.000000	0.000000	161.000000	55.000000	-9.000000	-22.000000
1.360000	64.510000	60.910000	343.000000	0.000000	161.000000	55.000000	0.000000	-27.000000
1.370000	64.510000	60.630000	354.000000	0.000000	161.000000	55.000000	0.000000	-28.000000
1.380000	64.620000	60.350000	361.000000	0.000000	161.000000	55.000000	11.000000	-28.000000
1.390000	64.750000	60.080000	363.000000	0.000000	160.000000	55.000000	13.000000	-27.000000
1.400000	64.930000	59.840000	351.000000	0.000000	160.000000	55.000000	18.000000	-24.000000
1.410000	65.180000	59.760000	317.000000	0.000000	160.000000	55.000000	25.000000	-8.000000
1.420000	65.470000	59.760000	272.000000	0.000000	160.000000	55.000000	29.000000	0.000000
1.430000	65.800000	59.950000	237.000000	0.000000	162.000000	56.000000	33.000000	19.000000
1.440000	66.140000	60.190000	223.000000	0.000000	162.000000	56.000000	34.000000	24.000000
1.450000	66.460000	60.460000	225.000000	0.000000	162.000000	56.000000	32.000000	27.000000
1.460000	66.670000	60.680000	253.000000	0.000000	162.000000	56.000000	21.000000	22.000000
1.470000	66.830000	60.880000	284.000000	0.000000	162.000000	56.000000	16.000000	20.000000
1.480000	66.880000	61.040000	309.000000	0.000000	162.000000	56.000000	5.000000	16.000000
1.490000	66.880000	61.160000	334.000000	0.000000	162.000000	56.000000	0.000000	12.000000
1.500000	66.880000	61.240000	345.000000	0.000000	162.000000	56.000000	0.000000	8.000000
1.510000	66.880000	61.240000	349.000000	0.000000	162.000000	56.000000	0.000000	0.000000
1.520000	66.880000	61.190000	399.000000	0.000000	163.000000	55.000000	0.000000	-5.000000
1.530000	66.940000	60.980000	448.000000	0.000000	163.000000	55.000000	6.000000	-21.000000
1.540000	66.940000	60.650000	443.000000	0.000000	163.000000	55.000000	0.000000	-33.000000
1.550000	67.000000	60.450000	450.000000	0.000000	163.000000	55.000000	6.000000	-20.000000
1.560000	67.070000	60.240000	452.000000	0.000000	163.000000	55.000000	7.000000	-21.000000
1.570000	67.190000	60.110000	448.000000	0.000000	162.000000	56.000000	12.000000	-13.000000
1.580000	67.350000	60.030000	410.000000	0.000000	163.000000	56.000000	16.000000	-8.000000
1.590000	67.550000	60.030000	338.000000	0.000000	163.000000	56.000000	20.000000	0.000000
1.600000	67.780000	60.230000	272.000000	0.000000	163.000000	56.000000	23.000000	20.000000
1.610000	68.070000	60.460000	240.000000	0.000000	163.000000	56.000000	29.000000	23.000000
1.620000	68.370000	60.740000	242.000000	0.000000	165.000000	56.000000	30.000000	28.000000
1.630000	68.580000	60.980000	277.000000	0.000000	165.000000	56.000000	21.000000	24.000000
1.640000	68.720000	61.140000	341.000000	0.000000	165.000000	56.000000	14.000000	16.000000
1.650000	68.810000	61.220000	391.000000	0.000000	166.000000	56.000000	9.000000	8.000000
1.660000	68.810000	61.220000	425.000000	0.000000	166.000000	56.000000	0.000000	0.000000
1.670000	68.860000	61.130000	433.000000	0.000000	168.000000	56.000000	5.000000	-9.000000
1.680000	68.940000	60.980000	436.000000	0.000000	168.000000	56.000000	8.000000	-15.000000
1.690000	69.020000	60.800000	418.000000	0.000000	168.000000	55.000000	8.000000	-18.000000
1.700000	69.090000	60.570000	366.000000	0.000000	170.000000	56.000000	7.000000	-23.000000
1.710000	69.170000	60.360000	182.000000	0.000000	169.000000	57.000000	8.000000	-21.000000
1.720000	69.170000	60.360000	0.000000	1.000000	169.000000	57.000000	0.000000	0.000000
1.730000	69.170000	60.100000	0.000000	0.000000	169.000000	57.000000	0.000000	-26.000000
1.740000	69.110000	60.300000	0.000000	0.000000	169.000000	57.000000	-6.000000	20.000000
1.750000	69.010000	60.570000	0.000000	0.000000	169.000000	57.000000	-10.000000	27.000000
1.760000	68.770000	60.900000	0.000000	0.000000	169.000000	57.000000	-24.000000	33.000000
1.770000	68.440000	61.280000	0.000000	0.000000	169.000000	57.000000	-33.000000	38.000000
1.780000	68.220000	61.720000	0.000000	0.000000	169.000000	57.000000	-22.000000	44.000000
1.790000	68.060000	62.210000	0.000000	0.000000	168.000000	56.000000	-16.000000	49.000000
1.800000	67.980000	62.390000	0.000000	0.000000	168.000000	56.000000	-8.000000	18.000000
1.810000	67.980000	62.450000	0.000000	0.000000	168.000000	55.000000	0.000000	6.000000
1.820000	67.980000	62.450000	216.000000	1.000000	168.000000	55.000000	0.000000	0.000000
1.830000	67.980000	62.450000	233.000000	0.000000	168.000000	55.000000	0.000000	0.000000
1.840000	68.410000	62.790000	215.000000	0.000000	170.000000	55.000000	43.000000	34.000000
1.850000	68.710000	62.790000	215.000000	0.000000	170.000000	55.000000	30.000000	0.000000
1.860000	68.990000	62.690000	207.000000	0.000000	170.000000	55.000000	28.000000	-10.000000
1.870000	69.240000	62.570000	129.000000	0.000000	170.000000	55.000000	25.000000	-12.000000
1.880000	69.240000	62.570000	0.000000	1.000000	170.000000	55.000000	0.000000	0.000000
1.890000	69.820000	62.170000	0.000000	0.000000	171.000000	55.000000	58.000000	-40.000000
1.900000	70.150000	62.070000	0.000000	0.000000	171.000000	55.000000	33.000000	-10.000000
1.910000	70.490000	62.070000	0.000000	0.000000	171.000000	55.000000	34.000000	0.000000
1.920000	70.830000	62.070000	0.000000	0.000000	171.000000	56.000000	34.000000	0.000000
1.930000	71.170000	62.070000	0.000000	0.000000	171.000000	56.000000	34.000000	0.000000
1.940000	71.170000	62.070000	1.000000	0.000000	171.000000	56.000000	0.000000	0.000000
1.950000	71.530000	61.900000	68.000000	1.000000	171.000000	56.000000	0.000000	0.000000
1.960000	71.530000	61.780000	68.000000	0.000000	171.000000	56.000000	0.000000	-12.000000
1.970000	71.530000	61.640000	139.000000	0.000000	171.000000	56.000000	0.000000	-14.000000
1.980000	71.530000	61.440000	203.000000	0.000000	171.000000	56.000000	0.000000	-20.000000
1.990000	71.530000	61.230000	255.000000	0.000000	171.000000	56.000000	0.000000	-21.000000
2.000000	71.530000	61.020000	312.000000	0.000000	171.000000	56.000000	0.000000	-21.000000
2.010000	71.590000	60.820000	330.000000	0.000000	171.000000	56.000000	6.000000	-20.000000
2.020000	71.660000	60.700000	341.000000	0.000000	171.000000	56.000000	7.000000	-12.000000
2.030000	71.730000	60.630000	346.000000	0.000000	171.000000	56.000000	7.000000	-7.000000
2.040000	71.730000	60.630000	349.000000	0.000000	171.000000	56.000000	0.000000	0.000000
2.050000	71.790000	60.570000	327.000000	0.000000	171.000000	56.000000	6.000000	-6.000000
2.060000	71.720000	60.570000	274.000000	0.000000	171.000000	57.000000	-7.000000	0.000000
2.070000	71.440000	60.570000	265.000000	0.000000	169.000000	57.000000	-28.000000	0.000000
2.080000	71.030000	60.440000	242.000000	0.000000	169.000000	57.000000	-41.000000	-13.000000
2.090000	70.660000	60.380000	247.000000	0.000000	171.000000	57.000000	-37.000000	-6.000000
2.100000	70.310000	60.380000	257.000000	0.000000	171.000000	57.000000	-35.000000	0.000000
2.110000	70.010000	60.300000	291.000000	0.000000	171.000000	57.000000	-30.000000	-8.000000
2.120000	69.770000	60.300000	324.000000	0.000000	171.000000	57.000000	-24.000000	0.000000
2.130000	69.710000	60.220000	333.000000	0.000000	172.000000	58.000000	-6.000000	-8.000000
2.140000	69.760000	60.150000	373.000000	0.000000	172.000000	58.000000	5.000000	-7.000000
2.150000	69.910000	60.050000	372.000000	0.000000	172.000000	58.000000	15.000000	-10.000000
2.160000	70.120000	59.890000	364.000000	0.000000	174.000000	58.000000	21.000000	-16.000000
2.170000	70.410000	59.750000	218.000000	0.000000	174.000000	58.000000	29.000000	-14.000000
2.180000	70.410000	59.750000	0.000000	1.000000	174.000000	58.000000	0.000000	0.000000
2.190000	71.050000	59.620000	0.000000	0.000000	174.000000	58.000000	64.000000	-13.000000
2.200000	71.370000	59.790000	0.000000	0.000000	172.000000	58.000000	32.000000	17.000000
2.210000	71.680000	60.060000	0.000000	0.000000	172.000000	58.000000	31.000000	27.000000
2.220000	72.030000	60.310000	0.000000	0.000000	170.000000	58.000000	35.000000	25.000000
