t	x	y	pressure	penup	azimuth	inclination	v_x	v_y
0.000000	92.040000	62.910000	51.000000	1.000000	158.000000	51.000000	0.000000	0.000000
0.010000	92.040000	62.910000	73.000000	0.000000	158.000000	51.000000	0.000000	0.000000
0.020000	92.040000	62.910000	104.000000	0.000000	158.000000	51.000000	0.000000	0.000000
0.030000	92.040000	62.910000	125.000000	0.000000	158.000000	51.000000	0.000000	0.000000
0.040000	92.040000	62.910000	141.000000	0.000000	158.000000	51.000000	0.000000	0.000000
0.050000	92.380000	63.150000	175.000000	0.000000	158.000000	51.000000	34.000000	24.000000
0.060000	92.640000	63.380000	171.000000	0.000000	159.000000	50.000000	26.000000	23.000000
0.070000	92.970000	63.670000	191.000000	0.000000	159.000000	50.000000	33.000000	29.000000
0.080000	93.370000	63.990000	215.000000	0.000000	158.000000	51.000000	40.000000	32.000000
0.090000	93.720000	64.340000	206.000000	0.000000	158.000000	51.000000	35.000000	35.000000
0.100000	94.040000	64.680000	212.000000	0.000000	158.000000	51.000000	32.000000	34.000000
0.110000	94.320000	65.010000	209.000000	0.000000	158.000000	51.000000	28.000000	33.000000
0.120000	94.420000	65.290000	208.000000	0.000000	157.000000	52.000000	10.000000	28.000000
0.130000	94.420000	65.500000	203.000000	0.000000	157.000000	52.000000	0.000000	21.000000
0.140000	94.180000	65.660000	205.000000	0.000000	157.000000	52.000000	-24.000000	16.000000
0.150000	93.750000	65.790000	208.000000	0.000000	157.000000	52.000000	-43.000000	13.000000
0.160000	93.180000	65.660000	213.000000	0.000000	158.000000	52.000000	-57.000000	-13.000000
0.170000	92.330000	65.360000	222.000000	0.000000	158.000000	52.000000	-85.000000	-30.000000
0.180000	91.280000	64.730000	206.000000	0.000000	158.000000	52.000000	-105.000000	-63.000000
0.190000	90.090000	63.810000	214.000000	0.000000	158.000000	52.000000	-119.000000	-92.000000
0.200000	88.780000	62.710000	249.000000	0.000000	158.000000	52.000000	-131.000000	-110.000000
0.210000	87.500000	61.670000	272.000000	0.000000	157.000000	52.000000	-128.000000	-104.000000
0.220000	86.750000	60.830000	282.000000	0.000000	157.000000	52.000000	-75.000000	-84.000000
0.230000	86.340000	60.120000	279.000000	0.000000	158.000000	51.000000	-41.000000	-71.000000
0.240000	86.250000	59.590000	286.000000	0.000000	157.000000	51.000000	-9.000000	-53.000000
0.250000	86.430000	59.170000	284.000000	0.000000	157.000000	51.000000	18.000000	-42.000000
0.260000	86.780000	58.820000	282.000000	0.000000	155.000000	51.000000	35.000000	-35.000000
0.270000	87.390000	58.670000	251.000000	0.000000	155.000000	51.000000	61.000000	-15.000000
0.280000	88.300000	58.670000	142.000000	0.000000	155.000000	51.000000	91.000000	0.000000
0.290000	88.300000	58.670000	0.000000	1.000000	154.000000	52.000000	0.000000	0.000000
0.300000	90.430000	59.180000	0.000000	0.000000	154.000000	52.000000	213.000000	51.000000
0.310000	91.250000	59.570000	0.000000	0.000000	153.000000	53.000000	82.000000	39.000000
0.320000	91.930000	60.030000	0.000000	0.000000	153.000000	53.000000	68.000000	46.000000
0.330000	92.550000	60.520000	0.000000	0.000000	153.000000	53.000000	62.000000	49.000000
0.340000	93.100000	60.990000	0.000000	0.000000	153.000000	53.000000	55.000000	47.000000
0.350000	93.590000	61.390000	0.000000	0.000000	153.000000	53.000000	49.000000	40.000000
0.360000	93.940000	61.680000	0.000000	0.000000	153.000000	53.000000	35.000000	29.000000
0.370000	94.150000	61.790000	0.000000	0.000000	154.000000	52.000000	21.000000	11.000000
0.380000	94.270000	61.790000	0.000000	0.000000	153.000000	52.000000	12.000000	0.000000
0.390000	94.270000	61.790000	216.000000	1.000000	153.000000	52.000000	0.000000	0.000000
0.400000	94.170000	61.710000	249.000000	0.000000	153.000000	51.000000	-10.000000	-8.000000
0.410000	93.950000	61.980000	202.000000	0.000000	152.000000	51.000000	-22.000000	27.000000
0.420000	93.950000	61.980000	178.000000	0.000000	153.000000	51.000000	0.000000	0.000000
0.430000	93.900000	61.980000	176.000000	0.000000	153.000000	51.000000	-5.000000	0.000000
0.440000	93.800000	61.830000	127.000000	0.000000	153.000000	51.000000	-10.000000	-15.000000
0.450000	93.800000	61.830000	0.000000	1.000000	153.000000	51.000000	0.000000	0.000000
0.460000	94.030000	61.570000	0.000000	0.000000	153.000000	51.000000	23.000000	-26.000000
0.470000	94.390000	61.700000	0.000000	0.000000	153.000000	51.000000	36.000000	13.000000
0.480000	94.870000	61.990000	0.000000	0.000000	153.000000	51.000000	48.000000	29.000000
0.490000	95.380000	62.430000	0.000000	0.000000	153.000000	51.000000	51.000000	44.000000
0.500000	96.000000	62.960000	0.000000	0.000000	153.000000	51.000000	62.000000	53.000000
0.510000	96.680000	63.540000	0.000000	0.000000	153.000000	51.000000	68.000000	58.000000
0.520000	97.410000	64.000000	0.000000	0.000000	154.000000	50.000000	73.000000	46.000000
0.530000	97.950000	64.310000	0.000000	0.000000	155.000000	50.000000	54.000000	31.000000
0.540000	98.360000	64.530000	0.000000	0.000000	155.000000	50.000000	41.000000	22.000000
0.550000	98.480000	64.610000	0.000000	0.000000	157.000000	51.000000	12.000000	8.000000
0.560000	98.430000	64.700000	0.000000	0.000000	157.000000	50.000000	-5.000000	9.000000
0.570000	98.260000	64.800000	0.000000	0.000000	159.000000	50.000000	-17.000000	10.000000
0.580000	98.020000	64.870000	0.000000	0.000000	158.000000	51.000000	-24.000000	7.000000
0.590000	98.020000	64.870000	61.000000	1.000000	158.000000	51.000000	0.000000	0.000000
0.600000	97.440000	65.250000	99.000000	0.000000	158.000000	51.000000	-58.000000	38.000000
0.610000	97.290000	65.400000	91.000000	0.000000	157.000000	52.000000	-15.000000	15.000000
0.620000	97.180000	65.400000	137.000000	0.000000	156.000000	51.000000	-11.000000	0.000000
0.630000	97.050000	65.300000	167.000000	0.000000	155.000000	52.000000	-13.000000	-10.000000
0.640000	96.880000	64.980000	195.000000	0.000000	155.000000	52.000000	-17.000000	-32.000000
0.650000	96.680000	64.400000	214.000000	0.000000	154.000000	52.000000	-20.000000	-58.000000
0.660000	96.470000	63.640000	226.000000	0.000000	154.000000	52.000000	-21.000000	-76.000000
0.670000	96.250000	62.840000	240.000000	0.000000	154.000000	52.000000	-22.000000	-80.000000
0.680000	96.130000	62.180000	244.000000	0.000000	153.000000	52.000000	-12.000000	-66.000000
0.690000	96.190000	61.620000	247.000000	0.000000	153.000000	51.000000	6.000000	-56.000000
0.700000	96.360000	61.250000	253.000000	0.000000	153.000000	51.000000	17.000000	-37.000000
0.710000	96.640000	61.070000	254.000000	0.000000	153.000000	51.000000	28.000000	-18.000000
0.720000	96.970000	61.010000	247.000000	0.000000	152.000000	51.000000	33.000000	-6.000000
0.730000	97.480000	61.170000	233.000000	0.000000	151.000000	51.000000	51.000000	16.000000
0.740000	98.100000	61.550000	221.000000	0.000000	151.000000	51.000000	62.000000	38.000000
0.750000	98.710000	62.090000	222.000000	0.000000	151.000000	51.000000	61.000000	54.000000
0.760000	99.180000	62.680000	220.000000	0.000000	151.000000	51.000000	47.000000	59.000000
0.770000	99.550000	63.250000	220.000000	0.000000	153.000000	52.000000	37.000000	57.000000
0.780000	99.720000	63.810000	222.000000	0.000000	153.000000	52.000000	17.000000	56.000000
0.790000	99.790000	64.300000	214.000000	0.000000	153.000000	52.000000	7.000000	49.000000
0.800000	99.790000	64.550000	237.000000	0.000000	154.000000	52.000000	0.000000	25.000000
0.810000	99.730000	64.650000	235.000000	0.000000	154.000000	52.000000	-6.000000	10.000000
0.820000	99.670000	64.570000	235.000000	0.000000	154.000000	52.000000	-6.000000	-8.000000
0.830000	99.610000	64.430000	247.000000	0.000000	154.000000	52.000000	-6.000000	-14.000000
0.840000	99.480000	63.940000	255.000000	0.000000	154.000000	52.000000	-13.000000	-49.000000
0.850000	99.300000	63.230000	264.000000	0.000000	154.000000	52.000000	-18.000000	-71.000000
0.860000	99.300000	62.520000	267.000000	0.000000	154.000000	52.000000	0.000000	-71.000000
0.870000	99.300000	61.940000	267.000000	0.000000	154.000000	52.000000	0.000000	-58.000000
0.880000	99.410000	61.460000	270.000000	0.000000	154.000000	52.000000	11.000000	-48.000000
0.890000	99.590000	61.180000	269.000000	0.000000	155.000000	52.000000	18.000000	-28.000000
0.900000	99.770000	61.030000	267.000000	0.000000	155.000000	52.000000	18.000000	-15.000000
0.910000	99.990000	60.980000	249.000000	0.000000	155.000000	52.000000	22.000000	-5.000000
0.920000	100.280000	61.100000	206.000000	0.000000	156.000000	53.000000	29.000000	12.000000
0.930000	100.660000	61.400000	186.000000	0.000000	156.000000	53.000000	38.000000	30.000000
0.940000	101.010000	61.820000	176.000000	0.000000	158.000000	53.000000	35.000000	42.000000
0.950000	101.340000	62.150000	178.000000	0.000000	159.000000	53.000000	33.000000	33.000000
0.960000	101.630000	62.460000	195.000000	0.000000	159.000000	53.000000	29.000000	31.000000
0.970000	101.820000	62.710000	225.000000	0.000000	160.000000	53.000000	19.000000	25.000000
0.980000	101.940000	62.900000	251.000000	0.000000	160.000000	53.000000	12.000000	19.000000
0.990000	101.940000	62.970000	254.000000	0.000000	162.000000	54.000000	0.000000	7.000000
1.000000	102.000000	62.970000	256.000000	0.000000	162.000000	54.000000	6.000000	0.000000
1.010000	102.000000	62.870000	254.000000	0.000000	162.000000	54.000000	0.000000	-10.000000
1.020000	102.150000	62.730000	269.000000	0.000000	162.000000	54.000000	15.000000	-14.000000
1.030000	102.300000	62.480000	274.000000	0.000000	162.000000	54.000000	15.000000	-25.000000
1.040000	102.440000	62.190000	294.000000	0.000000	162.000000	54.000000	14.000000	-29.000000
1.050000	102.660000	61.920000	294.000000	0.000000	162.000000	54.000000	22.000000	-27.000000
1.060000	102.880000	61.730000	299.000000	0.000000	160.000000	53.000000	22.000000	-19.000000
1.070000	103.130000	61.580000	302.000000	0.000000	160.000000	53.000000	25.000000	-15.000000
1.080000	103.360000	61.580000	304.000000	0.000000	160.000000	53.000000	23.000000	0.000000
1.090000	103.650000	61.720000	302.000000	0.000000	160.000000	53.000000	29.000000	14.000000
1.100000	103.980000	61.940000	284.000000	0.000000	158.000000	54.000000	33.000000	22.000000
1.110000	104.330000	62.260000	274.000000	0.000000	158.000000	54.000000	35.000000	32.000000
1.120000	104.660000	62.610000	269.000000	0.000000	158.000000	54.000000	33.000000	35.000000
1.130000	104.930000	62.970000	257.000000	0.000000	157.000000	54.000000	27.000000	36.000000
1.140000	105.170000	63.200000	254.000000	0.000000	157.000000	54.000000	24.000000	23.000000
1.150000	105.170000	63.380000	244.000000	0.000000	157.000000	54.000000	0.000000	18.000000
1.160000	105.080000	63.380000	239.000000	0.000000	156.000000	53.000000	-9.000000	0.000000
1.170000	104.920000	63.380000	246.000000	0.000000	156.000000	53.000000	-16.000000	0.000000
1.180000	104.560000	63.070000	251.000000	0.000000	156.000000	53.000000	-36.000000	-31.000000
1.190000	104.260000	62.780000	262.000000	0.000000	156.000000	53.000000	-30.000000	-29.000000
1.200000	104.000000	62.450000	269.000000	0.000000	156.000000	53.000000	-26.000000	-33.000000
1.210000	103.920000	62.140000	277.000000	0.000000	158.000000	53.000000	-8.000000	-31.000000
1.220000	103.920000	61.790000	277.000000	0.000000	158.000000	53.000000	0.000000	-35.000000
1.230000	104.000000	61.510000	277.000000	0.000000	158.000000	53.000000	8.000000	-28.000000
1.240000	104.190000	61.260000	262.000000	0.000000	158.000000	53.000000	19.000000	-25.000000
1.250000	104.510000	61.130000	242.000000	0.000000	157.000000	54.000000	32.000000	-13.000000
1.260000	104.860000	61.130000	230.000000	0.000000	157.000000	54.000000	35.000000	0.000000
1.270000	105.220000	61.230000	217.000000	0.000000	157.000000	54.000000	36.000000	10.000000
1.280000	105.630000	61.480000	210.000000	0.000000	157.000000	54.000000	41.000000	25.000000
1.290000	105.970000	61.790000	215.000000	0.000000	157.000000	54.000000	34.000000	31.000000
1.300000	106.260000	62.130000	214.000000	0.000000	157.000000	54.000000	29.000000	34.000000
1.310000	106.510000	62.420000	249.000000	0.000000	156.000000	53.000000	25.000000	29.000000
1.320000	106.670000	62.680000	277.000000	0.000000	156.000000	53.000000	16.000000	26.000000
1.330000	106.770000	62.870000	282.000000	0.000000	156.000000	53.000000	10.000000	19.000000
1.340000	106.820000	62.870000	282.000000	0.000000	156.000000	53.000000	5.000000	0.000000
1.350000	106.820000	62.870000	307.000000	0.000000	156.000000	53.000000	0.000000	0.000000
1.360000	106.880000	62.730000	339.000000	0.000000	154.000000	53.000000	6.000000	-14.000000
1.370000	106.930000	62.480000	339.000000	0.000000	156.000000	53.000000	5.000000	-25.000000
1.380000	106.990000	62.160000	345.000000	0.000000	156.000000	53.000000	6.000000	-32.000000
1.390000	107.040000	61.880000	345.000000	0.000000	156.000000	53.000000	5.000000	-28.000000
1.400000	107.040000	61.640000	334.000000	0.000000	156.000000	53.000000	0.000000	-24.000000
1.410000	107.180000	61.530000	342.000000	0.000000	156.000000	53.000000	14.000000	-11.000000
1.420000	107.260000	61.530000	340.000000	0.000000	156.000000	53.000000	8.000000	0.000000
1.430000	107.330000	61.530000	334.000000	0.000000	156.000000	53.000000	7.000000	0.000000
1.440000	107.480000	61.680000	309.000000	0.000000	156.000000	53.000000	15.000000	15.000000
1.450000	107.750000	61.990000	307.000000	0.000000	156.000000	53.000000	27.000000	31.000000
1.460000	108.020000	62.300000	305.000000	0.000000	156.000000	53.000000	27.000000	31.000000
1.470000	108.270000	62.580000	309.000000	0.000000	156.000000	53.000000	25.000000	28.000000
1.480000	108.500000	62.800000	319.000000	0.000000	156.000000	53.000000	23.000000	22.000000
1.490000	108.670000	62.930000	324.000000	0.000000	156.000000	53.000000	17.000000	13.000000
1.500000	108.800000	62.930000	322.000000	0.000000	156.000000	53.000000	13.000000	0.000000
1.510000	108.800000	62.870000	334.000000	0.000000	156.000000	53.000000	0.000000	-6.000000
1.520000	108.800000	62.740000	345.000000	0.000000	156.000000	53.000000	0.000000	-13.000000
1.530000	108.850000	62.460000	337.000000	0.000000	156.000000	53.000000	5.000000	-28.000000
1.540000	108.900000	62.090000	274.000000	0.000000	156.000000	53.000000	5.000000	-37.000000
1.550000	109.000000	61.780000	100.000000	0.000000	157.000000	54.000000	10.000000	-31.000000
1.560000	109.000000	61.780000	0.000000	1.000000	156.000000	55.000000	0.000000	0.000000
1.570000	109.260000	61.370000	0.000000	0.000000	156.000000	55.000000	26.000000	-41.000000
1.580000	109.400000	61.550000	0.000000	0.000000	156.000000	55.000000	14.000000	18.000000
1.590000	109.400000	61.860000	0.000000	0.000000	158.000000	55.000000	0.000000	31.000000
1.600000	109.350000	62.260000	0.000000	0.000000	158.000000	55.000000	-5.000000	40.000000
1.610000	109.120000	62.720000	0.000000	0.000000	158.000000	55.000000	-23.000000	46.000000
1.620000	108.770000	63.210000	0.000000	0.000000	158.000000	55.000000	-35.000000	49.000000
1.630000	108.350000	63.720000	0.000000	0.000000	158.000000	55.000000	-42.000000	51.000000
1.640000	108.080000	63.890000	0.000000	0.000000	158.000000	55.000000	-27.000000	17.000000
1.650000	107.820000	64.020000	0.000000	0.000000	158.000000	54.000000	-26.000000	13.000000
1.660000	107.820000	64.020000	143.000000	1.000000	158.000000	54.000000	0.000000	0.000000
1.670000	107.820000	64.020000	165.000000	0.000000	158.000000	54.000000	0.000000	0.000000
1.680000	107.890000	64.430000	127.000000	0.000000	157.000000	54.000000	7.000000	41.000000
1.690000	108.160000	64.570000	65.000000	0.000000	156.000000	53.000000	27.000000	14.000000
1.700000	108.520000	64.570000	10.000000	1.000000	156.000000	53.000000	0.000000	0.000000
1.710000	108.520000	64.570000	0.000000	0.000000	156.000000	53.000000	0.000000	0.000000
1.720000	109.190000	64.440000	0.000000	0.000000	154.000000	53.000000	67.000000	-13.000000
1.730000	109.550000	64.320000	0.000000	0.000000	154.000000	53.000000	36.000000	-12.000000
1.740000	109.890000	64.320000	0.000000	0.000000	154.000000	53.000000	34.000000	0.000000
1.750000	110.250000	64.320000	0.000000	0.000000	154.000000	53.000000	36.000000	0.000000
1.760000	110.570000	64.270000	0.000000	0.000000	153.000000	53.000000	32.000000	-5.000000
1.770000	110.810000	64.270000	0.000000	0.000000	154.000000	53.000000	24.000000	0.000000
1.780000	111.010000	64.120000	0.000000	0.000000	154.000000	53.000000	20.000000	-15.000000
1.790000	111.010000	64.120000	83.000000	1.000000	154.000000	53.000000	0.000000	0.000000
1.800000	111.240000	63.750000	149.000000	0.000000	156.000000	53.000000	23.000000	-37.000000
1.810000	111.310000	63.600000	158.000000	0.000000	156.000000	53.000000	7.000000	-15.000000
1.820000	111.390000	63.400000	196.000000	0.000000	157.000000	54.000000	8.000000	-20.000000
1.830000	111.460000	63.190000	220.000000	0.000000	158.000000	54.000000	7.000000	-21.000000
1.840000	111.520000	62.990000	214.000000	0.000000	159.000000	53.000000	6.000000	-20.000000
1.850000	111.580000	62.770000	223.000000	0.000000	160.000000	53.000000	6.000000	-22.000000
1.860000	111.580000	62.570000	223.000000	0.000000	162.000000	54.000000	0.000000	-20.000000
1.870000	111.650000	62.410000	223.000000	0.000000	162.000000	54.000000	7.000000	-16.000000
1.880000	111.650000	62.260000	223.000000	0.000000	162.000000	54.000000	0.000000	-15.000000
1.890000	111.600000	62.210000	211.000000	0.000000	162.000000	54.000000	-5.000000	-5.000000
1.900000	111.510000	62.150000	193.000000	0.000000	162.000000	54.000000	-9.000000	-6.000000
1.910000	111.220000	62.080000	182.000000	0.000000	162.000000	54.000000	-29.000000	-7.000000
1.920000	110.790000	62.010000	182.000000	0.000000	162.000000	54.000000	-43.000000	-7.000000
1.930000	110.400000	62.010000	193.000000	0.000000	162.000000	54.000000	-39.000000	0.000000
1.940000	110.150000	62.010000	214.000000	0.000000	160.000000	54.000000	-25.000000	0.000000
1.950000	110.000000	62.010000	251.000000	0.000000	160.000000	54.000000	-15.000000	0.000000
1.960000	110.000000	62.010000	251.000000	0.000000	160.000000	54.000000	0.000000	0.000000
1.970000	110.000000	62.010000	241.000000	0.000000	158.000000	54.000000	0.000000	0.000000
1.980000	110.060000	61.880000	241.000000	0.000000	158.000000	54.000000	6.000000	-13.000000
1.990000	110.260000	61.710000	198.000000	0.000000	158.000000	54.000000	20.000000	-17.000000
2.000000	110.540000	61.540000	5.000000	1.000000	158.000000	54.000000	0.000000	0.000000
2.010000	110.540000	61.540000	0.000000	0.000000	158.000000	54.000000	0.000000	0.000000
2.020000	111.220000	61.390000	0.000000	0.000000	158.000000	54.000000	68.000000	-15.000000
2.030000	111.560000	61.540000	0.000000	0.000000	158.000000	54.000000	34.000000	15.000000
2.040000	111.850000	61.750000	0.000000	0.000000	158.000000	54.000000	29.000000	21.000000
2.050000	112.120000	62.000000	0.000000	0.000000	158.000000	54.000000	27.000000	25.000000
2.060000	112.270000	62.290000	0.000000	0.000000	158.000000	54.000000	15.000000	29.000000
2.070000	112.270000	62.340000	0.000000	0.000000	158.000000	54.000000	0.000000	5.000000
2.080000	112.220000	62.340000	0.000000	0.000000	158.000000	54.000000	-5.000000	0.000000
2.090000	112.140000	62.340000	0.000000	0.000000	158.000000	54.000000	-8.000000	0.000000
2.100000	112.070000	62.270000	0.000000	0.000000	158.000000	54.000000	-7.000000	-7.000000
2.110000	112.070000	62.270000	0.000000	0.000000	160.000000	54.000000	0.000000	0.000000
2.120000	112.140000	62.370000	0.000000	0.000000	160.000000	53.000000	7.000000	10.000000
2.130000	112.140000	62.370000	48.000000	1.000000	162.000000	54.000000	0.000000	0.000000
2.140000	112.560000	62.520000	129.000000	0.000000	163.000000	54.000000	42.000000	15.000000
2.150000	112.850000	62.670000	179.000000	0.000000	163.000000	54.000000	29.000000	15.000000
2.160000	113.170000	62.860000	190.000000	0.000000	164.000000	54.000000	32.000000	19.000000
2.170000	113.550000	63.110000	222.000000	0.000000	166.000000	54.000000	38.000000	25.000000
2.180000	113.950000	63.400000	249.000000	0.000000	165.000000	55.000000	40.000000	29.000000
2.190000	114.260000	63.710000	245.000000	0.000000	167.000000	55.000000	31.000000	31.000000
2.200000	114.500000	64.160000	249.000000	0.000000	167.000000	55.000000	24.000000	45.000000
