t	x	y	pressure	penup	azimuth	inclination	v_x	v_y
0.000000	16.800000	15.040000	101.000000	1.000000	169.000000	44.000000	0.000000	0.000000
0.010000	16.660000	15.500000	112.000000	0.000000	167.000000	44.000000	-14.000000	46.000000
0.020000	16.390000	15.670000	178.000000	0.000000	164.000000	45.000000	-27.000000	17.000000
0.030000	16.110000	15.800000	228.000000	0.000000	163.000000	45.000000	-28.000000	13.000000
0.040000	15.660000	15.890000	312.000000	0.000000	162.000000	46.000000	-45.000000	9.000000
0.050000	15.100000	15.890000	376.000000	0.000000	163.000000	46.000000	-56.000000	0.000000
0.060000	14.580000	15.770000	423.000000	0.000000	164.000000	46.000000	-52.000000	-12.000000
0.070000	14.050000	15.520000	440.000000	0.000000	165.000000	46.000000	-53.000000	-25.000000
0.080000	13.720000	15.230000	440.000000	0.000000	166.000000	46.000000	-33.000000	-29.000000
0.090000	13.530000	14.970000	448.000000	0.000000	166.000000	46.000000	-19.000000	-26.000000
0.100000	13.610000	14.730000	439.000000	0.000000	166.000000	46.000000	8.000000	-24.000000
0.110000	13.970000	14.350000	440.000000	0.000000	166.000000	47.000000	36.000000	-38.000000
0.120000	14.520000	13.880000	449.000000	0.000000	166.000000	47.000000	55.000000	-47.000000
0.130000	15.150000	13.490000	440.000000	0.000000	165.000000	48.000000	63.000000	-39.000000
0.140000	15.720000	13.130000	443.000000	0.000000	165.000000	48.000000	57.000000	-36.000000
0.150000	16.010000	12.780000	448.000000	0.000000	166.000000	49.000000	29.000000	-35.000000
0.160000	16.130000	12.530000	445.000000	0.000000	165.000000	50.000000	12.000000	-25.000000
0.170000	16.040000	12.350000	448.000000	0.000000	167.000000	50.000000	-9.000000	-18.000000
0.180000	15.720000	12.210000	453.000000	0.000000	167.000000	51.000000	-32.000000	-14.000000
0.190000	15.240000	12.000000	469.000000	0.000000	169.000000	51.000000	-48.000000	-21.000000
0.200000	14.560000	11.800000	468.000000	0.000000	169.000000	51.000000	-68.000000	-20.000000
0.210000	13.900000	11.800000	467.000000	0.000000	169.000000	51.000000	-66.000000	0.000000
0.220000	13.250000	11.800000	412.000000	0.000000	169.000000	51.000000	-65.000000	0.000000
0.230000	12.980000	11.900000	1.000000	1.000000	169.000000	51.000000	0.000000	0.000000
0.240000	12.980000	11.900000	0.000000	0.000000	167.000000	51.000000	0.000000	0.000000
0.250000	13.060000	12.050000	0.000000	0.000000	167.000000	51.000000	8.000000	15.000000
0.260000	13.370000	12.200000	0.000000	0.000000	168.000000	50.000000	31.000000	15.000000
0.270000	13.850000	12.390000	0.000000	0.000000	168.000000	49.000000	48.000000	19.000000
0.280000	14.430000	12.300000	0.000000	0.000000	170.000000	49.000000	58.000000	-9.000000
0.290000	15.150000	12.240000	0.000000	0.000000	171.000000	48.000000	72.000000	-6.000000
0.300000	15.920000	12.240000	0.000000	0.000000	172.000000	46.000000	77.000000	0.000000
0.310000	16.590000	12.090000	0.000000	0.000000	172.000000	45.000000	67.000000	-15.000000
0.320000	17.170000	11.770000	0.000000	0.000000	171.000000	45.000000	58.000000	-32.000000
0.330000	17.170000	11.770000	521.000000	1.000000	170.000000	45.000000	0.000000	0.000000
0.340000	17.610000	11.190000	535.000000	0.000000	169.000000	44.000000	44.000000	-58.000000
0.350000	17.430000	11.190000	556.000000	0.000000	168.000000	45.000000	-18.000000	0.000000
0.360000	17.430000	11.370000	661.000000	0.000000	165.000000	46.000000	0.000000	18.000000
0.370000	17.430000	11.370000	731.000000	0.000000	163.000000	48.000000	0.000000	0.000000
0.380000	17.430000	11.370000	797.000000	0.000000	161.000000	48.000000	0.000000	0.000000
0.390000	17.430000	11.370000	828.000000	0.000000	160.000000	50.000000	0.000000	0.000000
0.400000	17.430000	11.370000	869.000000	0.000000	160.000000	51.000000	0.000000	0.000000
0.410000	17.430000	11.370000	872.000000	0.000000	161.000000	52.000000	0.000000	0.000000
0.420000	17.430000	11.370000	884.000000	0.000000	160.000000	53.000000	0.000000	0.000000
0.430000	17.430000	11.370000	896.000000	0.000000	160.000000	53.000000	0.000000	0.000000
0.440000	17.430000	11.370000	897.000000	0.000000	160.000000	53.000000	0.000000	0.000000
0.450000	17.430000	11.370000	899.000000	0.000000	160.000000	53.000000	0.000000	0.000000
0.460000	17.430000	11.370000	899.000000	0.000000	160.000000	53.000000	0.000000	0.000000
0.470000	17.430000	11.370000	899.000000	0.000000	162.000000	54.000000	0.000000	0.000000
0.480000	17.430000	11.370000	900.000000	0.000000	162.000000	54.000000	0.000000	0.000000
0.490000	17.430000	11.320000	893.000000	0.000000	162.000000	54.000000	0.000000	-5.000000
0.500000	17.430000	11.320000	854.000000	0.000000	162.000000	54.000000	0.000000	0.000000
0.510000	17.430000	11.320000	797.000000	0.000000	162.000000	54.000000	0.000000	0.000000
0.520000	17.430000	11.320000	673.000000	0.000000	162.000000	54.000000	0.000000	0.000000
0.530000	17.430000	11.320000	477.000000	0.000000	162.000000	54.000000	0.000000	0.000000
0.540000	17.430000	11.320000	91.000000	0.000000	162.000000	54.000000	0.000000	0.000000
0.550000	17.430000	11.320000	0.000000	1.000000	162.000000	54.000000	0.000000	0.000000
0.560000	17.550000	11.320000	0.000000	0.000000	162.000000	53.000000	12.000000	0.000000
0.570000	17.830000	11.480000	0.000000	0.000000	162.000000	53.000000	28.000000	16.000000
0.580000	18.200000	11.730000	0.000000	0.000000	161.000000	52.000000	37.000000	25.000000
0.590000	18.410000	11.940000	0.000000	0.000000	162.000000	52.000000	21.000000	21.000000
0.600000	18.560000	12.130000	0.000000	0.000000	161.000000	50.000000	15.000000	19.000000
0.610000	18.670000	12.280000	0.000000	0.000000	161.000000	49.000000	11.000000	15.000000
0.620000	18.730000	12.420000	0.000000	0.000000	159.000000	48.000000	6.000000	14.000000
0.630000	18.730000	12.540000	0.000000	0.000000	158.000000	47.000000	0.000000	12.000000
0.640000	18.800000	12.540000	0.000000	0.000000	159.000000	45.000000	7.000000	0.000000
0.650000	18.800000	12.610000	0.000000	0.000000	158.000000	44.000000	0.000000	7.000000
0.660000	18.720000	12.610000	0.000000	0.000000	158.000000	43.000000	-8.000000	0.000000
0.670000	18.600000	12.670000	0.000000	0.000000	157.000000	43.000000	-12.000000	6.000000
0.680000	18.420000	12.730000	0.000000	0.000000	158.000000	42.000000	-18.000000	6.000000
0.690000	18.300000	12.730000	0.000000	0.000000	158.000000	42.000000	-12.000000	0.000000
0.700000	18.200000	12.640000	0.000000	0.000000	158.000000	42.000000	-10.000000	-9.000000
0.710000	18.200000	12.460000	0.000000	0.000000	159.000000	42.000000	0.000000	-18.000000
0.720000	18.200000	12.240000	0.000000	0.000000	158.000000	43.000000	0.000000	-22.000000
0.730000	18.200000	12.000000	0.000000	0.000000	158.000000	43.000000	0.000000	-24.000000
0.740000	18.280000	11.770000	0.000000	0.000000	158.000000	44.000000	8.000000	-23.000000
0.750000	18.280000	11.770000	25.000000	1.000000	159.000000	45.000000	0.000000	0.000000
0.760000	18.280000	11.770000	36.000000	0.000000	158.000000	47.000000	0.000000	0.000000
0.770000	18.280000	11.770000	68.000000	0.000000	159.000000	48.000000	0.000000	0.000000
0.780000	18.280000	11.770000	109.000000	0.000000	159.000000	49.000000	0.000000	0.000000
0.790000	18.280000	11.770000	148.000000	0.000000	158.000000	51.000000	0.000000	0.000000
0.800000	18.280000	11.770000	188.000000	0.000000	158.000000	52.000000	0.000000	0.000000
0.810000	18.280000	11.770000	206.000000	0.000000	158.000000	52.000000	0.000000	0.000000
0.820000	18.280000	11.770000	235.000000	0.000000	158.000000	53.000000	0.000000	0.000000
0.830000	18.280000	11.770000	253.000000	0.000000	158.000000	53.000000	0.000000	0.000000
0.840000	18.280000	11.770000	242.000000	0.000000	158.000000	53.000000	0.000000	0.000000
0.850000	18.670000	12.290000	250.000000	0.000000	158.000000	53.000000	39.000000	52.000000
0.860000	19.000000	12.910000	260.000000	0.000000	158.000000	53.000000	33.000000	62.000000
0.870000	19.260000	13.630000	287.000000	0.000000	158.000000	53.000000	26.000000	72.000000
0.880000	19.490000	14.350000	289.000000	0.000000	158.000000	53.000000	23.000000	72.000000
0.890000	19.700000	15.220000	284.000000	0.000000	158.000000	52.000000	21.000000	87.000000
0.900000	19.820000	16.190000	284.000000	0.000000	157.000000	52.000000	12.000000	97.000000
0.910000	19.930000	17.180000	301.000000	0.000000	157.000000	52.000000	11.000000	99.000000
0.920000	20.020000	17.840000	304.000000	0.000000	156.000000	51.000000	9.000000	66.000000
0.930000	20.110000	18.290000	307.000000	0.000000	155.000000	52.000000	9.000000	45.000000
0.940000	20.200000	18.470000	307.000000	0.000000	154.000000	53.000000	9.000000	18.000000
0.950000	20.200000	18.370000	337.000000	0.000000	153.000000	53.000000	0.000000	-10.000000
0.960000	20.200000	18.080000	351.000000	0.000000	152.000000	54.000000	0.000000	-29.000000
0.970000	20.200000	17.160000	369.000000	0.000000	151.000000	54.000000	0.000000	-92.000000
0.980000	20.200000	15.980000	394.000000	0.000000	151.000000	54.000000	0.000000	-118.000000
0.990000	20.140000	14.640000	396.000000	0.000000	151.000000	54.000000	-6.000000	-134.000000
1.000000	20.260000	13.540000	398.000000	0.000000	152.000000	54.000000	12.000000	-110.000000
1.010000	20.400000	12.720000	389.000000	0.000000	153.000000	54.000000	14.000000	-82.000000
1.020000	20.620000	12.100000	392.000000	0.000000	154.000000	53.000000	22.000000	-62.000000
1.030000	20.870000	11.770000	392.000000	0.000000	155.000000	52.000000	25.000000	-33.000000
1.040000	21.100000	11.620000	394.000000	0.000000	155.000000	52.000000	23.000000	-15.000000
1.050000	21.280000	11.620000	398.000000	0.000000	155.000000	52.000000	18.000000	0.000000
1.060000	21.400000	11.720000	382.000000	0.000000	155.000000	52.000000	12.000000	10.000000
1.070000	21.470000	12.150000	356.000000	0.000000	154.000000	53.000000	7.000000	43.000000
1.080000	21.470000	12.790000	332.000000	0.000000	154.000000	53.000000	0.000000	64.000000
1.090000	21.310000	13.400000	327.000000	0.000000	153.000000	53.000000	-16.000000	61.000000
1.100000	20.960000	13.960000	344.000000	0.000000	153.000000	53.000000	-35.000000	56.000000
1.110000	20.630000	14.250000	333.000000	0.000000	153.000000	53.000000	-33.000000	29.000000
1.120000	20.320000	14.380000	361.000000	0.000000	153.000000	53.000000	-31.000000	13.000000
1.130000	20.030000	14.380000	369.000000	0.000000	155.000000	52.000000	-29.000000	0.000000
1.140000	19.780000	14.230000	373.000000	0.000000	155.000000	52.000000	-25.000000	-15.000000
1.150000	19.570000	14.010000	373.000000	0.000000	155.000000	52.000000	-21.000000	-22.000000
1.160000	19.570000	13.750000	369.000000	0.000000	156.000000	51.000000	0.000000	-26.000000
1.170000	19.620000	13.510000	377.000000	0.000000	156.000000	51.000000	5.000000	-24.000000
1.180000	19.900000	13.410000	381.000000	0.000000	156.000000	51.000000	28.000000	-10.000000
1.190000	20.200000	13.410000	387.000000	0.000000	156.000000	51.000000	30.000000	0.000000
1.200000	20.570000	13.410000	387.000000	0.000000	156.000000	51.000000	37.000000	0.000000
1.210000	21.010000	13.520000	391.000000	0.000000	156.000000	51.000000	44.000000	11.000000
1.220000	21.330000	13.680000	391.000000	0.000000	155.000000	52.000000	32.000000	16.000000
1.230000	21.580000	13.680000	391.000000	0.000000	155.000000	52.000000	25.000000	0.000000
1.240000	21.710000	13.740000	386.000000	0.000000	155.000000	52.000000	13.000000	6.000000
1.250000	21.710000	13.740000	387.000000	0.000000	155.000000	52.000000	0.000000	0.000000
1.260000	21.710000	13.740000	387.000000	0.000000	154.000000	52.000000	0.000000	0.000000
1.270000	21.710000	13.740000	386.000000	0.000000	154.000000	52.000000	0.000000	0.000000
1.280000	21.710000	13.740000	386.000000	0.000000	154.000000	52.000000	0.000000	0.000000
1.290000	21.710000	13.740000	387.000000	0.000000	153.000000	52.000000	0.000000	0.000000
1.300000	21.710000	13.740000	386.000000	0.000000	153.000000	52.000000	0.000000	0.000000
1.310000	21.710000	13.740000	387.000000	0.000000	153.000000	52.000000	0.000000	0.000000
1.320000	21.710000	13.740000	387.000000	0.000000	153.000000	52.000000	0.000000	0.000000
1.330000	21.760000	13.740000	389.000000	0.000000	153.000000	52.000000	5.000000	0.000000
1.340000	21.760000	13.740000	389.000000	0.000000	153.000000	52.000000	0.000000	0.000000
1.350000	21.760000	13.740000	387.000000	0.000000	153.000000	52.000000	0.000000	0.000000
1.360000	21.760000	13.740000	386.000000	0.000000	153.000000	52.000000	0.000000	0.000000
1.370000	21.760000	13.740000	387.000000	0.000000	153.000000	52.000000	0.000000	0.000000
1.380000	21.760000	13.740000	387.000000	0.000000	153.000000	52.000000	0.000000	0.000000
1.390000	21.760000	13.740000	387.000000	0.000000	153.000000	52.000000	0.000000	0.000000
1.400000	21.760000	13.740000	387.000000	0.000000	153.000000	52.000000	0.000000	0.000000
1.410000	21.760000	13.740000	387.000000	0.000000	153.000000	52.000000	0.000000	0.000000
1.420000	21.760000	13.740000	379.000000	0.000000	153.000000	52.000000	0.000000	0.000000
1.430000	21.760000	13.740000	379.000000	0.000000	151.000000	51.000000	0.000000	0.000000
1.440000	21.880000	13.840000	377.000000	0.000000	151.000000	51.000000	12.000000	10.000000
1.450000	22.030000	13.980000	379.000000	0.000000	151.000000	51.000000	15.000000	14.000000
1.460000	22.180000	14.150000	376.000000	0.000000	151.000000	51.000000	15.000000	17.000000
1.470000	22.300000	14.380000	372.000000	0.000000	151.000000	51.000000	12.000000	23.000000
1.480000	22.410000	14.630000	366.000000	0.000000	151.000000	51.000000	11.000000	25.000000
1.490000	22.470000	14.890000	373.000000	0.000000	151.000000	51.000000	6.000000	26.000000
1.500000	22.470000	15.040000	361.000000	0.000000	151.000000	51.000000	0.000000	15.000000
1.510000	22.520000	15.130000	361.000000	0.000000	151.000000	51.000000	5.000000	9.000000
1.520000	22.520000	15.130000	369.000000	0.000000	152.000000	51.000000	0.000000	0.000000
1.530000	22.520000	15.130000	369.000000	0.000000	152.000000	51.000000	0.000000	0.000000
1.540000	22.460000	14.840000	371.000000	0.000000	152.000000	51.000000	-6.000000	-29.000000
1.550000	22.370000	14.400000	362.000000	0.000000	152.000000	51.000000	-9.000000	-44.000000
1.560000	22.300000	13.920000	367.000000	0.000000	152.000000	51.000000	-7.000000	-48.000000
1.570000	22.300000	13.440000	367.000000	0.000000	152.000000	51.000000	0.000000	-48.000000
1.580000	22.300000	12.960000	369.000000	0.000000	151.000000	51.000000	0.000000	-48.000000
1.590000	22.300000	12.510000	369.000000	0.000000	151.000000	51.000000	0.000000	-45.000000
1.600000	22.480000	12.270000	371.000000	0.000000	150.000000	52.000000	18.000000	-24.000000
1.610000	22.650000	12.130000	369.000000	0.000000	150.000000	52.000000	17.000000	-14.000000
1.620000	22.850000	12.130000	367.000000	0.000000	149.000000	53.000000	20.000000	0.000000
1.630000	23.070000	12.220000	364.000000	0.000000	151.000000	53.000000	22.000000	9.000000
1.640000	23.340000	12.470000	373.000000	0.000000	151.000000	53.000000	27.000000	25.000000
1.650000	23.650000	12.860000	371.000000	0.000000	151.000000	53.000000	31.000000	39.000000
1.660000	23.850000	13.350000	361.000000	0.000000	151.000000	53.000000	20.000000	49.000000
1.670000	23.980000	13.910000	363.000000	0.000000	151.000000	53.000000	13.000000	56.000000
1.680000	24.040000	14.380000	363.000000	0.000000	151.000000	53.000000	6.000000	47.000000
1.690000	24.040000	14.680000	363.000000	0.000000	151.000000	53.000000	0.000000	30.000000
1.700000	24.040000	14.870000	361.000000	0.000000	151.000000	53.000000	0.000000	19.000000
1.710000	24.040000	14.870000	367.000000	0.000000	151.000000	53.000000	0.000000	0.000000
1.720000	24.040000	14.740000	391.000000	0.000000	151.000000	53.000000	0.000000	-13.000000
1.730000	23.980000	14.370000	399.000000	0.000000	152.000000	53.000000	-6.000000	-37.000000
1.740000	23.980000	13.830000	392.000000	0.000000	152.000000	53.000000	0.000000	-54.000000
1.750000	23.980000	13.240000	396.000000	0.000000	152.000000	53.000000	0.000000	-59.000000
1.760000	23.980000	12.770000	391.000000	0.000000	152.000000	53.000000	0.000000	-47.000000
1.770000	24.130000	12.370000	413.000000	0.000000	151.000000	53.000000	15.000000	-40.000000
1.780000	24.340000	12.230000	397.000000	0.000000	151.000000	53.000000	21.000000	-14.000000
1.790000	24.630000	12.230000	402.000000	0.000000	151.000000	53.000000	29.000000	0.000000
1.800000	24.920000	12.320000	397.000000	0.000000	151.000000	54.000000	29.000000	9.000000
1.810000	25.240000	12.570000	399.000000	0.000000	151.000000	54.000000	32.000000	25.000000
1.820000	25.420000	12.810000	398.000000	0.000000	151.000000	54.000000	18.000000	24.000000
1.830000	25.510000	13.130000	379.000000	0.000000	151.000000	54.000000	9.000000	32.000000
1.840000	25.620000	13.510000	366.000000	0.000000	151.000000	54.000000	11.000000	38.000000
1.850000	25.680000	13.840000	364.000000	0.000000	151.000000	54.000000	6.000000	33.000000
1.860000	25.680000	14.130000	364.000000	0.000000	151.000000	54.000000	0.000000	29.000000
1.870000	25.760000	14.290000	366.000000	0.000000	151.000000	54.000000	8.000000	16.000000
1.880000	25.760000	14.390000	367.000000	0.000000	151.000000	54.000000	0.000000	10.000000
1.890000	25.760000	14.390000	367.000000	0.000000	151.000000	54.000000	0.000000	0.000000
1.900000	25.760000	14.440000	362.000000	0.000000	151.000000	54.000000	0.000000	5.000000
1.910000	25.760000	14.440000	362.000000	0.000000	152.000000	54.000000	0.000000	0.000000
1.920000	25.760000	14.380000	362.000000	0.000000	152.000000	54.000000	0.000000	-6.000000
1.930000	25.830000	14.290000	364.000000	0.000000	152.000000	54.000000	7.000000	-9.000000
1.940000	25.890000	14.140000	361.000000	0.000000	153.000000	54.000000	6.000000	-15.000000
1.950000	25.950000	13.980000	366.000000	0.000000	153.000000	54.000000	6.000000	-16.000000
1.960000	25.950000	13.810000	362.000000	0.000000	153.000000	54.000000	0.000000	-17.000000
1.970000	25.950000	13.620000	366.000000	0.000000	153.000000	54.000000	0.000000	-19.000000
1.980000	25.950000	13.410000	364.000000	0.000000	153.000000	54.000000	0.000000	-21.000000
1.990000	25.900000	13.160000	366.000000	0.000000	153.000000	55.000000	-5.000000	-25.000000
2.000000	25.900000	12.920000	367.000000	0.000000	154.000000	55.000000	0.000000	-24.000000
2.010000	25.980000	12.720000	362.000000	0.000000	154.000000	55.000000	8.000000	-20.000000
2.020000	26.170000	12.640000	369.000000	0.000000	154.000000	55.000000	19.000000	-8.000000
2.030000	26.450000	12.640000	344.000000	0.000000	153.000000	56.000000	28.000000	0.000000
2.040000	26.760000	12.770000	317.000000	0.000000	153.000000	56.000000	31.000000	13.000000
2.050000	27.070000	13.000000	314.000000	0.000000	153.000000	56.000000	31.000000	23.000000
2.060000	27.260000	13.320000	284.000000	0.000000	153.000000	56.000000	19.000000	32.000000
2.070000	27.360000	13.580000	285.000000	0.000000	153.000000	56.000000	10.000000	26.000000
2.080000	27.360000	13.840000	274.000000	0.000000	152.000000	56.000000	0.000000	26.000000
2.090000	27.240000	14.070000	270.000000	0.000000	152.000000	56.000000	-12.000000	23.000000
2.100000	27.090000	14.290000	267.000000	0.000000	150.000000	55.000000	-15.000000	22.000000
2.110000	26.940000	14.450000	274.000000	0.000000	150.000000	55.000000	-15.000000	16.000000
2.120000	26.820000	14.530000	277.000000	0.000000	151.000000	54.000000	-12.000000	8.000000
2.130000	26.820000	14.530000	285.000000	0.000000	150.000000	54.000000	0.000000	0.000000
2.140000	26.820000	14.390000	286.000000	0.000000	150.000000	54.000000	0.000000	-14.000000
2.150000	26.820000	14.220000	287.000000	0.000000	150.000000	54.000000	0.000000	-17.000000
2.160000	26.820000	13.970000	291.000000	0.000000	149.000000	53.000000	0.000000	-25.000000
2.170000	27.010000	13.690000	291.000000	0.000000	149.000000	53.000000	19.000000	-28.000000
2.180000	27.240000	13.580000	284.000000	0.000000	148.000000	54.000000	23.000000	-11.000000
2.190000	27.530000	13.580000	282.000000	0.000000	150.000000	54.000000	29.000000	0.000000
2.200000	27.880000	13.760000	277.000000	0.000000	150.000000	54.000000	35.000000	18.000000
2.210000	28.230000	13.950000	276.000000	0.000000	150.000000	54.000000	35.000000	19.000000
2.220000	28.500000	14.200000	274.000000	0.000000	151.000000	54.000000	27.000000	25.000000
