t	x	y	pressure	penup	azimuth	inclination	v_x	v_y
0.000000	14.840000	34.150000	88.000000	1.000000	150.000000	57.000000	0.000000	0.000000
0.010000	15.180000	34.230000	161.000000	0.000000	149.000000	58.000000	34.000000	8.000000
0.020000	14.980000	34.660000	170.000000	0.000000	147.000000	58.000000	-20.000000	43.000000
0.030000	14.740000	34.750000	181.000000	0.000000	144.000000	58.000000	-24.000000	9.000000
0.040000	14.470000	34.800000	237.000000	0.000000	143.000000	59.000000	-27.000000	5.000000
0.050000	14.110000	34.800000	292.000000	0.000000	142.000000	58.000000	-36.000000	0.000000
0.060000	13.690000	34.700000	336.000000	0.000000	139.000000	58.000000	-42.000000	-10.000000
0.070000	13.240000	34.540000	379.000000	0.000000	139.000000	58.000000	-45.000000	-16.000000
0.080000	12.840000	34.330000	396.000000	0.000000	138.000000	58.000000	-40.000000	-21.000000
0.090000	12.620000	34.030000	394.000000	0.000000	138.000000	58.000000	-22.000000	-30.000000
0.100000	12.520000	33.670000	389.000000	0.000000	138.000000	58.000000	-10.000000	-36.000000
0.110000	12.670000	33.390000	398.000000	0.000000	136.000000	57.000000	15.000000	-28.000000
0.120000	12.880000	33.100000	392.000000	0.000000	136.000000	57.000000	21.000000	-29.000000
0.130000	13.380000	32.790000	394.000000	0.000000	136.000000	57.000000	50.000000	-31.000000
0.140000	14.040000	32.500000	389.000000	0.000000	136.000000	57.000000	66.000000	-29.000000
0.150000	14.620000	32.250000	391.000000	0.000000	138.000000	58.000000	58.000000	-25.000000
0.160000	14.920000	31.970000	394.000000	0.000000	138.000000	58.000000	30.000000	-28.000000
0.170000	15.020000	31.680000	400.000000	0.000000	139.000000	58.000000	10.000000	-29.000000
0.180000	14.860000	31.420000	441.000000	0.000000	139.000000	58.000000	-16.000000	-26.000000
0.190000	14.540000	31.180000	440.000000	0.000000	139.000000	60.000000	-32.000000	-24.000000
0.200000	14.100000	30.870000	442.000000	0.000000	139.000000	60.000000	-44.000000	-31.000000
0.210000	13.550000	30.620000	449.000000	0.000000	139.000000	60.000000	-55.000000	-25.000000
0.220000	13.010000	30.560000	404.000000	0.000000	139.000000	60.000000	-54.000000	-6.000000
0.230000	12.690000	30.560000	247.000000	0.000000	139.000000	60.000000	-32.000000	0.000000
0.240000	12.690000	30.560000	0.000000	1.000000	139.000000	60.000000	0.000000	0.000000
0.250000	12.570000	30.730000	0.000000	0.000000	138.000000	59.000000	-12.000000	17.000000
0.260000	12.810000	30.920000	0.000000	0.000000	138.000000	59.000000	24.000000	19.000000
0.270000	13.160000	31.180000	0.000000	0.000000	138.000000	59.000000	35.000000	26.000000
0.280000	13.630000	31.280000	0.000000	0.000000	138.000000	59.000000	47.000000	10.000000
0.290000	14.130000	31.370000	0.000000	0.000000	138.000000	59.000000	50.000000	9.000000
0.300000	14.680000	31.420000	0.000000	0.000000	138.000000	59.000000	55.000000	5.000000
0.310000	15.190000	31.420000	0.000000	0.000000	139.000000	60.000000	51.000000	0.000000
0.320000	15.670000	31.280000	0.000000	0.000000	142.000000	59.000000	48.000000	-14.000000
0.330000	15.930000	31.040000	0.000000	0.000000	142.000000	59.000000	26.000000	-24.000000
0.340000	15.930000	31.040000	405.000000	1.000000	144.000000	60.000000	0.000000	0.000000
0.350000	15.930000	31.040000	422.000000	0.000000	144.000000	60.000000	0.000000	0.000000
0.360000	15.930000	31.040000	507.000000	0.000000	144.000000	60.000000	0.000000	0.000000
0.370000	15.930000	31.040000	569.000000	0.000000	144.000000	60.000000	0.000000	0.000000
0.380000	15.930000	31.040000	617.000000	0.000000	142.000000	61.000000	0.000000	0.000000
0.390000	15.930000	31.040000	641.000000	0.000000	142.000000	61.000000	0.000000	0.000000
0.400000	15.930000	31.040000	656.000000	0.000000	142.000000	61.000000	0.000000	0.000000
0.410000	15.930000	31.040000	653.000000	0.000000	142.000000	61.000000	0.000000	0.000000
0.420000	15.930000	31.040000	667.000000	0.000000	141.000000	60.000000	0.000000	0.000000
0.430000	15.930000	31.040000	662.000000	0.000000	141.000000	60.000000	0.000000	0.000000
0.440000	15.930000	31.040000	663.000000	0.000000	141.000000	60.000000	0.000000	0.000000
0.450000	15.930000	31.040000	676.000000	0.000000	141.000000	60.000000	0.000000	0.000000
0.460000	15.930000	31.040000	693.000000	0.000000	141.000000	60.000000	0.000000	0.000000
0.470000	15.930000	31.040000	703.000000	0.000000	141.000000	60.000000	0.000000	0.000000
0.480000	15.930000	31.040000	721.000000	0.000000	142.000000	61.000000	0.000000	0.000000
0.490000	15.930000	31.040000	727.000000	0.000000	142.000000	61.000000	0.000000	0.000000
0.500000	15.930000	31.040000	730.000000	0.000000	142.000000	61.000000	0.000000	0.000000
0.510000	15.930000	31.040000	733.000000	0.000000	144.000000	60.000000	0.000000	0.000000
0.520000	15.930000	31.040000	720.000000	0.000000	144.000000	60.000000	0.000000	0.000000
0.530000	15.930000	31.040000	733.000000	0.000000	144.000000	60.000000	0.000000	0.000000
0.540000	15.930000	31.040000	716.000000	0.000000	144.000000	60.000000	0.000000	0.000000
0.550000	15.930000	31.040000	691.000000	0.000000	144.000000	60.000000	0.000000	0.000000
0.560000	15.930000	31.040000	649.000000	0.000000	144.000000	60.000000	0.000000	0.000000
0.570000	15.930000	31.040000	563.000000	0.000000	144.000000	60.000000	0.000000	0.000000
0.580000	15.930000	31.040000	371.000000	0.000000	144.000000	60.000000	0.000000	0.000000
0.590000	15.930000	31.040000	195.000000	0.000000	144.000000	60.000000	0.000000	0.000000
0.600000	15.930000	31.040000	0.000000	1.000000	144.000000	60.000000	0.000000	0.000000
0.610000	16.310000	31.140000	0.000000	0.000000	144.000000	60.000000	38.000000	10.000000
0.620000	16.680000	31.360000	0.000000	0.000000	142.000000	59.000000	37.000000	22.000000
0.630000	16.740000	31.540000	0.000000	0.000000	142.000000	58.000000	6.000000	18.000000
0.640000	16.840000	31.690000	0.000000	0.000000	142.000000	58.000000	10.000000	15.000000
0.650000	17.030000	31.770000	0.000000	0.000000	142.000000	57.000000	19.000000	8.000000
0.660000	17.260000	31.770000	0.000000	0.000000	139.000000	56.000000	23.000000	0.000000
0.670000	17.500000	31.820000	0.000000	0.000000	139.000000	55.000000	24.000000	5.000000
0.680000	17.650000	31.820000	0.000000	0.000000	137.000000	54.000000	15.000000	0.000000
0.690000	17.740000	31.820000	0.000000	0.000000	136.000000	54.000000	9.000000	0.000000
0.700000	17.670000	31.750000	0.000000	0.000000	137.000000	53.000000	-7.000000	-7.000000
0.710000	17.580000	31.750000	0.000000	0.000000	137.000000	53.000000	-9.000000	0.000000
0.720000	17.470000	31.750000	0.000000	0.000000	136.000000	52.000000	-11.000000	0.000000
0.730000	17.420000	31.750000	0.000000	0.000000	136.000000	52.000000	-5.000000	0.000000
0.740000	17.420000	31.750000	0.000000	0.000000	136.000000	52.000000	0.000000	0.000000
0.750000	17.370000	31.750000	0.000000	0.000000	136.000000	52.000000	-5.000000	0.000000
0.760000	17.370000	31.750000	0.000000	0.000000	136.000000	52.000000	0.000000	0.000000
0.770000	17.490000	31.750000	0.000000	0.000000	136.000000	52.000000	12.000000	0.000000
0.780000	17.580000	31.750000	0.000000	0.000000	136.000000	52.000000	9.000000	0.000000
0.790000	17.690000	31.700000	0.000000	0.000000	137.000000	53.000000	11.000000	-5.000000
0.800000	17.760000	31.700000	0.000000	0.000000	137.000000	53.000000	7.000000	0.000000
0.810000	17.760000	31.760000	0.000000	0.000000	137.000000	53.000000	0.000000	6.000000
0.820000	17.760000	31.760000	0.000000	0.000000	137.000000	53.000000	0.000000	0.000000
0.830000	17.760000	31.760000	0.000000	0.000000	137.000000	53.000000	0.000000	0.000000
0.840000	17.760000	31.810000	0.000000	0.000000	136.000000	54.000000	0.000000	5.000000
0.850000	17.760000	31.740000	0.000000	0.000000	137.000000	54.000000	0.000000	-7.000000
0.860000	17.670000	31.650000	0.000000	0.000000	137.000000	54.000000	-9.000000	-9.000000
0.870000	17.590000	31.530000	0.000000	0.000000	137.000000	54.000000	-8.000000	-12.000000
0.880000	17.590000	31.400000	0.000000	0.000000	139.000000	55.000000	0.000000	-13.000000
0.890000	17.510000	31.300000	0.000000	0.000000	139.000000	55.000000	-8.000000	-10.000000
0.900000	17.460000	31.210000	0.000000	0.000000	139.000000	55.000000	-5.000000	-9.000000
0.910000	17.460000	31.210000	46.000000	1.000000	140.000000	55.000000	0.000000	0.000000
0.920000	17.460000	31.210000	61.000000	0.000000	140.000000	55.000000	0.000000	0.000000
0.930000	17.460000	31.210000	73.000000	0.000000	139.000000	56.000000	0.000000	0.000000
0.940000	17.460000	31.210000	122.000000	0.000000	139.000000	56.000000	0.000000	0.000000
0.950000	17.460000	31.210000	158.000000	0.000000	139.000000	56.000000	0.000000	0.000000
0.960000	17.460000	31.210000	180.000000	0.000000	139.000000	56.000000	0.000000	0.000000
0.970000	17.460000	31.210000	217.000000	0.000000	139.000000	56.000000	0.000000	0.000000
0.980000	17.460000	31.210000	249.000000	0.000000	139.000000	56.000000	0.000000	0.000000
0.990000	17.460000	31.210000	285.000000	0.000000	139.000000	56.000000	0.000000	0.000000
1.000000	17.460000	31.210000	297.000000	0.000000	139.000000	56.000000	0.000000	0.000000
1.010000	17.460000	31.210000	309.000000	0.000000	139.000000	56.000000	0.000000	0.000000
1.020000	17.770000	31.790000	305.000000	0.000000	139.000000	56.000000	31.000000	58.000000
1.030000	18.070000	32.350000	317.000000	0.000000	140.000000	56.000000	30.000000	56.000000
1.040000	18.300000	32.970000	310.000000	0.000000	140.000000	56.000000	23.000000	62.000000
1.050000	18.470000	33.780000	314.000000	0.000000	140.000000	56.000000	17.000000	81.000000
1.060000	18.610000	34.570000	317.000000	0.000000	139.000000	57.000000	14.000000	79.000000
1.070000	18.760000	35.330000	319.000000	0.000000	140.000000	58.000000	15.000000	76.000000
1.080000	18.880000	35.880000	319.000000	0.000000	140.000000	58.000000	12.000000	55.000000
1.090000	18.990000	36.310000	327.000000	0.000000	140.000000	58.000000	11.000000	43.000000
1.100000	19.040000	36.520000	333.000000	0.000000	140.000000	58.000000	5.000000	21.000000
1.110000	19.040000	36.520000	334.000000	0.000000	140.000000	58.000000	0.000000	0.000000
1.120000	19.040000	36.470000	349.000000	0.000000	140.000000	58.000000	0.000000	-5.000000
1.130000	19.040000	35.960000	373.000000	0.000000	140.000000	58.000000	0.000000	-51.000000
1.140000	19.090000	35.120000	379.000000	0.000000	140.000000	58.000000	5.000000	-84.000000
1.150000	19.190000	34.070000	381.000000	0.000000	140.000000	58.000000	10.000000	-105.000000
1.160000	19.320000	33.020000	394.000000	0.000000	140.000000	58.000000	13.000000	-105.000000
1.170000	19.460000	32.250000	396.000000	0.000000	142.000000	57.000000	14.000000	-77.000000
1.180000	19.720000	31.680000	389.000000	0.000000	140.000000	56.000000	26.000000	-57.000000
1.190000	19.990000	31.380000	392.000000	0.000000	140.000000	56.000000	27.000000	-30.000000
1.200000	20.210000	31.260000	396.000000	0.000000	140.000000	56.000000	22.000000	-12.000000
1.210000	20.400000	31.260000	389.000000	0.000000	139.000000	56.000000	19.000000	0.000000
1.220000	20.590000	31.350000	386.000000	0.000000	139.000000	56.000000	19.000000	9.000000
1.230000	20.720000	31.640000	351.000000	0.000000	138.000000	55.000000	13.000000	29.000000
1.240000	20.800000	32.050000	305.000000	0.000000	138.000000	55.000000	8.000000	41.000000
1.250000	20.670000	32.550000	279.000000	0.000000	138.000000	55.000000	-13.000000	50.000000
1.260000	20.430000	33.070000	269.000000	0.000000	138.000000	55.000000	-24.000000	52.000000
1.270000	20.110000	33.610000	279.000000	0.000000	138.000000	55.000000	-32.000000	54.000000
1.280000	19.780000	33.900000	287.000000	0.000000	136.000000	56.000000	-33.000000	29.000000
1.290000	19.460000	34.010000	306.000000	0.000000	138.000000	57.000000	-32.000000	11.000000
1.300000	19.140000	34.010000	324.000000	0.000000	138.000000	57.000000	-32.000000	0.000000
1.310000	19.020000	33.870000	335.000000	0.000000	139.000000	57.000000	-12.000000	-14.000000
1.320000	18.950000	33.680000	336.000000	0.000000	139.000000	57.000000	-7.000000	-19.000000
1.330000	19.010000	33.410000	344.000000	0.000000	139.000000	57.000000	6.000000	-27.000000
1.340000	19.170000	33.150000	361.000000	0.000000	139.000000	57.000000	16.000000	-26.000000
1.350000	19.420000	33.000000	371.000000	0.000000	139.000000	57.000000	25.000000	-15.000000
1.360000	19.830000	32.900000	369.000000	0.000000	139.000000	57.000000	41.000000	-10.000000
1.370000	20.340000	32.900000	371.000000	0.000000	139.000000	57.000000	51.000000	0.000000
1.380000	20.880000	33.020000	361.000000	0.000000	139.000000	57.000000	54.000000	12.000000
1.390000	21.220000	33.160000	361.000000	0.000000	139.000000	57.000000	34.000000	14.000000
1.400000	21.430000	33.240000	361.000000	0.000000	138.000000	57.000000	21.000000	8.000000
1.410000	21.570000	33.290000	353.000000	0.000000	138.000000	57.000000	14.000000	5.000000
1.420000	21.630000	33.290000	344.000000	0.000000	138.000000	57.000000	6.000000	0.000000
1.430000	21.630000	33.290000	334.000000	0.000000	138.000000	57.000000	0.000000	0.000000
1.440000	21.630000	33.290000	312.000000	0.000000	136.000000	56.000000	0.000000	0.000000
1.450000	21.630000	33.290000	299.000000	0.000000	136.000000	56.000000	0.000000	0.000000
1.460000	21.630000	33.290000	291.000000	0.000000	136.000000	56.000000	0.000000	0.000000
1.470000	21.820000	33.390000	282.000000	0.000000	136.000000	56.000000	19.000000	10.000000
1.480000	21.910000	33.510000	282.000000	0.000000	136.000000	56.000000	9.000000	12.000000
1.490000	21.910000	33.510000	287.000000	0.000000	136.000000	56.000000	0.000000	0.000000
1.500000	21.910000	33.510000	296.000000	0.000000	136.000000	56.000000	0.000000	0.000000
1.510000	21.910000	33.510000	302.000000	0.000000	136.000000	56.000000	0.000000	0.000000
1.520000	21.840000	33.370000	309.000000	0.000000	136.000000	56.000000	-7.000000	-14.000000
1.530000	21.780000	33.050000	315.000000	0.000000	136.000000	56.000000	-6.000000	-32.000000
1.540000	21.780000	32.610000	317.000000	0.000000	136.000000	56.000000	0.000000	-44.000000
1.550000	21.780000	32.260000	317.000000	0.000000	136.000000	56.000000	0.000000	-35.000000
1.560000	21.840000	31.980000	329.000000	0.000000	136.000000	56.000000	6.000000	-28.000000
1.570000	21.980000	31.740000	325.000000	0.000000	135.000000	55.000000	14.000000	-24.000000
1.580000	22.130000	31.650000	325.000000	0.000000	136.000000	55.000000	15.000000	-9.000000
1.590000	22.300000	31.650000	314.000000	0.000000	136.000000	55.000000	17.000000	0.000000
1.600000	22.490000	31.760000	305.000000	0.000000	136.000000	55.000000	19.000000	11.000000
1.610000	22.710000	31.990000	305.000000	0.000000	136.000000	55.000000	22.000000	23.000000
1.620000	22.900000	32.340000	305.000000	0.000000	135.000000	54.000000	19.000000	35.000000
1.630000	23.070000	32.760000	305.000000	0.000000	136.000000	55.000000	17.000000	42.000000
1.640000	23.180000	33.230000	305.000000	0.000000	135.000000	55.000000	11.000000	47.000000
1.650000	23.180000	33.690000	305.000000	0.000000	135.000000	55.000000	0.000000	46.000000
1.660000	23.180000	33.920000	325.000000	0.000000	135.000000	55.000000	0.000000	23.000000
1.670000	23.180000	33.990000	335.000000	0.000000	136.000000	56.000000	0.000000	7.000000
1.680000	23.180000	33.940000	348.000000	0.000000	136.000000	56.000000	0.000000	-5.000000
1.690000	23.180000	33.610000	359.000000	0.000000	136.000000	56.000000	0.000000	-33.000000
1.700000	23.180000	33.100000	369.000000	0.000000	136.000000	56.000000	0.000000	-51.000000
1.710000	23.180000	32.520000	377.000000	0.000000	136.000000	56.000000	0.000000	-58.000000
1.720000	23.180000	32.010000	386.000000	0.000000	136.000000	56.000000	0.000000	-51.000000
1.730000	23.350000	31.680000	387.000000	0.000000	136.000000	56.000000	17.000000	-33.000000
1.740000	23.550000	31.440000	391.000000	0.000000	136.000000	56.000000	20.000000	-24.000000
1.750000	23.820000	31.280000	396.000000	0.000000	135.000000	55.000000	27.000000	-16.000000
1.760000	24.140000	31.280000	389.000000	0.000000	135.000000	55.000000	32.000000	0.000000
1.770000	24.440000	31.420000	382.000000	0.000000	135.000000	55.000000	30.000000	14.000000
1.780000	24.710000	31.650000	376.000000	0.000000	135.000000	55.000000	27.000000	23.000000
1.790000	24.890000	31.920000	366.000000	0.000000	136.000000	55.000000	18.000000	27.000000
1.800000	25.010000	32.230000	366.000000	0.000000	135.000000	55.000000	12.000000	31.000000
1.810000	25.120000	32.640000	359.000000	0.000000	136.000000	56.000000	11.000000	41.000000
1.820000	25.240000	33.000000	354.000000	0.000000	136.000000	56.000000	12.000000	36.000000
1.830000	25.380000	33.340000	351.000000	0.000000	136.000000	56.000000	14.000000	34.000000
1.840000	25.490000	33.470000	346.000000	0.000000	136.000000	56.000000	11.000000	13.000000
1.850000	25.580000	33.570000	330.000000	0.000000	138.000000	57.000000	9.000000	10.000000
1.860000	25.580000	33.570000	304.000000	0.000000	138.000000	57.000000	0.000000	0.000000
1.870000	25.580000	33.570000	302.000000	0.000000	138.000000	57.000000	0.000000	0.000000
1.880000	25.580000	33.480000	302.000000	0.000000	138.000000	57.000000	0.000000	-9.000000
1.890000	25.530000	33.420000	309.000000	0.000000	138.000000	57.000000	-5.000000	-6.000000
1.900000	25.410000	33.210000	307.000000	0.000000	138.000000	57.000000	-12.000000	-21.000000
1.910000	25.230000	32.960000	314.000000	0.000000	138.000000	57.000000	-18.000000	-25.000000
1.920000	25.230000	32.630000	319.000000	0.000000	138.000000	57.000000	0.000000	-33.000000
1.930000	25.230000	32.290000	325.000000	0.000000	138.000000	57.000000	0.000000	-34.000000
1.940000	25.230000	31.930000	324.000000	0.000000	138.000000	57.000000	0.000000	-36.000000
1.950000	25.230000	31.720000	329.000000	0.000000	136.000000	56.000000	0.000000	-21.000000
1.960000	25.420000	31.610000	329.000000	0.000000	136.000000	56.000000	19.000000	-11.000000
1.970000	25.670000	31.610000	327.000000	0.000000	136.000000	56.000000	25.000000	0.000000
1.980000	25.980000	31.730000	314.000000	0.000000	136.000000	56.000000	31.000000	12.000000
1.990000	26.270000	31.930000	309.000000	0.000000	136.000000	56.000000	29.000000	20.000000
2.000000	26.480000	32.170000	291.000000	0.000000	136.000000	56.000000	21.000000	24.000000
2.010000	26.650000	32.420000	260.000000	0.000000	136.000000	56.000000	17.000000	25.000000
2.020000	26.750000	32.690000	226.000000	0.000000	136.000000	56.000000	10.000000	27.000000
2.030000	26.670000	32.970000	220.000000	0.000000	138.000000	57.000000	-8.000000	28.000000
2.040000	26.470000	33.230000	195.000000	0.000000	138.000000	57.000000	-20.000000	26.000000
2.050000	26.250000	33.480000	200.000000	0.000000	138.000000	57.000000	-22.000000	25.000000
2.060000	26.050000	33.580000	222.000000	0.000000	138.000000	57.000000	-20.000000	10.000000
2.070000	25.920000	33.580000	219.000000	0.000000	138.000000	57.000000	-13.000000	0.000000
2.080000	25.840000	33.520000	246.000000	0.000000	139.000000	57.000000	-8.000000	-6.000000
2.090000	25.840000	33.280000	245.000000	0.000000	139.000000	57.000000	0.000000	-24.000000
2.100000	25.840000	32.940000	267.000000	0.000000	139.000000	57.000000	0.000000	-34.000000
2.110000	25.920000	32.600000	279.000000	0.000000	139.000000	57.000000	8.000000	-34.000000
2.120000	26.160000	32.390000	285.000000	0.000000	139.000000	57.000000	24.000000	-21.000000
2.130000	26.490000	32.280000	274.000000	0.000000	139.000000	57.000000	33.000000	-11.000000
2.140000	26.810000	32.280000	287.000000	0.000000	139.000000	57.000000	32.000000	0.000000
2.150000	27.140000	32.440000	285.000000	0.000000	139.000000	57.000000	33.000000	16.000000
2.160000	27.480000	32.630000	280.000000	0.000000	138.000000	57.000000	34.000000	19.000000
2.170000	27.720000	32.900000	282.000000	0.000000	138.000000	57.000000	24.000000	27.000000
2.180000	27.890000	33.180000	282.000000	0.000000	139.000000	57.000000	17.000000	28.000000
2.190000	27.990000	33.470000	282.000000	0.000000	139.000000	57.000000	10.000000	29.000000
2.200000	28.040000	33.630000	284.000000	0.000000	139.000000	57.000000	5.000000	16.000000
2.210000	28.040000	33.760000	277.000000	0.000000	139.000000	57.000000	0.000000	13.000000
2.220000	28.040000	33.760000	301.000000	0.000000	138.000000	58.000000	0.000000	0.000000
