t	x	y	pressure	penup	azimuth	inclination	v_x	v_y
0.000000	88.590000	82.380000	51.000000	1.000000	154.000000	56.000000	0.000000	0.000000
0.010000	88.590000	82.380000	63.000000	0.000000	154.000000	56.000000	0.000000	0.000000
0.020000	88.080000	82.260000	129.000000	0.000000	154.000000	56.000000	-51.000000	-12.000000
0.030000	87.670000	82.160000	205.000000	0.000000	154.000000	56.000000	-41.000000	-10.000000
0.040000	87.190000	82.000000	249.000000	0.000000	154.000000	56.000000	-48.000000	-16.000000
0.050000	86.580000	81.780000	296.000000	0.000000	154.000000	56.000000	-61.000000	-22.000000
0.060000	85.860000	81.480000	317.000000	0.000000	154.000000	56.000000	-72.000000	-30.000000
0.070000	85.060000	81.090000	361.000000	0.000000	154.000000	55.000000	-80.000000	-39.000000
0.080000	84.270000	80.640000	374.000000	0.000000	154.000000	55.000000	-79.000000	-45.000000
0.090000	83.510000	80.160000	388.000000	0.000000	153.000000	56.000000	-76.000000	-48.000000
0.100000	83.000000	79.710000	415.000000	0.000000	152.000000	56.000000	-51.000000	-45.000000
0.110000	82.650000	79.470000	415.000000	0.000000	152.000000	56.000000	-35.000000	-24.000000
0.120000	82.650000	79.340000	415.000000	0.000000	152.000000	56.000000	0.000000	-13.000000
0.130000	82.650000	79.340000	418.000000	0.000000	152.000000	56.000000	0.000000	0.000000
0.140000	82.650000	79.250000	439.000000	0.000000	153.000000	55.000000	0.000000	-9.000000
0.150000	82.970000	79.200000	471.000000	0.000000	153.000000	55.000000	32.000000	-5.000000
0.160000	83.440000	79.270000	490.000000	0.000000	153.000000	55.000000	47.000000	7.000000
0.170000	84.170000	79.330000	493.000000	0.000000	153.000000	54.000000	73.000000	6.000000
0.180000	85.030000	79.480000	496.000000	0.000000	153.000000	54.000000	86.000000	15.000000
0.190000	85.980000	79.690000	496.000000	0.000000	153.000000	55.000000	95.000000	21.000000
0.200000	86.810000	79.690000	498.000000	0.000000	153.000000	55.000000	83.000000	0.000000
0.210000	87.410000	79.570000	495.000000	0.000000	153.000000	55.000000	60.000000	-12.000000
0.220000	87.850000	79.380000	493.000000	0.000000	152.000000	56.000000	44.000000	-19.000000
0.230000	87.960000	79.130000	491.000000	0.000000	152.000000	56.000000	11.000000	-25.000000
0.240000	87.830000	78.800000	496.000000	0.000000	151.000000	56.000000	-13.000000	-33.000000
0.250000	87.550000	78.450000	488.000000	0.000000	151.000000	56.000000	-28.000000	-35.000000
0.260000	87.000000	78.100000	499.000000	0.000000	151.000000	56.000000	-55.000000	-35.000000
0.270000	86.320000	77.790000	501.000000	0.000000	151.000000	56.000000	-68.000000	-31.000000
0.280000	85.560000	77.520000	504.000000	0.000000	152.000000	56.000000	-76.000000	-27.000000
0.290000	84.840000	77.340000	502.000000	0.000000	152.000000	56.000000	-72.000000	-18.000000
0.300000	84.170000	77.340000	504.000000	0.000000	149.000000	56.000000	-67.000000	0.000000
0.310000	83.610000	77.430000	477.000000	0.000000	149.000000	56.000000	-56.000000	9.000000
0.320000	83.330000	77.670000	423.000000	0.000000	149.000000	56.000000	-28.000000	24.000000
0.330000	83.220000	77.940000	208.000000	0.000000	149.000000	56.000000	-11.000000	27.000000
0.340000	83.220000	77.940000	0.000000	1.000000	149.000000	56.000000	0.000000	0.000000
0.350000	83.920000	78.570000	0.000000	0.000000	149.000000	56.000000	70.000000	63.000000
0.360000	84.550000	78.880000	0.000000	0.000000	149.000000	56.000000	63.000000	31.000000
0.370000	85.050000	79.140000	0.000000	0.000000	150.000000	55.000000	50.000000	26.000000
0.380000	85.560000	79.390000	0.000000	0.000000	150.000000	55.000000	51.000000	25.000000
0.390000	86.180000	79.600000	0.000000	0.000000	152.000000	56.000000	62.000000	21.000000
0.400000	86.870000	79.810000	0.000000	0.000000	152.000000	56.000000	69.000000	21.000000
0.410000	87.610000	79.860000	0.000000	0.000000	152.000000	57.000000	74.000000	5.000000
0.420000	88.230000	79.810000	0.000000	0.000000	151.000000	58.000000	62.000000	-5.000000
0.430000	88.760000	79.660000	0.000000	0.000000	152.000000	59.000000	53.000000	-15.000000
0.440000	89.160000	79.470000	0.000000	0.000000	153.000000	59.000000	40.000000	-19.000000
0.450000	89.340000	79.260000	0.000000	0.000000	152.000000	60.000000	18.000000	-21.000000
0.460000	89.340000	79.050000	0.000000	0.000000	154.000000	60.000000	0.000000	-21.000000
0.470000	89.340000	79.050000	108.000000	1.000000	154.000000	60.000000	0.000000	0.000000
0.480000	89.340000	79.050000	148.000000	0.000000	155.000000	60.000000	0.000000	0.000000
0.490000	89.070000	78.980000	173.000000	0.000000	153.000000	59.000000	-27.000000	-7.000000
0.500000	88.950000	79.090000	175.000000	0.000000	154.000000	58.000000	-12.000000	11.000000
0.510000	88.890000	79.190000	120.000000	0.000000	155.000000	58.000000	-6.000000	10.000000
0.520000	88.890000	79.190000	0.000000	1.000000	154.000000	57.000000	0.000000	0.000000
0.530000	88.890000	79.250000	0.000000	0.000000	154.000000	56.000000	0.000000	6.000000
0.540000	88.890000	79.250000	0.000000	0.000000	154.000000	56.000000	0.000000	0.000000
0.550000	88.890000	79.250000	0.000000	0.000000	156.000000	57.000000	0.000000	0.000000
0.560000	88.890000	79.250000	0.000000	0.000000	156.000000	57.000000	0.000000	0.000000
0.570000	88.700000	78.930000	0.000000	0.000000	156.000000	57.000000	-19.000000	-32.000000
0.580000	88.700000	78.680000	0.000000	0.000000	157.000000	57.000000	0.000000	-25.000000
0.590000	88.890000	78.360000	0.000000	0.000000	157.000000	57.000000	19.000000	-32.000000
0.600000	89.120000	78.050000	0.000000	0.000000	157.000000	57.000000	23.000000	-31.000000
0.610000	89.380000	77.760000	0.000000	0.000000	158.000000	56.000000	26.000000	-29.000000
0.620000	89.640000	77.540000	0.000000	0.000000	157.000000	56.000000	26.000000	-22.000000
0.630000	89.870000	77.400000	0.000000	0.000000	157.000000	56.000000	23.000000	-14.000000
0.640000	90.070000	77.310000	0.000000	0.000000	156.000000	57.000000	20.000000	-9.000000
0.650000	90.220000	77.310000	0.000000	0.000000	154.000000	56.000000	15.000000	0.000000
0.660000	90.220000	77.310000	184.000000	1.000000	156.000000	57.000000	0.000000	0.000000
0.670000	90.220000	77.310000	205.000000	0.000000	155.000000	58.000000	0.000000	0.000000
0.680000	90.450000	78.030000	269.000000	0.000000	157.000000	58.000000	23.000000	72.000000
0.690000	90.540000	78.470000	302.000000	0.000000	158.000000	58.000000	9.000000	44.000000
0.700000	90.680000	79.090000	314.000000	0.000000	157.000000	59.000000	14.000000	62.000000
0.710000	90.810000	79.830000	339.000000	0.000000	157.000000	59.000000	13.000000	74.000000
0.720000	90.960000	80.660000	342.000000	0.000000	157.000000	59.000000	15.000000	83.000000
0.730000	91.020000	81.500000	333.000000	0.000000	157.000000	59.000000	6.000000	84.000000
0.740000	91.020000	82.340000	339.000000	0.000000	157.000000	59.000000	0.000000	84.000000
0.750000	90.940000	82.920000	343.000000	0.000000	158.000000	58.000000	-8.000000	58.000000
0.760000	90.850000	83.240000	364.000000	0.000000	158.000000	58.000000	-9.000000	32.000000
0.770000	90.760000	83.380000	366.000000	0.000000	157.000000	58.000000	-9.000000	14.000000
0.780000	90.760000	83.380000	371.000000	0.000000	157.000000	58.000000	0.000000	0.000000
0.790000	90.760000	83.330000	363.000000	0.000000	157.000000	58.000000	0.000000	-5.000000
0.800000	90.760000	83.110000	358.000000	0.000000	155.000000	58.000000	0.000000	-22.000000
0.810000	90.680000	82.770000	354.000000	0.000000	156.000000	57.000000	-8.000000	-34.000000
0.820000	90.740000	82.340000	358.000000	0.000000	156.000000	57.000000	6.000000	-43.000000
0.830000	90.830000	81.870000	359.000000	0.000000	156.000000	57.000000	9.000000	-47.000000
0.840000	90.990000	81.320000	361.000000	0.000000	156.000000	57.000000	16.000000	-55.000000
0.850000	91.170000	80.720000	359.000000	0.000000	155.000000	58.000000	18.000000	-60.000000
0.860000	91.380000	80.110000	359.000000	0.000000	155.000000	58.000000	21.000000	-61.000000
0.870000	91.600000	79.600000	363.000000	0.000000	155.000000	58.000000	22.000000	-51.000000
0.880000	91.850000	79.160000	369.000000	0.000000	155.000000	58.000000	25.000000	-44.000000
0.890000	92.140000	78.970000	369.000000	0.000000	155.000000	58.000000	29.000000	-19.000000
0.900000	92.430000	78.880000	373.000000	0.000000	155.000000	58.000000	29.000000	-9.000000
0.910000	92.730000	78.880000	371.000000	0.000000	155.000000	58.000000	30.000000	0.000000
0.920000	93.040000	79.060000	364.000000	0.000000	155.000000	58.000000	31.000000	18.000000
0.930000	93.270000	79.320000	342.000000	0.000000	155.000000	58.000000	23.000000	26.000000
0.940000	93.450000	79.630000	306.000000	0.000000	155.000000	58.000000	18.000000	31.000000
0.950000	93.450000	79.920000	259.000000	0.000000	155.000000	58.000000	0.000000	29.000000
0.960000	93.270000	80.160000	244.000000	0.000000	155.000000	58.000000	-18.000000	24.000000
0.970000	92.950000	80.230000	246.000000	0.000000	154.000000	58.000000	-32.000000	7.000000
0.980000	92.500000	80.230000	256.000000	0.000000	153.000000	58.000000	-45.000000	0.000000
0.990000	92.070000	80.020000	262.000000	0.000000	153.000000	58.000000	-43.000000	-21.000000
1.000000	91.680000	79.800000	270.000000	0.000000	152.000000	59.000000	-39.000000	-22.000000
1.010000	91.510000	79.530000	270.000000	0.000000	152.000000	59.000000	-17.000000	-27.000000
1.020000	91.460000	79.280000	284.000000	0.000000	152.000000	59.000000	-5.000000	-25.000000
1.030000	91.600000	79.090000	282.000000	0.000000	152.000000	59.000000	14.000000	-19.000000
1.040000	91.760000	78.950000	302.000000	0.000000	153.000000	59.000000	16.000000	-14.000000
1.050000	92.000000	78.880000	325.000000	0.000000	154.000000	58.000000	24.000000	-7.000000
1.060000	92.280000	78.880000	345.000000	0.000000	156.000000	59.000000	28.000000	0.000000
1.070000	92.590000	79.030000	343.000000	0.000000	156.000000	59.000000	31.000000	15.000000
1.080000	92.920000	79.240000	348.000000	0.000000	157.000000	58.000000	33.000000	21.000000
1.090000	93.240000	79.530000	348.000000	0.000000	157.000000	58.000000	32.000000	29.000000
1.100000	93.520000	79.870000	351.000000	0.000000	157.000000	58.000000	28.000000	34.000000
1.110000	93.790000	80.190000	349.000000	0.000000	155.000000	58.000000	27.000000	32.000000
1.120000	93.920000	80.490000	348.000000	0.000000	154.000000	58.000000	13.000000	30.000000
1.130000	93.970000	80.730000	353.000000	0.000000	153.000000	58.000000	5.000000	24.000000
1.140000	93.970000	80.870000	363.000000	0.000000	153.000000	58.000000	0.000000	14.000000
1.150000	93.920000	80.870000	369.000000	0.000000	150.000000	58.000000	-5.000000	0.000000
1.160000	93.920000	80.870000	344.000000	0.000000	150.000000	58.000000	0.000000	0.000000
1.170000	93.920000	80.870000	344.000000	0.000000	150.000000	58.000000	0.000000	0.000000
1.180000	93.920000	80.770000	345.000000	0.000000	149.000000	58.000000	0.000000	-10.000000
1.190000	94.000000	80.610000	334.000000	0.000000	149.000000	58.000000	8.000000	-16.000000
1.200000	94.090000	80.360000	336.000000	0.000000	149.000000	58.000000	9.000000	-25.000000
1.210000	94.220000	80.120000	339.000000	0.000000	149.000000	58.000000	13.000000	-24.000000
1.220000	94.370000	79.890000	339.000000	0.000000	149.000000	58.000000	15.000000	-23.000000
1.230000	94.540000	79.700000	339.000000	0.000000	149.000000	58.000000	17.000000	-19.000000
1.240000	94.670000	79.580000	338.000000	0.000000	149.000000	58.000000	13.000000	-12.000000
1.250000	94.780000	79.520000	358.000000	0.000000	147.000000	59.000000	11.000000	-6.000000
1.260000	95.010000	79.520000	358.000000	0.000000	147.000000	59.000000	23.000000	0.000000
1.270000	95.250000	79.730000	369.000000	0.000000	147.000000	59.000000	24.000000	21.000000
1.280000	95.490000	80.000000	371.000000	0.000000	147.000000	59.000000	24.000000	27.000000
1.290000	95.700000	80.290000	369.000000	0.000000	147.000000	59.000000	21.000000	29.000000
1.300000	95.850000	80.610000	373.000000	0.000000	147.000000	59.000000	15.000000	32.000000
1.310000	95.960000	80.940000	373.000000	0.000000	147.000000	59.000000	11.000000	33.000000
1.320000	95.960000	81.120000	371.000000	0.000000	147.000000	59.000000	0.000000	18.000000
1.330000	95.870000	81.290000	366.000000	0.000000	147.000000	59.000000	-9.000000	17.000000
1.340000	95.760000	81.400000	371.000000	0.000000	149.000000	58.000000	-11.000000	11.000000
1.350000	95.690000	81.450000	372.000000	0.000000	149.000000	58.000000	-7.000000	5.000000
1.360000	95.640000	81.450000	366.000000	0.000000	149.000000	58.000000	-5.000000	0.000000
1.370000	95.640000	81.450000	369.000000	0.000000	149.000000	58.000000	0.000000	0.000000
1.380000	95.640000	81.330000	367.000000	0.000000	147.000000	58.000000	0.000000	-12.000000
1.390000	95.730000	81.150000	367.000000	0.000000	147.000000	58.000000	9.000000	-18.000000
1.400000	95.810000	80.930000	366.000000	0.000000	147.000000	58.000000	8.000000	-22.000000
1.410000	95.810000	80.930000	367.000000	0.000000	147.000000	58.000000	0.000000	0.000000
1.420000	96.050000	80.500000	362.000000	0.000000	147.000000	58.000000	24.000000	-43.000000
1.430000	96.170000	80.280000	348.000000	0.000000	147.000000	58.000000	12.000000	-22.000000
1.440000	96.340000	80.070000	315.000000	0.000000	149.000000	58.000000	17.000000	-21.000000
1.450000	96.560000	80.000000	253.000000	0.000000	147.000000	59.000000	22.000000	-7.000000
1.460000	96.860000	80.000000	117.000000	0.000000	147.000000	59.000000	30.000000	0.000000
1.470000	97.220000	80.190000	1.000000	1.000000	147.000000	59.000000	0.000000	0.000000
1.480000	97.220000	80.190000	0.000000	0.000000	147.000000	59.000000	0.000000	0.000000
1.490000	98.040000	80.730000	0.000000	0.000000	149.000000	59.000000	82.000000	54.000000
1.500000	98.350000	81.030000	0.000000	0.000000	149.000000	59.000000	31.000000	30.000000
1.510000	98.590000	81.300000	0.000000	0.000000	149.000000	59.000000	24.000000	27.000000
1.520000	98.710000	81.470000	0.000000	0.000000	151.000000	60.000000	12.000000	17.000000
1.530000	98.710000	81.570000	0.000000	0.000000	151.000000	60.000000	0.000000	10.000000
1.540000	98.710000	81.570000	50.000000	1.000000	151.000000	60.000000	0.000000	0.000000
1.550000	98.290000	81.620000	110.000000	0.000000	151.000000	60.000000	-42.000000	5.000000
1.560000	98.060000	81.550000	144.000000	0.000000	151.000000	60.000000	-23.000000	-7.000000
1.570000	97.820000	81.470000	193.000000	0.000000	151.000000	60.000000	-24.000000	-8.000000
1.580000	97.610000	81.360000	213.000000	0.000000	152.000000	59.000000	-21.000000	-11.000000
1.590000	97.430000	81.220000	244.000000	0.000000	152.000000	59.000000	-18.000000	-14.000000
1.600000	97.330000	81.090000	244.000000	0.000000	150.000000	58.000000	-10.000000	-13.000000
1.610000	97.330000	80.940000	244.000000	0.000000	150.000000	58.000000	0.000000	-15.000000
1.620000	97.330000	80.800000	247.000000	0.000000	150.000000	58.000000	0.000000	-14.000000
1.630000	97.460000	80.670000	254.000000	0.000000	150.000000	58.000000	13.000000	-13.000000
1.640000	97.610000	80.540000	241.000000	0.000000	150.000000	58.000000	15.000000	-13.000000
1.650000	97.780000	80.440000	252.000000	0.000000	149.000000	59.000000	17.000000	-10.000000
1.660000	97.990000	80.360000	255.000000	0.000000	149.000000	59.000000	21.000000	-8.000000
1.670000	98.240000	80.360000	262.000000	0.000000	149.000000	59.000000	25.000000	0.000000
1.680000	98.500000	80.480000	260.000000	0.000000	149.000000	59.000000	26.000000	12.000000
1.690000	98.750000	80.610000	260.000000	0.000000	151.000000	60.000000	25.000000	13.000000
1.700000	98.940000	80.800000	257.000000	0.000000	151.000000	60.000000	19.000000	19.000000
1.710000	99.090000	80.990000	254.000000	0.000000	151.000000	60.000000	15.000000	19.000000
1.720000	99.090000	81.150000	257.000000	0.000000	151.000000	60.000000	0.000000	16.000000
1.730000	99.010000	81.280000	245.000000	0.000000	151.000000	60.000000	-8.000000	13.000000
1.740000	98.850000	81.340000	254.000000	0.000000	151.000000	60.000000	-16.000000	6.000000
1.750000	98.560000	81.340000	249.000000	0.000000	151.000000	60.000000	-29.000000	0.000000
1.760000	98.290000	81.270000	253.000000	0.000000	151.000000	60.000000	-27.000000	-7.000000
1.770000	98.050000	81.130000	249.000000	0.000000	152.000000	59.000000	-24.000000	-14.000000
1.780000	97.830000	80.990000	254.000000	0.000000	152.000000	59.000000	-22.000000	-14.000000
1.790000	97.770000	80.850000	249.000000	0.000000	152.000000	59.000000	-6.000000	-14.000000
1.800000	97.820000	80.700000	245.000000	0.000000	152.000000	59.000000	5.000000	-15.000000
1.810000	97.950000	80.590000	260.000000	0.000000	152.000000	59.000000	13.000000	-11.000000
1.820000	98.140000	80.520000	284.000000	0.000000	151.000000	60.000000	19.000000	-7.000000
1.830000	98.410000	80.520000	287.000000	0.000000	149.000000	59.000000	27.000000	0.000000
1.840000	98.720000	80.600000	301.000000	0.000000	151.000000	60.000000	31.000000	8.000000
1.850000	99.060000	80.750000	304.000000	0.000000	151.000000	60.000000	34.000000	15.000000
1.860000	99.410000	80.920000	311.000000	0.000000	151.000000	60.000000	35.000000	17.000000
1.870000	99.700000	81.080000	311.000000	0.000000	152.000000	60.000000	29.000000	16.000000
1.880000	99.960000	81.270000	314.000000	0.000000	152.000000	60.000000	26.000000	19.000000
1.890000	100.050000	81.470000	309.000000	0.000000	152.000000	60.000000	9.000000	20.000000
1.900000	100.050000	81.650000	320.000000	0.000000	154.000000	60.000000	0.000000	18.000000
1.910000	100.050000	81.800000	327.000000	0.000000	154.000000	60.000000	0.000000	15.000000
1.920000	99.950000	81.900000	348.000000	0.000000	155.000000	60.000000	-10.000000	10.000000
1.930000	99.850000	81.950000	349.000000	0.000000	155.000000	60.000000	-10.000000	5.000000
1.940000	99.740000	81.950000	349.000000	0.000000	155.000000	60.000000	-11.000000	0.000000
1.950000	99.740000	81.900000	351.000000	0.000000	155.000000	60.000000	0.000000	-5.000000
1.960000	99.740000	81.790000	349.000000	0.000000	155.000000	60.000000	0.000000	-11.000000
1.970000	99.690000	81.630000	353.000000	0.000000	155.000000	60.000000	-5.000000	-16.000000
1.980000	99.690000	81.450000	353.000000	0.000000	155.000000	60.000000	0.000000	-18.000000
1.990000	99.770000	81.290000	351.000000	0.000000	155.000000	60.000000	8.000000	-16.000000
2.000000	99.840000	81.120000	351.000000	0.000000	155.000000	60.000000	7.000000	-17.000000
2.010000	99.930000	80.970000	359.000000	0.000000	155.000000	60.000000	9.000000	-15.000000
2.020000	100.020000	80.820000	358.000000	0.000000	155.000000	60.000000	9.000000	-15.000000
2.030000	100.120000	80.760000	361.000000	0.000000	154.000000	60.000000	10.000000	-6.000000
2.040000	100.270000	80.760000	367.000000	0.000000	156.000000	61.000000	15.000000	0.000000
2.050000	100.470000	80.760000	376.000000	0.000000	156.000000	61.000000	20.000000	0.000000
2.060000	100.700000	80.900000	384.000000	0.000000	156.000000	61.000000	23.000000	14.000000
2.070000	100.920000	81.130000	398.000000	0.000000	157.000000	61.000000	22.000000	23.000000
2.080000	101.130000	81.450000	392.000000	0.000000	157.000000	61.000000	21.000000	32.000000
2.090000	101.260000	81.680000	412.000000	0.000000	157.000000	61.000000	13.000000	23.000000
2.100000	101.330000	81.890000	430.000000	0.000000	157.000000	61.000000	7.000000	21.000000
2.110000	101.330000	82.050000	450.000000	0.000000	159.000000	61.000000	0.000000	16.000000
2.120000	101.330000	82.180000	469.000000	0.000000	159.000000	61.000000	0.000000	13.000000
2.130000	101.200000	82.280000	481.000000	0.000000	159.000000	61.000000	-13.000000	10.000000
2.140000	101.200000	82.330000	485.000000	0.000000	159.000000	61.000000	0.000000	5.000000
2.150000	101.130000	82.330000	475.000000	0.000000	160.000000	60.000000	-7.000000	0.000000
2.160000	101.130000	82.330000	465.000000	0.000000	160.000000	60.000000	0.000000	0.000000
2.170000	101.130000	82.260000	474.000000	0.000000	160.000000	60.000000	0.000000	-7.000000
2.180000	101.130000	82.100000	473.000000	0.000000	160.000000	60.000000	0.000000	-16.000000
2.190000	101.220000	81.910000	471.000000	0.000000	160.000000	60.000000	9.000000	-19.000000
2.200000	101.290000	81.720000	468.000000	0.000000	160.000000	60.000000	7.000000	-19.000000
2.210000	101.290000	81.560000	469.000000	0.000000	160.000000	60.000000	0.000000	-16.000000
