t	x	y	pressure	penup	azimuth	inclination	v_x	v_y
0.000000	50.490000	29.610000	107.000000	1.000000	149.000000	58.000000	0.000000	0.000000
0.010000	50.490000	29.610000	151.000000	0.000000	149.000000	58.000000	0.000000	0.000000
0.020000	50.490000	29.610000	193.000000	0.000000	151.000000	58.000000	0.000000	0.000000
0.030000	50.030000	29.610000	255.000000	0.000000	151.000000	58.000000	-46.000000	0.000000
0.040000	49.570000	29.470000	299.000000	0.000000	151.000000	58.000000	-46.000000	-14.000000
0.050000	49.020000	29.310000	344.000000	0.000000	152.000000	57.000000	-55.000000	-16.000000
0.060000	48.230000	29.060000	379.000000	0.000000	152.000000	57.000000	-79.000000	-25.000000
0.070000	47.350000	28.740000	420.000000	0.000000	152.000000	57.000000	-88.000000	-32.000000
0.080000	46.400000	28.370000	449.000000	0.000000	152.000000	57.000000	-95.000000	-37.000000
0.090000	45.500000	27.960000	458.000000	0.000000	151.000000	56.000000	-90.000000	-41.000000
0.100000	44.780000	27.510000	470.000000	0.000000	150.000000	57.000000	-72.000000	-45.000000
0.110000	44.180000	27.070000	472.000000	0.000000	148.000000	57.000000	-60.000000	-44.000000
0.120000	43.880000	26.770000	481.000000	0.000000	146.000000	57.000000	-30.000000	-30.000000
0.130000	43.760000	26.570000	472.000000	0.000000	144.000000	57.000000	-12.000000	-20.000000
0.140000	43.760000	26.450000	468.000000	0.000000	143.000000	57.000000	0.000000	-12.000000
0.150000	43.830000	26.340000	480.000000	0.000000	140.000000	58.000000	7.000000	-11.000000
0.160000	44.050000	26.240000	486.000000	0.000000	140.000000	58.000000	22.000000	-10.000000
0.170000	44.380000	26.110000	494.000000	0.000000	139.000000	58.000000	33.000000	-13.000000
0.180000	44.930000	26.010000	497.000000	0.000000	138.000000	58.000000	55.000000	-10.000000
0.190000	45.800000	26.010000	491.000000	0.000000	136.000000	58.000000	87.000000	0.000000
0.200000	46.890000	26.010000	491.000000	0.000000	138.000000	59.000000	109.000000	0.000000
0.210000	48.040000	26.060000	496.000000	0.000000	138.000000	59.000000	115.000000	5.000000
0.220000	49.090000	26.060000	483.000000	0.000000	139.000000	60.000000	105.000000	0.000000
0.230000	49.660000	25.910000	473.000000	0.000000	141.000000	60.000000	57.000000	-15.000000
0.240000	49.930000	25.750000	464.000000	0.000000	142.000000	61.000000	27.000000	-16.000000
0.250000	49.930000	25.540000	467.000000	0.000000	142.000000	61.000000	0.000000	-21.000000
0.260000	49.670000	25.310000	477.000000	0.000000	144.000000	61.000000	-26.000000	-23.000000
0.270000	49.270000	25.030000	475.000000	0.000000	146.000000	62.000000	-40.000000	-28.000000
0.280000	48.580000	24.750000	488.000000	0.000000	146.000000	62.000000	-69.000000	-28.000000
0.290000	47.760000	24.560000	491.000000	0.000000	146.000000	62.000000	-82.000000	-19.000000
0.300000	46.850000	24.450000	491.000000	0.000000	146.000000	62.000000	-91.000000	-11.000000
0.310000	46.050000	24.450000	483.000000	0.000000	146.000000	62.000000	-80.000000	0.000000
0.320000	45.510000	24.550000	455.000000	0.000000	144.000000	61.000000	-54.000000	10.000000
0.330000	45.140000	24.730000	329.000000	0.000000	142.000000	61.000000	-37.000000	18.000000
0.340000	45.050000	25.060000	144.000000	0.000000	142.000000	61.000000	-9.000000	33.000000
0.350000	45.050000	25.060000	0.000000	1.000000	141.000000	60.000000	0.000000	0.000000
0.360000	45.590000	25.840000	0.000000	0.000000	141.000000	60.000000	54.000000	78.000000
0.370000	46.160000	26.250000	0.000000	0.000000	139.000000	60.000000	57.000000	41.000000
0.380000	46.910000	26.780000	0.000000	0.000000	141.000000	60.000000	75.000000	53.000000
0.390000	47.780000	27.400000	0.000000	0.000000	141.000000	60.000000	87.000000	62.000000
0.400000	48.790000	27.920000	0.000000	0.000000	141.000000	60.000000	101.000000	52.000000
0.410000	49.800000	28.400000	0.000000	0.000000	141.000000	60.000000	101.000000	48.000000
0.420000	50.810000	28.790000	0.000000	0.000000	141.000000	60.000000	101.000000	39.000000
0.430000	51.700000	29.070000	0.000000	0.000000	142.000000	59.000000	89.000000	28.000000
0.440000	52.500000	29.070000	0.000000	0.000000	142.000000	59.000000	80.000000	0.000000
0.450000	52.830000	28.840000	0.000000	0.000000	142.000000	59.000000	33.000000	-23.000000
0.460000	52.830000	28.470000	0.000000	0.000000	143.000000	59.000000	0.000000	-37.000000
0.470000	52.600000	28.100000	0.000000	0.000000	143.000000	59.000000	-23.000000	-37.000000
0.480000	52.150000	27.710000	0.000000	0.000000	142.000000	58.000000	-45.000000	-39.000000
0.490000	51.720000	27.360000	0.000000	0.000000	142.000000	58.000000	-43.000000	-35.000000
0.500000	51.290000	27.040000	0.000000	0.000000	143.000000	59.000000	-43.000000	-32.000000
0.510000	50.980000	26.810000	0.000000	0.000000	143.000000	59.000000	-31.000000	-23.000000
0.520000	50.980000	26.810000	193.000000	1.000000	143.000000	59.000000	0.000000	0.000000
0.530000	50.710000	26.560000	297.000000	0.000000	145.000000	59.000000	-27.000000	-25.000000
0.540000	50.660000	26.660000	361.000000	0.000000	145.000000	59.000000	-5.000000	10.000000
0.550000	50.660000	26.710000	400.000000	0.000000	146.000000	60.000000	0.000000	5.000000
0.560000	50.660000	26.760000	410.000000	0.000000	148.000000	60.000000	0.000000	5.000000
0.570000	50.660000	26.810000	392.000000	0.000000	147.000000	61.000000	0.000000	5.000000
0.580000	50.730000	26.920000	348.000000	0.000000	148.000000	61.000000	7.000000	11.000000
0.590000	50.810000	27.070000	134.000000	0.000000	148.000000	61.000000	8.000000	15.000000
0.600000	50.810000	27.070000	0.000000	1.000000	148.000000	61.000000	0.000000	0.000000
0.610000	51.020000	27.270000	0.000000	0.000000	148.000000	61.000000	21.000000	20.000000
0.620000	51.070000	27.340000	0.000000	0.000000	148.000000	61.000000	5.000000	7.000000
0.630000	51.140000	27.400000	0.000000	0.000000	148.000000	61.000000	7.000000	6.000000
0.640000	51.230000	27.400000	0.000000	0.000000	147.000000	61.000000	9.000000	0.000000
0.650000	51.370000	27.270000	0.000000	0.000000	147.000000	61.000000	14.000000	-13.000000
0.660000	51.590000	27.070000	0.000000	0.000000	146.000000	60.000000	22.000000	-20.000000
0.670000	51.870000	26.810000	0.000000	0.000000	146.000000	60.000000	28.000000	-26.000000
0.680000	52.140000	26.530000	0.000000	0.000000	146.000000	58.000000	27.000000	-28.000000
0.690000	52.380000	26.210000	0.000000	0.000000	146.000000	58.000000	24.000000	-32.000000
0.700000	52.510000	25.850000	0.000000	0.000000	146.000000	58.000000	13.000000	-36.000000
0.710000	52.510000	25.490000	0.000000	0.000000	146.000000	57.000000	0.000000	-36.000000
0.720000	52.510000	25.180000	0.000000	0.000000	146.000000	57.000000	0.000000	-31.000000
0.730000	52.350000	24.890000	0.000000	0.000000	146.000000	58.000000	-16.000000	-29.000000
0.740000	52.350000	24.890000	168.000000	1.000000	146.000000	58.000000	0.000000	0.000000
0.750000	52.080000	24.530000	225.000000	0.000000	145.000000	59.000000	-27.000000	-36.000000
0.760000	51.980000	24.530000	291.000000	0.000000	145.000000	60.000000	-10.000000	0.000000
0.770000	51.980000	24.630000	309.000000	0.000000	145.000000	60.000000	0.000000	10.000000
0.780000	51.980000	24.810000	334.000000	0.000000	144.000000	61.000000	0.000000	18.000000
0.790000	52.070000	25.060000	336.000000	0.000000	144.000000	61.000000	9.000000	25.000000
0.800000	52.270000	25.440000	366.000000	0.000000	143.000000	62.000000	20.000000	38.000000
0.810000	52.560000	25.960000	373.000000	0.000000	143.000000	62.000000	29.000000	52.000000
0.820000	52.870000	26.570000	367.000000	0.000000	143.000000	62.000000	31.000000	61.000000
0.830000	53.140000	27.350000	374.000000	0.000000	143.000000	62.000000	27.000000	78.000000
0.840000	53.310000	28.320000	369.000000	0.000000	144.000000	61.000000	17.000000	97.000000
0.850000	53.430000	29.410000	367.000000	0.000000	144.000000	61.000000	12.000000	109.000000
0.860000	53.300000	30.290000	371.000000	0.000000	145.000000	60.000000	-13.000000	88.000000
0.870000	53.140000	30.880000	397.000000	0.000000	146.000000	60.000000	-16.000000	59.000000
0.880000	52.970000	31.290000	417.000000	0.000000	146.000000	58.000000	-17.000000	41.000000
0.890000	52.840000	31.290000	415.000000	0.000000	147.000000	58.000000	-13.000000	0.000000
0.900000	52.710000	31.290000	422.000000	0.000000	148.000000	57.000000	-13.000000	0.000000
0.910000	52.580000	31.100000	422.000000	0.000000	149.000000	56.000000	-13.000000	-19.000000
0.920000	52.480000	30.750000	417.000000	0.000000	149.000000	56.000000	-10.000000	-35.000000
0.930000	52.400000	30.270000	418.000000	0.000000	150.000000	55.000000	-8.000000	-48.000000
0.940000	52.470000	29.780000	415.000000	0.000000	150.000000	55.000000	7.000000	-49.000000
0.950000	52.630000	29.120000	417.000000	0.000000	150.000000	55.000000	16.000000	-66.000000
0.960000	52.810000	28.350000	418.000000	0.000000	149.000000	56.000000	18.000000	-77.000000
0.970000	53.000000	27.530000	418.000000	0.000000	149.000000	56.000000	19.000000	-82.000000
0.980000	53.180000	26.750000	420.000000	0.000000	148.000000	57.000000	18.000000	-78.000000
0.990000	53.370000	26.190000	425.000000	0.000000	149.000000	58.000000	19.000000	-56.000000
1.000000	53.590000	25.770000	425.000000	0.000000	147.000000	59.000000	22.000000	-42.000000
1.010000	53.820000	25.530000	431.000000	0.000000	146.000000	60.000000	23.000000	-24.000000
1.020000	54.080000	25.450000	443.000000	0.000000	146.000000	60.000000	26.000000	-8.000000
1.030000	54.080000	25.450000	473.000000	0.000000	145.000000	60.000000	0.000000	0.000000
1.040000	54.450000	25.600000	467.000000	0.000000	144.000000	61.000000	37.000000	15.000000
1.050000	54.590000	25.840000	467.000000	0.000000	144.000000	61.000000	14.000000	24.000000
1.060000	54.640000	26.180000	472.000000	0.000000	143.000000	62.000000	5.000000	34.000000
1.070000	54.640000	26.490000	465.000000	0.000000	143.000000	62.000000	0.000000	31.000000
1.080000	54.510000	26.760000	474.000000	0.000000	143.000000	62.000000	-13.000000	27.000000
1.090000	54.240000	26.940000	471.000000	0.000000	144.000000	61.000000	-27.000000	18.000000
1.100000	53.880000	26.940000	469.000000	0.000000	144.000000	61.000000	-36.000000	0.000000
1.110000	53.460000	26.770000	473.000000	0.000000	144.000000	61.000000	-42.000000	-17.000000
1.120000	53.050000	26.520000	474.000000	0.000000	144.000000	61.000000	-41.000000	-25.000000
1.130000	52.650000	26.340000	465.000000	0.000000	145.000000	60.000000	-40.000000	-18.000000
1.140000	52.570000	26.210000	468.000000	0.000000	145.000000	60.000000	-8.000000	-13.000000
1.150000	52.570000	26.130000	473.000000	0.000000	145.000000	60.000000	0.000000	-8.000000
1.160000	52.570000	26.060000	490.000000	0.000000	145.000000	60.000000	0.000000	-7.000000
1.170000	52.740000	26.010000	509.000000	0.000000	146.000000	62.000000	17.000000	-5.000000
1.180000	52.950000	26.010000	520.000000	0.000000	146.000000	62.000000	21.000000	0.000000
1.190000	53.240000	26.010000	521.000000	0.000000	146.000000	62.000000	29.000000	0.000000
1.200000	53.570000	26.080000	537.000000	0.000000	146.000000	62.000000	33.000000	7.000000
1.210000	53.920000	26.180000	543.000000	0.000000	146.000000	62.000000	35.000000	10.000000
1.220000	54.270000	26.370000	540.000000	0.000000	146.000000	62.000000	35.000000	19.000000
1.230000	54.610000	26.630000	544.000000	0.000000	146.000000	62.000000	34.000000	26.000000
1.240000	54.920000	26.940000	543.000000	0.000000	146.000000	62.000000	31.000000	31.000000
1.250000	55.090000	27.250000	536.000000	0.000000	146.000000	62.000000	17.000000	31.000000
1.260000	55.190000	27.560000	542.000000	0.000000	147.000000	61.000000	10.000000	31.000000
1.270000	55.140000	27.720000	562.000000	0.000000	147.000000	61.000000	-5.000000	16.000000
1.280000	55.090000	27.860000	562.000000	0.000000	148.000000	60.000000	-5.000000	14.000000
1.290000	54.990000	27.950000	562.000000	0.000000	148.000000	60.000000	-10.000000	9.000000
1.300000	54.850000	27.950000	564.000000	0.000000	149.000000	59.000000	-14.000000	0.000000
1.310000	54.850000	27.950000	553.000000	0.000000	149.000000	59.000000	0.000000	0.000000
1.320000	54.850000	27.950000	551.000000	0.000000	149.000000	59.000000	0.000000	0.000000
1.330000	54.850000	27.820000	551.000000	0.000000	150.000000	58.000000	0.000000	-13.000000
1.340000	54.850000	27.580000	551.000000	0.000000	150.000000	58.000000	0.000000	-24.000000
1.350000	54.850000	27.190000	554.000000	0.000000	150.000000	58.000000	0.000000	-39.000000
1.360000	54.850000	26.860000	554.000000	0.000000	149.000000	59.000000	0.000000	-33.000000
1.370000	54.720000	26.570000	553.000000	0.000000	149.000000	59.000000	-13.000000	-29.000000
1.380000	54.720000	26.310000	553.000000	0.000000	149.000000	59.000000	0.000000	-26.000000
1.390000	54.770000	26.140000	554.000000	0.000000	148.000000	60.000000	5.000000	-17.000000
1.400000	54.860000	26.030000	564.000000	0.000000	148.000000	60.000000	9.000000	-11.000000
1.410000	55.090000	26.030000	569.000000	0.000000	147.000000	61.000000	23.000000	0.000000
1.420000	55.420000	26.150000	580.000000	0.000000	147.000000	61.000000	33.000000	12.000000
1.430000	55.760000	26.340000	605.000000	0.000000	147.000000	61.000000	34.000000	19.000000
1.440000	56.120000	26.650000	611.000000	0.000000	148.000000	61.000000	36.000000	31.000000
1.450000	56.500000	27.070000	620.000000	0.000000	148.000000	61.000000	38.000000	42.000000
1.460000	56.720000	27.570000	641.000000	0.000000	148.000000	61.000000	22.000000	50.000000
1.470000	56.840000	27.940000	673.000000	0.000000	148.000000	61.000000	12.000000	37.000000
1.480000	56.840000	28.270000	682.000000	0.000000	150.000000	60.000000	0.000000	33.000000
1.490000	56.840000	28.540000	687.000000	0.000000	150.000000	60.000000	0.000000	27.000000
1.500000	56.710000	28.740000	691.000000	0.000000	151.000000	60.000000	-13.000000	20.000000
1.510000	56.710000	28.790000	697.000000	0.000000	151.000000	60.000000	0.000000	5.000000
1.520000	56.710000	28.790000	702.000000	0.000000	152.000000	59.000000	0.000000	0.000000
1.530000	56.710000	28.790000	685.000000	0.000000	152.000000	59.000000	0.000000	0.000000
1.540000	56.710000	28.710000	678.000000	0.000000	152.000000	59.000000	0.000000	-8.000000
1.550000	56.710000	28.580000	678.000000	0.000000	153.000000	58.000000	0.000000	-13.000000
1.560000	56.710000	28.310000	679.000000	0.000000	153.000000	58.000000	0.000000	-27.000000
1.570000	56.710000	27.970000	676.000000	0.000000	153.000000	58.000000	0.000000	-34.000000
1.580000	56.710000	27.570000	685.000000	0.000000	153.000000	58.000000	0.000000	-40.000000
1.590000	56.780000	27.170000	682.000000	0.000000	152.000000	59.000000	7.000000	-40.000000
1.600000	56.870000	26.860000	679.000000	0.000000	152.000000	59.000000	9.000000	-31.000000
1.610000	57.060000	26.620000	671.000000	0.000000	152.000000	59.000000	19.000000	-24.000000
1.620000	57.330000	26.500000	647.000000	0.000000	151.000000	60.000000	27.000000	-12.000000
1.630000	57.780000	26.500000	605.000000	0.000000	152.000000	60.000000	45.000000	0.000000
1.640000	58.350000	26.630000	542.000000	0.000000	151.000000	61.000000	57.000000	13.000000
1.650000	58.970000	26.880000	475.000000	0.000000	151.000000	61.000000	62.000000	25.000000
1.660000	59.570000	27.210000	417.000000	0.000000	153.000000	61.000000	60.000000	33.000000
1.670000	59.970000	27.600000	339.000000	0.000000	153.000000	61.000000	40.000000	39.000000
1.680000	60.250000	27.890000	256.000000	0.000000	155.000000	62.000000	28.000000	29.000000
1.690000	60.370000	28.150000	161.000000	0.000000	155.000000	62.000000	12.000000	26.000000
1.700000	60.370000	28.330000	139.000000	0.000000	157.000000	61.000000	0.000000	18.000000
1.710000	60.320000	28.490000	165.000000	0.000000	157.000000	61.000000	-5.000000	16.000000
1.720000	60.250000	28.640000	214.000000	0.000000	157.000000	61.000000	-7.000000	15.000000
1.730000	60.150000	28.780000	287.000000	0.000000	158.000000	60.000000	-10.000000	14.000000
1.740000	60.020000	28.890000	371.000000	0.000000	158.000000	60.000000	-13.000000	11.000000
1.750000	59.820000	28.890000	436.000000	0.000000	158.000000	60.000000	-20.000000	0.000000
1.760000	59.580000	28.890000	469.000000	0.000000	159.000000	59.000000	-24.000000	0.000000
1.770000	59.300000	28.810000	491.000000	0.000000	159.000000	59.000000	-28.000000	-8.000000
1.780000	59.040000	28.670000	499.000000	0.000000	159.000000	59.000000	-26.000000	-14.000000
1.790000	58.790000	28.480000	502.000000	0.000000	159.000000	59.000000	-25.000000	-19.000000
1.800000	58.660000	28.270000	509.000000	0.000000	159.000000	59.000000	-13.000000	-21.000000
1.810000	58.590000	28.040000	512.000000	0.000000	159.000000	59.000000	-7.000000	-23.000000
1.820000	58.590000	27.780000	520.000000	0.000000	159.000000	59.000000	0.000000	-26.000000
1.830000	58.680000	27.520000	519.000000	0.000000	158.000000	60.000000	9.000000	-26.000000
1.840000	58.840000	27.240000	543.000000	0.000000	157.000000	60.000000	16.000000	-28.000000
1.850000	59.080000	27.040000	561.000000	0.000000	157.000000	60.000000	24.000000	-20.000000
1.860000	59.380000	26.880000	567.000000	0.000000	156.000000	61.000000	30.000000	-16.000000
1.870000	59.700000	26.880000	581.000000	0.000000	157.000000	61.000000	32.000000	0.000000
1.880000	60.080000	26.880000	584.000000	0.000000	157.000000	61.000000	38.000000	0.000000
1.890000	60.520000	27.030000	586.000000	0.000000	157.000000	61.000000	44.000000	15.000000
1.900000	60.950000	27.250000	580.000000	0.000000	157.000000	61.000000	43.000000	22.000000
1.910000	61.180000	27.470000	581.000000	0.000000	157.000000	61.000000	23.000000	22.000000
1.920000	61.270000	27.680000	581.000000	0.000000	157.000000	61.000000	9.000000	21.000000
1.930000	61.270000	27.880000	561.000000	0.000000	157.000000	61.000000	0.000000	20.000000
1.940000	61.050000	28.060000	564.000000	0.000000	157.000000	61.000000	-22.000000	18.000000
1.950000	60.700000	28.170000	564.000000	0.000000	157.000000	61.000000	-35.000000	11.000000
1.960000	60.230000	28.220000	559.000000	0.000000	157.000000	61.000000	-47.000000	5.000000
1.970000	59.800000	28.220000	561.000000	0.000000	158.000000	60.000000	-43.000000	0.000000
1.980000	59.450000	28.150000	559.000000	0.000000	158.000000	60.000000	-35.000000	-7.000000
1.990000	59.270000	28.080000	554.000000	0.000000	158.000000	60.000000	-18.000000	-7.000000
2.000000	59.210000	28.010000	550.000000	0.000000	160.000000	60.000000	-6.000000	-7.000000
2.010000	59.270000	27.930000	550.000000	0.000000	161.000000	60.000000	6.000000	-8.000000
2.020000	59.340000	27.830000	553.000000	0.000000	160.000000	60.000000	7.000000	-10.000000
2.030000	59.590000	27.730000	565.000000	0.000000	160.000000	60.000000	25.000000	-10.000000
2.040000	59.950000	27.730000	570.000000	0.000000	160.000000	60.000000	36.000000	0.000000
2.050000	60.400000	27.790000	560.000000	0.000000	160.000000	60.000000	45.000000	6.000000
2.060000	60.850000	27.910000	567.000000	0.000000	160.000000	60.000000	45.000000	12.000000
2.070000	61.300000	28.090000	570.000000	0.000000	160.000000	60.000000	45.000000	18.000000
2.080000	61.670000	28.310000	578.000000	0.000000	160.000000	60.000000	37.000000	22.000000
2.090000	61.980000	28.580000	577.000000	0.000000	160.000000	60.000000	31.000000	27.000000
2.100000	62.260000	28.890000	577.000000	0.000000	158.000000	60.000000	28.000000	31.000000
2.110000	62.360000	29.240000	578.000000	0.000000	158.000000	60.000000	10.000000	35.000000
2.120000	62.360000	29.430000	586.000000	0.000000	159.000000	59.000000	0.000000	19.000000
2.130000	62.230000	29.560000	595.000000	0.000000	159.000000	59.000000	-13.000000	13.000000
2.140000	62.100000	29.560000	592.000000	0.000000	157.000000	59.000000	-13.000000	0.000000
2.150000	61.970000	29.560000	588.000000	0.000000	158.000000	58.000000	-13.000000	0.000000
2.160000	61.810000	29.380000	584.000000	0.000000	158.000000	58.000000	-16.000000	-18.000000
2.170000	61.630000	29.090000	581.000000	0.000000	158.000000	58.000000	-18.000000	-29.000000
2.180000	61.630000	28.810000	578.000000	0.000000	158.000000	58.000000	0.000000	-28.000000
2.190000	61.630000	28.530000	578.000000	0.000000	158.000000	58.000000	0.000000	-28.000000
2.200000	61.690000	28.230000	577.000000	0.000000	158.000000	58.000000	6.000000	-30.000000
