t	x	y	pressure	penup	azimuth	inclination	v_x	v_y
0.000000	15.120000	31.340000	48.000000	1.000000	147.000000	61.000000	0.000000	0.000000
0.010000	15.120000	31.340000	100.000000	0.000000	147.000000	61.000000	0.000000	0.000000
0.020000	15.120000	31.340000	207.000000	0.000000	147.000000	61.000000	0.000000	0.000000
0.030000	14.630000	31.400000	276.000000	0.000000	147.000000	61.000000	-49.000000	6.000000
0.040000	14.250000	31.350000	337.000000	0.000000	147.000000	61.000000	-38.000000	-5.000000
0.050000	13.810000	31.240000	391.000000	0.000000	145.000000	60.000000	-44.000000	-11.000000
0.060000	13.320000	31.090000	444.000000	0.000000	145.000000	60.000000	-49.000000	-15.000000
0.070000	12.750000	30.870000	460.000000	0.000000	145.000000	60.000000	-57.000000	-22.000000
0.080000	12.060000	30.590000	473.000000	0.000000	144.000000	60.000000	-69.000000	-28.000000
0.090000	11.280000	30.250000	483.000000	0.000000	144.000000	60.000000	-78.000000	-34.000000
0.100000	10.300000	29.910000	499.000000	0.000000	144.000000	60.000000	-98.000000	-34.000000
0.110000	9.510000	29.560000	519.000000	0.000000	144.000000	60.000000	-79.000000	-35.000000
0.120000	8.840000	29.220000	530.000000	0.000000	144.000000	60.000000	-67.000000	-34.000000
0.130000	8.450000	28.980000	546.000000	0.000000	142.000000	61.000000	-39.000000	-24.000000
0.140000	8.310000	28.810000	544.000000	0.000000	144.000000	61.000000	-14.000000	-17.000000
0.150000	8.310000	28.690000	546.000000	0.000000	146.000000	62.000000	0.000000	-12.000000
0.160000	8.450000	28.550000	556.000000	0.000000	147.000000	62.000000	14.000000	-14.000000
0.170000	8.850000	28.390000	561.000000	0.000000	147.000000	62.000000	40.000000	-16.000000
0.180000	9.440000	28.240000	570.000000	0.000000	147.000000	62.000000	59.000000	-15.000000
0.190000	10.380000	28.190000	572.000000	0.000000	147.000000	62.000000	94.000000	-5.000000
0.200000	11.440000	28.190000	574.000000	0.000000	146.000000	63.000000	106.000000	0.000000
0.210000	12.570000	28.050000	578.000000	0.000000	146.000000	63.000000	113.000000	-14.000000
0.220000	13.420000	27.890000	563.000000	0.000000	144.000000	62.000000	85.000000	-16.000000
0.230000	14.000000	27.730000	562.000000	0.000000	144.000000	62.000000	58.000000	-16.000000
0.240000	14.390000	27.500000	559.000000	0.000000	143.000000	62.000000	39.000000	-23.000000
0.250000	14.530000	27.250000	566.000000	0.000000	143.000000	62.000000	14.000000	-25.000000
0.260000	14.440000	26.970000	564.000000	0.000000	143.000000	62.000000	-9.000000	-28.000000
0.270000	14.200000	26.720000	610.000000	0.000000	143.000000	62.000000	-24.000000	-25.000000
0.280000	13.790000	26.570000	644.000000	0.000000	143.000000	62.000000	-41.000000	-15.000000
0.290000	13.250000	26.490000	694.000000	0.000000	143.000000	62.000000	-54.000000	-8.000000
0.300000	12.620000	26.490000	705.000000	0.000000	143.000000	62.000000	-63.000000	0.000000
0.310000	11.940000	26.490000	737.000000	0.000000	143.000000	62.000000	-68.000000	0.000000
0.320000	11.310000	26.590000	754.000000	0.000000	143.000000	62.000000	-63.000000	10.000000
0.330000	10.920000	26.780000	760.000000	0.000000	143.000000	62.000000	-39.000000	19.000000
0.340000	10.670000	27.020000	757.000000	0.000000	141.000000	61.000000	-25.000000	24.000000
0.350000	10.670000	27.300000	664.000000	0.000000	142.000000	61.000000	0.000000	28.000000
0.360000	10.960000	27.610000	489.000000	0.000000	142.000000	61.000000	29.000000	31.000000
0.370000	11.400000	27.900000	51.000000	0.000000	142.000000	61.000000	44.000000	29.000000
0.380000	11.400000	27.900000	0.000000	1.000000	141.000000	61.000000	0.000000	0.000000
0.390000	12.120000	28.260000	0.000000	0.000000	141.000000	61.000000	72.000000	36.000000
0.400000	12.190000	28.260000	0.000000	0.000000	141.000000	61.000000	7.000000	0.000000
0.410000	12.190000	28.260000	0.000000	0.000000	141.000000	63.000000	0.000000	0.000000
0.420000	12.510000	28.310000	0.000000	0.000000	141.000000	63.000000	32.000000	5.000000
0.430000	12.940000	28.390000	0.000000	0.000000	140.000000	63.000000	43.000000	8.000000
0.440000	13.550000	28.490000	0.000000	0.000000	140.000000	65.000000	61.000000	10.000000
0.450000	14.220000	28.550000	0.000000	0.000000	138.000000	65.000000	67.000000	6.000000
0.460000	14.970000	28.550000	0.000000	0.000000	139.000000	67.000000	75.000000	0.000000
0.470000	15.690000	28.490000	0.000000	0.000000	139.000000	67.000000	72.000000	-6.000000
0.480000	16.180000	28.380000	0.000000	0.000000	139.000000	67.000000	49.000000	-11.000000
0.490000	16.540000	28.190000	0.000000	0.000000	137.000000	66.000000	36.000000	-19.000000
0.500000	16.690000	27.950000	0.000000	0.000000	135.000000	65.000000	15.000000	-24.000000
0.510000	16.690000	27.700000	0.000000	0.000000	133.000000	65.000000	0.000000	-25.000000
0.520000	16.560000	27.480000	0.000000	0.000000	133.000000	63.000000	-13.000000	-22.000000
0.530000	16.310000	27.280000	0.000000	0.000000	132.000000	63.000000	-25.000000	-20.000000
0.540000	16.100000	27.130000	0.000000	0.000000	133.000000	62.000000	-21.000000	-15.000000
0.550000	16.100000	27.130000	168.000000	1.000000	135.000000	62.000000	0.000000	0.000000
0.560000	15.850000	27.130000	245.000000	0.000000	135.000000	62.000000	-25.000000	0.000000
0.570000	15.800000	27.200000	325.000000	0.000000	138.000000	63.000000	-5.000000	7.000000
0.580000	15.800000	27.310000	353.000000	0.000000	141.000000	63.000000	0.000000	11.000000
0.590000	15.900000	27.450000	367.000000	0.000000	145.000000	64.000000	10.000000	14.000000
0.600000	15.990000	27.600000	386.000000	0.000000	146.000000	64.000000	9.000000	15.000000
0.610000	16.070000	27.720000	379.000000	0.000000	146.000000	64.000000	8.000000	12.000000
0.620000	16.070000	27.720000	294.000000	0.000000	148.000000	65.000000	0.000000	0.000000
0.630000	16.070000	27.720000	90.000000	0.000000	147.000000	65.000000	0.000000	0.000000
0.640000	16.070000	27.720000	0.000000	1.000000	145.000000	65.000000	0.000000	0.000000
0.650000	16.360000	27.780000	0.000000	0.000000	145.000000	65.000000	29.000000	6.000000
0.660000	16.480000	27.780000	0.000000	0.000000	143.000000	64.000000	12.000000	0.000000
0.670000	16.660000	27.780000	0.000000	0.000000	141.000000	64.000000	18.000000	0.000000
0.680000	16.870000	27.730000	0.000000	0.000000	140.000000	63.000000	21.000000	-5.000000
0.690000	17.130000	27.660000	0.000000	0.000000	138.000000	63.000000	26.000000	-7.000000
0.700000	17.400000	27.570000	0.000000	0.000000	137.000000	62.000000	27.000000	-9.000000
0.710000	17.690000	27.400000	0.000000	0.000000	135.000000	62.000000	29.000000	-17.000000
0.720000	17.940000	27.150000	0.000000	0.000000	135.000000	62.000000	25.000000	-25.000000
0.730000	18.160000	26.820000	0.000000	0.000000	134.000000	61.000000	22.000000	-33.000000
0.740000	18.350000	26.610000	0.000000	0.000000	135.000000	60.000000	19.000000	-21.000000
0.750000	18.430000	26.480000	0.000000	0.000000	136.000000	61.000000	8.000000	-13.000000
0.760000	18.430000	26.380000	0.000000	0.000000	136.000000	61.000000	0.000000	-10.000000
0.770000	18.370000	26.380000	0.000000	0.000000	136.000000	61.000000	-6.000000	0.000000
0.780000	18.370000	26.380000	96.000000	1.000000	138.000000	61.000000	0.000000	0.000000
0.790000	18.370000	26.380000	183.000000	0.000000	138.000000	61.000000	0.000000	0.000000
0.800000	17.980000	26.640000	273.000000	0.000000	140.000000	62.000000	-39.000000	26.000000
0.810000	17.980000	26.960000	309.000000	0.000000	140.000000	62.000000	0.000000	32.000000
0.820000	17.980000	27.460000	324.000000	0.000000	141.000000	63.000000	0.000000	50.000000
0.830000	18.040000	28.060000	327.000000	0.000000	141.000000	63.000000	6.000000	60.000000
0.840000	18.150000	28.730000	329.000000	0.000000	141.000000	63.000000	11.000000	67.000000
0.850000	18.220000	29.220000	327.000000	0.000000	143.000000	63.000000	7.000000	49.000000
0.860000	18.280000	30.000000	327.000000	0.000000	144.000000	62.000000	6.000000	78.000000
0.870000	18.280000	30.980000	327.000000	0.000000	144.000000	62.000000	0.000000	98.000000
0.880000	18.280000	31.640000	332.000000	0.000000	146.000000	62.000000	0.000000	66.000000
0.890000	18.280000	32.070000	336.000000	0.000000	144.000000	61.000000	0.000000	43.000000
0.900000	18.280000	32.360000	349.000000	0.000000	145.000000	60.000000	0.000000	29.000000
0.910000	18.220000	32.490000	366.000000	0.000000	145.000000	60.000000	-6.000000	13.000000
0.920000	18.220000	32.490000	374.000000	0.000000	145.000000	60.000000	0.000000	0.000000
0.930000	18.220000	32.440000	367.000000	0.000000	146.000000	60.000000	0.000000	-5.000000
0.940000	18.090000	32.220000	376.000000	0.000000	146.000000	60.000000	-13.000000	-22.000000
0.950000	17.950000	31.810000	377.000000	0.000000	146.000000	60.000000	-14.000000	-41.000000
0.960000	17.950000	31.270000	379.000000	0.000000	146.000000	60.000000	0.000000	-54.000000
0.970000	17.950000	30.670000	379.000000	0.000000	145.000000	59.000000	0.000000	-60.000000
0.980000	18.000000	30.060000	379.000000	0.000000	146.000000	60.000000	5.000000	-61.000000
0.990000	18.180000	29.400000	379.000000	0.000000	146.000000	60.000000	18.000000	-66.000000
1.000000	18.440000	28.690000	381.000000	0.000000	145.000000	60.000000	26.000000	-71.000000
1.010000	18.740000	27.990000	379.000000	0.000000	145.000000	60.000000	30.000000	-70.000000
1.020000	19.060000	27.420000	381.000000	0.000000	144.000000	60.000000	32.000000	-57.000000
1.030000	19.410000	26.940000	389.000000	0.000000	142.000000	61.000000	35.000000	-48.000000
1.040000	19.780000	26.700000	400.000000	0.000000	142.000000	61.000000	37.000000	-24.000000
1.050000	20.040000	26.620000	417.000000	0.000000	141.000000	61.000000	26.000000	-8.000000
1.060000	20.230000	26.620000	431.000000	0.000000	140.000000	62.000000	19.000000	0.000000
1.070000	20.350000	26.900000	440.000000	0.000000	140.000000	62.000000	12.000000	28.000000
1.080000	20.410000	27.240000	443.000000	0.000000	140.000000	62.000000	6.000000	34.000000
1.090000	20.410000	27.640000	438.000000	0.000000	140.000000	62.000000	0.000000	40.000000
1.100000	20.230000	27.940000	431.000000	0.000000	140.000000	62.000000	-18.000000	30.000000
1.110000	19.960000	28.180000	392.000000	0.000000	138.000000	61.000000	-27.000000	24.000000
1.120000	19.640000	28.310000	377.000000	0.000000	138.000000	61.000000	-32.000000	13.000000
1.130000	19.270000	28.360000	364.000000	0.000000	138.000000	61.000000	-37.000000	5.000000
1.140000	18.900000	28.270000	364.000000	0.000000	138.000000	61.000000	-37.000000	-9.000000
1.150000	18.530000	28.090000	363.000000	0.000000	138.000000	61.000000	-37.000000	-18.000000
1.160000	18.350000	27.850000	361.000000	0.000000	139.000000	61.000000	-18.000000	-24.000000
1.170000	18.300000	27.640000	361.000000	0.000000	139.000000	61.000000	-5.000000	-21.000000
1.180000	18.300000	27.440000	353.000000	0.000000	139.000000	61.000000	0.000000	-20.000000
1.190000	18.490000	27.290000	353.000000	0.000000	139.000000	61.000000	19.000000	-15.000000
1.200000	18.670000	27.180000	361.000000	0.000000	141.000000	61.000000	18.000000	-11.000000
1.210000	18.860000	27.130000	373.000000	0.000000	141.000000	61.000000	19.000000	-5.000000
1.220000	19.120000	27.130000	376.000000	0.000000	141.000000	61.000000	26.000000	0.000000
1.230000	19.400000	27.220000	379.000000	0.000000	140.000000	62.000000	28.000000	9.000000
1.240000	19.690000	27.390000	396.000000	0.000000	140.000000	62.000000	29.000000	17.000000
1.250000	19.970000	27.590000	392.000000	0.000000	140.000000	62.000000	28.000000	20.000000
1.260000	20.240000	27.820000	397.000000	0.000000	140.000000	62.000000	27.000000	23.000000
1.270000	20.500000	28.120000	400.000000	0.000000	139.000000	61.000000	26.000000	30.000000
1.280000	20.630000	28.420000	418.000000	0.000000	139.000000	61.000000	13.000000	30.000000
1.290000	20.630000	28.720000	415.000000	0.000000	139.000000	61.000000	0.000000	30.000000
1.300000	20.630000	28.930000	431.000000	0.000000	139.000000	61.000000	0.000000	21.000000
1.310000	20.580000	29.120000	443.000000	0.000000	138.000000	60.000000	-5.000000	19.000000
1.320000	20.460000	29.250000	445.000000	0.000000	138.000000	60.000000	-12.000000	13.000000
1.330000	20.340000	29.300000	448.000000	0.000000	138.000000	60.000000	-12.000000	5.000000
1.340000	20.260000	29.300000	448.000000	0.000000	138.000000	60.000000	-8.000000	0.000000
1.350000	20.260000	29.300000	439.000000	0.000000	138.000000	60.000000	0.000000	0.000000
1.360000	20.260000	29.300000	449.000000	0.000000	139.000000	60.000000	0.000000	0.000000
1.370000	20.260000	28.980000	445.000000	0.000000	139.000000	60.000000	0.000000	-32.000000
1.380000	20.350000	28.720000	447.000000	0.000000	139.000000	60.000000	9.000000	-26.000000
1.390000	20.450000	28.440000	447.000000	0.000000	139.000000	60.000000	10.000000	-28.000000
1.400000	20.550000	28.160000	447.000000	0.000000	139.000000	60.000000	10.000000	-28.000000
1.410000	20.680000	27.980000	458.000000	0.000000	138.000000	60.000000	13.000000	-18.000000
1.420000	20.820000	27.870000	445.000000	0.000000	138.000000	60.000000	14.000000	-11.000000
1.430000	21.020000	27.810000	474.000000	0.000000	138.000000	60.000000	20.000000	-6.000000
1.440000	21.200000	27.810000	478.000000	0.000000	138.000000	60.000000	18.000000	0.000000
1.450000	21.360000	27.890000	494.000000	0.000000	138.000000	60.000000	16.000000	8.000000
1.460000	21.560000	28.110000	537.000000	0.000000	138.000000	60.000000	20.000000	22.000000
1.470000	21.820000	28.390000	581.000000	0.000000	138.000000	60.000000	26.000000	28.000000
1.480000	21.980000	28.710000	585.000000	0.000000	138.000000	60.000000	16.000000	32.000000
1.490000	22.080000	29.030000	591.000000	0.000000	138.000000	60.000000	10.000000	32.000000
1.500000	22.080000	29.330000	616.000000	0.000000	138.000000	60.000000	0.000000	30.000000
1.510000	22.080000	29.620000	628.000000	0.000000	138.000000	60.000000	0.000000	29.000000
1.520000	22.080000	29.750000	647.000000	0.000000	136.000000	60.000000	0.000000	13.000000
1.530000	22.080000	29.840000	659.000000	0.000000	138.000000	59.000000	0.000000	9.000000
1.540000	22.080000	29.840000	652.000000	0.000000	138.000000	59.000000	0.000000	0.000000
1.550000	22.080000	29.840000	637.000000	0.000000	138.000000	59.000000	0.000000	0.000000
1.560000	22.080000	29.790000	641.000000	0.000000	138.000000	59.000000	0.000000	-5.000000
1.570000	22.080000	29.700000	639.000000	0.000000	138.000000	59.000000	0.000000	-9.000000
1.580000	22.080000	29.530000	636.000000	0.000000	139.000000	58.000000	0.000000	-17.000000
1.590000	22.080000	29.300000	634.000000	0.000000	138.000000	59.000000	0.000000	-23.000000
1.600000	22.080000	29.020000	636.000000	0.000000	138.000000	59.000000	0.000000	-28.000000
1.610000	22.140000	28.760000	636.000000	0.000000	138.000000	59.000000	6.000000	-26.000000
1.620000	22.230000	28.520000	634.000000	0.000000	138.000000	59.000000	9.000000	-24.000000
1.630000	22.430000	28.360000	631.000000	0.000000	138.000000	59.000000	20.000000	-16.000000
1.640000	22.700000	28.280000	613.000000	0.000000	138.000000	59.000000	27.000000	-8.000000
1.650000	23.030000	28.280000	585.000000	0.000000	136.000000	60.000000	33.000000	0.000000
1.660000	23.420000	28.370000	502.000000	0.000000	138.000000	60.000000	39.000000	9.000000
1.670000	23.870000	28.590000	404.000000	0.000000	138.000000	60.000000	45.000000	22.000000
1.680000	24.280000	28.880000	296.000000	0.000000	138.000000	60.000000	41.000000	29.000000
1.690000	24.540000	29.170000	233.000000	0.000000	138.000000	60.000000	26.000000	29.000000
1.700000	24.730000	29.440000	200.000000	0.000000	139.000000	61.000000	19.000000	27.000000
1.710000	24.800000	29.660000	186.000000	0.000000	139.000000	61.000000	7.000000	22.000000
1.720000	24.740000	29.840000	207.000000	0.000000	141.000000	60.000000	-6.000000	18.000000
1.730000	24.600000	29.990000	285.000000	0.000000	141.000000	60.000000	-14.000000	15.000000
1.740000	24.410000	30.110000	310.000000	0.000000	141.000000	60.000000	-19.000000	12.000000
1.750000	24.160000	30.230000	359.000000	0.000000	141.000000	60.000000	-25.000000	12.000000
1.760000	23.870000	30.300000	425.000000	0.000000	141.000000	60.000000	-29.000000	7.000000
1.770000	23.640000	30.300000	449.000000	0.000000	141.000000	60.000000	-23.000000	0.000000
1.780000	23.410000	30.300000	474.000000	0.000000	141.000000	60.000000	-23.000000	0.000000
1.790000	23.200000	30.130000	473.000000	0.000000	142.000000	59.000000	-21.000000	-17.000000
1.800000	23.040000	29.930000	491.000000	0.000000	141.000000	59.000000	-16.000000	-20.000000
1.810000	22.970000	29.700000	498.000000	0.000000	141.000000	59.000000	-7.000000	-23.000000
1.820000	22.970000	29.450000	510.000000	0.000000	139.000000	60.000000	0.000000	-25.000000
1.830000	23.100000	29.220000	509.000000	0.000000	139.000000	60.000000	13.000000	-23.000000
1.840000	23.310000	28.980000	520.000000	0.000000	139.000000	60.000000	21.000000	-24.000000
1.850000	23.580000	28.810000	537.000000	0.000000	139.000000	60.000000	27.000000	-17.000000
1.860000	23.890000	28.690000	553.000000	0.000000	139.000000	60.000000	31.000000	-12.000000
1.870000	24.190000	28.630000	560.000000	0.000000	139.000000	60.000000	30.000000	-6.000000
1.880000	24.480000	28.630000	572.000000	0.000000	138.000000	60.000000	29.000000	0.000000
1.890000	24.750000	28.740000	586.000000	0.000000	139.000000	61.000000	27.000000	11.000000
1.900000	25.000000	28.910000	592.000000	0.000000	139.000000	61.000000	25.000000	17.000000
1.910000	25.150000	29.090000	589.000000	0.000000	139.000000	61.000000	15.000000	18.000000
1.920000	25.150000	29.260000	594.000000	0.000000	139.000000	61.000000	0.000000	17.000000
1.930000	25.060000	29.410000	591.000000	0.000000	139.000000	61.000000	-9.000000	15.000000
1.940000	24.850000	29.550000	589.000000	0.000000	139.000000	61.000000	-21.000000	14.000000
1.950000	24.580000	29.640000	586.000000	0.000000	141.000000	60.000000	-27.000000	9.000000
1.960000	24.260000	29.700000	583.000000	0.000000	141.000000	60.000000	-32.000000	6.000000
1.970000	23.990000	29.700000	578.000000	0.000000	141.000000	60.000000	-27.000000	0.000000
1.980000	23.880000	29.700000	567.000000	0.000000	141.000000	60.000000	-11.000000	0.000000
1.990000	23.880000	29.700000	565.000000	0.000000	141.000000	60.000000	0.000000	0.000000
2.000000	23.930000	29.700000	564.000000	0.000000	141.000000	60.000000	5.000000	0.000000
2.010000	23.990000	29.610000	567.000000	0.000000	141.000000	59.000000	6.000000	-9.000000
2.020000	24.070000	29.530000	564.000000	0.000000	141.000000	59.000000	8.000000	-8.000000
2.030000	24.170000	29.440000	570.000000	0.000000	141.000000	59.000000	10.000000	-9.000000
2.040000	24.290000	29.440000	574.000000	0.000000	141.000000	59.000000	12.000000	0.000000
2.050000	24.460000	29.380000	586.000000	0.000000	141.000000	59.000000	17.000000	-6.000000
2.060000	24.650000	29.430000	603.000000	0.000000	141.000000	59.000000	19.000000	5.000000
2.070000	24.970000	29.570000	603.000000	0.000000	141.000000	59.000000	32.000000	14.000000
2.080000	25.290000	29.760000	617.000000	0.000000	141.000000	59.000000	32.000000	19.000000
2.090000	25.550000	30.000000	617.000000	0.000000	142.000000	59.000000	26.000000	24.000000
2.100000	25.770000	30.250000	620.000000	0.000000	142.000000	59.000000	22.000000	25.000000
2.110000	25.910000	30.520000	622.000000	0.000000	142.000000	59.000000	14.000000	27.000000
2.120000	25.980000	30.700000	637.000000	0.000000	144.000000	60.000000	7.000000	18.000000
2.130000	25.980000	30.840000	679.000000	0.000000	144.000000	60.000000	0.000000	14.000000
2.140000	25.980000	30.890000	684.000000	0.000000	144.000000	60.000000	0.000000	5.000000
2.150000	25.930000	30.890000	667.000000	0.000000	144.000000	60.000000	-5.000000	0.000000
2.160000	25.930000	30.820000	670.000000	0.000000	144.000000	60.000000	0.000000	-7.000000
2.170000	25.930000	30.750000	655.000000	0.000000	144.000000	60.000000	0.000000	-7.000000
2.180000	25.850000	30.550000	644.000000	0.000000	144.000000	60.000000	-8.000000	-20.000000
2.190000	25.850000	30.340000	640.000000	0.000000	144.000000	60.000000	0.000000	-21.000000
2.200000	25.940000	30.110000	641.000000	0.000000	145.000000	60.000000	9.000000	-23.000000
2.210000	26.050000	29.890000	643.000000	0.000000	145.000000	60.000000	11.000000	-22.000000
