t	x	y	pressure	penup	azimuth	inclination	v_x	v_y
0.000000	86.440000	80.820000	32.000000	1.000000	166.000000	56.000000	0.000000	0.000000
0.010000	86.440000	80.820000	71.000000	0.000000	166.000000	56.000000	0.000000	0.000000
0.020000	85.930000	81.150000	125.000000	0.000000	166.000000	56.000000	-51.000000	33.000000
0.030000	85.480000	81.150000	180.000000	0.000000	167.000000	55.000000	-45.000000	0.000000
0.040000	84.930000	81.150000	226.000000	0.000000	167.000000	55.000000	-55.000000	0.000000
0.050000	84.320000	81.010000	282.000000	0.000000	167.000000	55.000000	-61.000000	-14.000000
0.060000	83.600000	80.800000	330.000000	0.000000	166.000000	54.000000	-72.000000	-21.000000
0.070000	82.910000	80.510000	371.000000	0.000000	167.000000	54.000000	-69.000000	-29.000000
0.080000	82.500000	80.200000	386.000000	0.000000	167.000000	54.000000	-41.000000	-31.000000
0.090000	82.260000	79.870000	393.000000	0.000000	167.000000	54.000000	-24.000000	-33.000000
0.100000	82.260000	79.560000	389.000000	0.000000	167.000000	54.000000	0.000000	-31.000000
0.110000	82.540000	79.250000	394.000000	0.000000	167.000000	54.000000	28.000000	-31.000000
0.120000	82.980000	79.030000	404.000000	0.000000	167.000000	54.000000	44.000000	-22.000000
0.130000	83.570000	78.860000	413.000000	0.000000	168.000000	53.000000	59.000000	-17.000000
0.140000	84.300000	78.780000	415.000000	0.000000	168.000000	53.000000	73.000000	-8.000000
0.150000	85.110000	78.700000	417.000000	0.000000	168.000000	53.000000	81.000000	-8.000000
0.160000	85.830000	78.610000	418.000000	0.000000	168.000000	53.000000	72.000000	-9.000000
0.170000	86.340000	78.520000	417.000000	0.000000	166.000000	53.000000	51.000000	-9.000000
0.180000	86.710000	78.390000	415.000000	0.000000	166.000000	53.000000	37.000000	-13.000000
0.190000	86.710000	78.220000	417.000000	0.000000	166.000000	53.000000	0.000000	-17.000000
0.200000	86.540000	77.980000	422.000000	0.000000	164.000000	54.000000	-17.000000	-24.000000
0.210000	86.210000	77.720000	422.000000	0.000000	164.000000	54.000000	-33.000000	-26.000000
0.220000	85.680000	77.440000	450.000000	0.000000	164.000000	54.000000	-53.000000	-28.000000
0.230000	84.990000	77.170000	492.000000	0.000000	164.000000	55.000000	-69.000000	-27.000000
0.240000	84.180000	76.960000	521.000000	0.000000	164.000000	55.000000	-81.000000	-21.000000
0.250000	83.240000	76.780000	537.000000	0.000000	164.000000	55.000000	-94.000000	-18.000000
0.260000	82.530000	76.650000	543.000000	0.000000	164.000000	55.000000	-71.000000	-13.000000
0.270000	81.980000	76.650000	550.000000	0.000000	164.000000	55.000000	-55.000000	0.000000
0.280000	81.770000	76.650000	554.000000	0.000000	165.000000	55.000000	-21.000000	0.000000
0.290000	81.770000	76.650000	556.000000	0.000000	165.000000	55.000000	0.000000	0.000000
0.300000	81.770000	76.650000	556.000000	0.000000	165.000000	55.000000	0.000000	0.000000
0.310000	81.910000	76.730000	535.000000	0.000000	167.000000	55.000000	14.000000	8.000000
0.320000	82.170000	76.830000	485.000000	0.000000	167.000000	55.000000	26.000000	10.000000
0.330000	82.530000	76.950000	364.000000	0.000000	167.000000	55.000000	36.000000	12.000000
0.340000	82.730000	77.040000	163.000000	0.000000	167.000000	55.000000	20.000000	9.000000
0.350000	82.730000	77.040000	0.000000	1.000000	167.000000	55.000000	0.000000	0.000000
0.360000	83.010000	77.100000	0.000000	0.000000	167.000000	55.000000	28.000000	6.000000
0.370000	83.170000	77.230000	0.000000	0.000000	167.000000	55.000000	16.000000	13.000000
0.380000	83.350000	77.360000	0.000000	0.000000	167.000000	55.000000	18.000000	13.000000
0.390000	83.600000	77.470000	0.000000	0.000000	167.000000	55.000000	25.000000	11.000000
0.400000	84.040000	77.550000	0.000000	0.000000	165.000000	55.000000	44.000000	8.000000
0.410000	84.570000	77.550000	0.000000	0.000000	165.000000	55.000000	53.000000	0.000000
0.420000	85.080000	77.550000	0.000000	0.000000	165.000000	55.000000	51.000000	0.000000
0.430000	85.530000	77.550000	0.000000	0.000000	165.000000	55.000000	45.000000	0.000000
0.440000	85.940000	77.550000	0.000000	0.000000	164.000000	54.000000	41.000000	0.000000
0.450000	86.220000	77.550000	0.000000	0.000000	164.000000	54.000000	28.000000	0.000000
0.460000	86.430000	77.550000	0.000000	0.000000	164.000000	54.000000	21.000000	0.000000
0.470000	86.600000	77.600000	0.000000	0.000000	164.000000	54.000000	17.000000	5.000000
0.480000	86.680000	77.650000	0.000000	0.000000	164.000000	54.000000	8.000000	5.000000
0.490000	86.760000	77.710000	0.000000	0.000000	164.000000	54.000000	8.000000	6.000000
0.500000	86.860000	77.710000	0.000000	0.000000	166.000000	54.000000	10.000000	0.000000
0.510000	86.940000	77.790000	0.000000	0.000000	166.000000	54.000000	8.000000	8.000000
0.520000	87.020000	77.790000	0.000000	0.000000	166.000000	54.000000	8.000000	0.000000
0.530000	87.020000	77.790000	0.000000	0.000000	166.000000	54.000000	0.000000	0.000000
0.540000	87.020000	77.790000	0.000000	0.000000	166.000000	54.000000	0.000000	0.000000
0.550000	87.020000	77.790000	0.000000	0.000000	166.000000	54.000000	0.000000	0.000000
0.560000	87.340000	77.790000	0.000000	0.000000	167.000000	54.000000	32.000000	0.000000
0.570000	87.450000	77.790000	0.000000	0.000000	167.000000	54.000000	11.000000	0.000000
0.580000	87.580000	77.790000	0.000000	0.000000	167.000000	54.000000	13.000000	0.000000
0.590000	87.710000	77.790000	0.000000	0.000000	167.000000	54.000000	13.000000	0.000000
0.600000	87.830000	77.710000	0.000000	0.000000	167.000000	54.000000	12.000000	-8.000000
0.610000	87.930000	77.650000	0.000000	0.000000	167.000000	54.000000	10.000000	-6.000000
0.620000	88.010000	77.650000	0.000000	0.000000	167.000000	54.000000	8.000000	0.000000
0.630000	88.060000	77.650000	0.000000	0.000000	167.000000	54.000000	5.000000	0.000000
0.640000	88.110000	77.590000	0.000000	0.000000	167.000000	55.000000	5.000000	-6.000000
0.650000	88.160000	77.590000	0.000000	0.000000	167.000000	55.000000	5.000000	0.000000
0.660000	88.160000	77.590000	0.000000	0.000000	167.000000	55.000000	0.000000	0.000000
0.670000	88.210000	77.540000	0.000000	0.000000	167.000000	55.000000	5.000000	-5.000000
0.680000	88.210000	77.540000	0.000000	0.000000	167.000000	55.000000	0.000000	0.000000
0.690000	88.210000	77.540000	0.000000	0.000000	166.000000	56.000000	0.000000	0.000000
0.700000	88.210000	77.540000	48.000000	1.000000	166.000000	56.000000	0.000000	0.000000
0.710000	88.210000	77.540000	105.000000	0.000000	166.000000	56.000000	0.000000	0.000000
0.720000	88.210000	77.540000	151.000000	0.000000	166.000000	56.000000	0.000000	0.000000
0.730000	88.210000	77.540000	170.000000	0.000000	165.000000	56.000000	0.000000	0.000000
0.740000	88.210000	77.540000	178.000000	0.000000	165.000000	56.000000	0.000000	0.000000
0.750000	88.210000	77.540000	212.000000	0.000000	165.000000	56.000000	0.000000	0.000000
0.760000	88.210000	77.540000	232.000000	0.000000	165.000000	56.000000	0.000000	0.000000
0.770000	88.210000	77.540000	247.000000	0.000000	165.000000	56.000000	0.000000	0.000000
0.780000	88.210000	77.540000	285.000000	0.000000	164.000000	57.000000	0.000000	0.000000
0.790000	88.210000	77.540000	294.000000	0.000000	166.000000	57.000000	0.000000	0.000000
0.800000	88.210000	77.540000	304.000000	0.000000	166.000000	57.000000	0.000000	0.000000
0.810000	88.210000	77.540000	327.000000	0.000000	166.000000	57.000000	0.000000	0.000000
0.820000	88.210000	77.540000	346.000000	0.000000	166.000000	57.000000	0.000000	0.000000
0.830000	88.210000	77.540000	376.000000	0.000000	166.000000	57.000000	0.000000	0.000000
0.840000	88.210000	77.540000	392.000000	0.000000	166.000000	57.000000	0.000000	0.000000
0.850000	88.210000	77.540000	405.000000	0.000000	166.000000	57.000000	0.000000	0.000000
0.860000	88.210000	77.540000	412.000000	0.000000	166.000000	57.000000	0.000000	0.000000
0.870000	88.210000	77.540000	413.000000	0.000000	166.000000	57.000000	0.000000	0.000000
0.880000	88.210000	77.540000	417.000000	0.000000	166.000000	57.000000	0.000000	0.000000
0.890000	88.210000	77.540000	415.000000	0.000000	166.000000	56.000000	0.000000	0.000000
0.900000	88.210000	77.540000	397.000000	0.000000	166.000000	56.000000	0.000000	0.000000
0.910000	88.210000	77.540000	319.000000	0.000000	166.000000	56.000000	0.000000	0.000000
0.920000	88.210000	77.540000	148.000000	0.000000	166.000000	56.000000	0.000000	0.000000
0.930000	88.210000	77.540000	0.000000	1.000000	166.000000	56.000000	0.000000	0.000000
0.940000	88.210000	77.540000	0.000000	0.000000	166.000000	56.000000	0.000000	0.000000
0.950000	88.580000	77.510000	0.000000	0.000000	166.000000	56.000000	37.000000	-3.000000
0.960000	88.860000	77.750000	0.000000	0.000000	168.000000	56.000000	28.000000	24.000000
0.970000	89.300000	77.980000	0.000000	0.000000	168.000000	56.000000	44.000000	23.000000
0.980000	89.770000	78.200000	0.000000	0.000000	168.000000	56.000000	47.000000	22.000000
0.990000	90.300000	78.390000	0.000000	0.000000	168.000000	55.000000	53.000000	19.000000
1.000000	90.800000	78.530000	0.000000	0.000000	168.000000	55.000000	50.000000	14.000000
1.010000	91.150000	78.650000	0.000000	0.000000	169.000000	54.000000	35.000000	12.000000
1.020000	91.400000	78.650000	0.000000	0.000000	169.000000	54.000000	25.000000	0.000000
1.030000	91.520000	78.740000	0.000000	0.000000	169.000000	54.000000	12.000000	9.000000
1.040000	91.520000	78.830000	0.000000	0.000000	169.000000	53.000000	0.000000	9.000000
1.050000	91.520000	78.830000	0.000000	0.000000	169.000000	53.000000	0.000000	0.000000
1.060000	91.520000	78.830000	0.000000	0.000000	168.000000	53.000000	0.000000	0.000000
1.070000	91.520000	78.830000	0.000000	0.000000	168.000000	53.000000	0.000000	0.000000
1.080000	91.220000	79.030000	0.000000	0.000000	168.000000	53.000000	-30.000000	20.000000
1.090000	91.140000	79.030000	0.000000	0.000000	168.000000	53.000000	-8.000000	0.000000
1.100000	91.060000	78.940000	0.000000	0.000000	168.000000	53.000000	-8.000000	-9.000000
1.110000	90.980000	78.840000	0.000000	0.000000	168.000000	53.000000	-8.000000	-10.000000
1.120000	90.930000	78.760000	0.000000	0.000000	169.000000	53.000000	-5.000000	-8.000000
1.130000	90.930000	78.700000	0.000000	0.000000	169.000000	53.000000	0.000000	-6.000000
1.140000	90.870000	78.620000	0.000000	0.000000	169.000000	53.000000	-6.000000	-8.000000
1.150000	90.870000	78.540000	0.000000	0.000000	170.000000	55.000000	0.000000	-8.000000
1.160000	90.870000	78.470000	0.000000	0.000000	170.000000	55.000000	0.000000	-7.000000
1.170000	90.820000	78.400000	0.000000	0.000000	170.000000	55.000000	-5.000000	-7.000000
1.180000	90.820000	78.320000	0.000000	0.000000	170.000000	55.000000	0.000000	-8.000000
1.190000	90.820000	78.240000	0.000000	0.000000	171.000000	55.000000	0.000000	-8.000000
1.200000	90.760000	78.160000	0.000000	0.000000	171.000000	56.000000	-6.000000	-8.000000
1.210000	90.760000	78.160000	0.000000	0.000000	171.000000	56.000000	0.000000	0.000000
1.220000	90.760000	78.160000	0.000000	0.000000	171.000000	56.000000	0.000000	0.000000
1.230000	90.840000	78.160000	0.000000	0.000000	171.000000	56.000000	8.000000	0.000000
1.240000	90.890000	78.220000	0.000000	0.000000	171.000000	56.000000	5.000000	6.000000
1.250000	90.960000	78.300000	0.000000	0.000000	171.000000	56.000000	7.000000	8.000000
1.260000	91.030000	78.420000	0.000000	0.000000	171.000000	56.000000	7.000000	12.000000
1.270000	91.100000	78.530000	0.000000	0.000000	171.000000	56.000000	7.000000	11.000000
1.280000	91.180000	78.650000	0.000000	0.000000	171.000000	56.000000	8.000000	12.000000
1.290000	91.250000	78.770000	0.000000	0.000000	171.000000	56.000000	7.000000	12.000000
1.300000	91.310000	78.950000	0.000000	0.000000	171.000000	56.000000	6.000000	18.000000
1.310000	91.360000	79.160000	0.000000	0.000000	171.000000	55.000000	5.000000	21.000000
1.320000	91.360000	79.330000	0.000000	0.000000	170.000000	55.000000	0.000000	17.000000
1.330000	91.410000	79.490000	0.000000	0.000000	170.000000	55.000000	5.000000	16.000000
1.340000	91.410000	79.600000	0.000000	0.000000	170.000000	55.000000	0.000000	11.000000
1.350000	91.410000	79.680000	0.000000	0.000000	170.000000	55.000000	0.000000	8.000000
1.360000	91.350000	79.730000	0.000000	0.000000	170.000000	55.000000	-6.000000	5.000000
1.370000	91.350000	79.730000	0.000000	0.000000	168.000000	55.000000	0.000000	0.000000
1.380000	91.300000	79.650000	0.000000	0.000000	168.000000	55.000000	-5.000000	-8.000000
1.390000	91.300000	79.560000	0.000000	0.000000	168.000000	56.000000	0.000000	-9.000000
1.400000	91.240000	79.440000	0.000000	0.000000	168.000000	56.000000	-6.000000	-12.000000
1.410000	91.240000	79.300000	0.000000	0.000000	168.000000	56.000000	0.000000	-14.000000
1.420000	91.170000	79.150000	0.000000	0.000000	168.000000	56.000000	-7.000000	-15.000000
1.430000	91.170000	78.990000	0.000000	0.000000	169.000000	57.000000	0.000000	-16.000000
1.440000	91.110000	78.820000	0.000000	0.000000	170.000000	56.000000	-6.000000	-17.000000
1.450000	91.110000	78.690000	0.000000	0.000000	171.000000	56.000000	0.000000	-13.000000
1.460000	91.110000	78.550000	0.000000	0.000000	171.000000	55.000000	0.000000	-14.000000
1.470000	91.110000	78.430000	0.000000	0.000000	171.000000	55.000000	0.000000	-12.000000
1.480000	91.110000	78.320000	0.000000	0.000000	173.000000	55.000000	0.000000	-11.000000
1.490000	91.110000	78.180000	0.000000	0.000000	173.000000	55.000000	0.000000	-14.000000
1.500000	91.110000	78.050000	0.000000	0.000000	173.000000	56.000000	0.000000	-13.000000
1.510000	91.110000	77.920000	0.000000	0.000000	173.000000	56.000000	0.000000	-13.000000
1.520000	91.040000	77.810000	0.000000	0.000000	173.000000	56.000000	-7.000000	-11.000000
1.530000	91.040000	77.740000	0.000000	0.000000	172.000000	57.000000	0.000000	-7.000000
1.540000	90.990000	77.690000	0.000000	0.000000	172.000000	57.000000	-5.000000	-5.000000
1.550000	90.990000	77.690000	8.000000	0.000000	172.000000	57.000000	0.000000	0.000000
1.560000	90.990000	77.690000	68.000000	1.000000	174.000000	57.000000	0.000000	0.000000
1.570000	90.990000	77.690000	101.000000	0.000000	174.000000	58.000000	0.000000	0.000000
1.580000	90.990000	77.690000	146.000000	0.000000	174.000000	58.000000	0.000000	0.000000
1.590000	90.990000	77.690000	163.000000	0.000000	174.000000	58.000000	0.000000	0.000000
1.600000	90.930000	77.400000	180.000000	0.000000	174.000000	58.000000	-6.000000	-29.000000
1.610000	90.930000	77.400000	213.000000	0.000000	174.000000	58.000000	0.000000	0.000000
1.620000	90.980000	77.350000	223.000000	0.000000	174.000000	58.000000	5.000000	-5.000000
1.630000	90.980000	77.350000	255.000000	0.000000	174.000000	58.000000	0.000000	0.000000
1.640000	90.980000	77.350000	299.000000	0.000000	174.000000	58.000000	0.000000	0.000000
1.650000	90.980000	77.350000	314.000000	0.000000	174.000000	58.000000	0.000000	0.000000
1.660000	91.080000	77.470000	307.000000	0.000000	174.000000	58.000000	10.000000	12.000000
1.670000	91.250000	77.640000	315.000000	0.000000	174.000000	58.000000	17.000000	17.000000
1.680000	91.370000	77.790000	327.000000	0.000000	174.000000	58.000000	12.000000	15.000000
1.690000	91.370000	77.790000	344.000000	0.000000	174.000000	58.000000	0.000000	0.000000
1.700000	91.580000	78.250000	333.000000	0.000000	174.000000	58.000000	21.000000	46.000000
1.710000	91.700000	78.620000	336.000000	0.000000	172.000000	57.000000	12.000000	37.000000
1.720000	91.800000	79.080000	338.000000	0.000000	172.000000	57.000000	10.000000	46.000000
1.730000	91.860000	79.610000	348.000000	0.000000	172.000000	57.000000	6.000000	53.000000
1.740000	91.860000	80.360000	353.000000	0.000000	173.000000	56.000000	0.000000	75.000000
1.750000	91.860000	80.980000	373.000000	0.000000	171.000000	56.000000	0.000000	62.000000
1.760000	91.860000	81.520000	399.000000	0.000000	170.000000	56.000000	0.000000	54.000000
1.770000	91.860000	81.860000	402.000000	0.000000	170.000000	55.000000	0.000000	34.000000
1.780000	91.860000	82.160000	414.000000	0.000000	170.000000	55.000000	0.000000	30.000000
1.790000	91.860000	82.300000	438.000000	0.000000	169.000000	54.000000	0.000000	14.000000
1.800000	91.860000	82.300000	440.000000	0.000000	169.000000	54.000000	0.000000	0.000000
1.810000	91.860000	82.300000	440.000000	0.000000	169.000000	54.000000	0.000000	0.000000
1.820000	91.860000	82.300000	436.000000	0.000000	167.000000	54.000000	0.000000	0.000000
1.830000	91.860000	82.240000	440.000000	0.000000	167.000000	54.000000	0.000000	-6.000000
1.840000	91.910000	82.100000	440.000000	0.000000	167.000000	54.000000	5.000000	-14.000000
1.850000	91.990000	81.780000	441.000000	0.000000	168.000000	53.000000	8.000000	-32.000000
1.860000	92.130000	81.360000	443.000000	0.000000	167.000000	54.000000	14.000000	-42.000000
1.870000	92.290000	80.880000	441.000000	0.000000	167.000000	54.000000	16.000000	-48.000000
1.880000	92.460000	80.250000	443.000000	0.000000	167.000000	54.000000	17.000000	-63.000000
1.890000	92.670000	79.530000	443.000000	0.000000	167.000000	54.000000	21.000000	-72.000000
1.900000	92.910000	78.800000	443.000000	0.000000	167.000000	54.000000	24.000000	-73.000000
1.910000	93.140000	78.250000	446.000000	0.000000	168.000000	55.000000	23.000000	-55.000000
1.920000	93.370000	77.820000	448.000000	0.000000	168.000000	55.000000	23.000000	-43.000000
1.930000	93.610000	77.450000	449.000000	0.000000	168.000000	55.000000	24.000000	-37.000000
1.940000	93.810000	77.190000	439.000000	0.000000	169.000000	57.000000	20.000000	-26.000000
1.950000	94.000000	77.010000	447.000000	0.000000	169.000000	57.000000	19.000000	-18.000000
1.960000	94.170000	76.880000	450.000000	0.000000	171.000000	57.000000	17.000000	-13.000000
1.970000	94.270000	76.800000	452.000000	0.000000	171.000000	57.000000	10.000000	-8.000000
1.980000	94.320000	76.800000	455.000000	0.000000	170.000000	58.000000	5.000000	0.000000
1.990000	94.380000	76.740000	455.000000	0.000000	170.000000	58.000000	6.000000	-6.000000
2.000000	94.380000	76.740000	456.000000	0.000000	170.000000	58.000000	0.000000	0.000000
2.010000	94.380000	76.740000	460.000000	0.000000	170.000000	58.000000	0.000000	0.000000
2.020000	94.380000	76.740000	465.000000	0.000000	170.000000	58.000000	0.000000	0.000000
2.030000	94.380000	76.740000	473.000000	0.000000	170.000000	58.000000	0.000000	0.000000
2.040000	94.380000	76.740000	473.000000	0.000000	171.000000	57.000000	0.000000	0.000000
2.050000	94.380000	76.740000	481.000000	0.000000	169.000000	57.000000	0.000000	0.000000
2.060000	94.280000	76.820000	485.000000	0.000000	169.000000	57.000000	-10.000000	8.000000
2.070000	94.140000	76.980000	486.000000	0.000000	169.000000	57.000000	-14.000000	16.000000
2.080000	93.980000	77.140000	485.000000	0.000000	169.000000	58.000000	-16.000000	16.000000
2.090000	93.790000	77.340000	483.000000	0.000000	169.000000	58.000000	-19.000000	20.000000
2.100000	93.580000	77.560000	473.000000	0.000000	169.000000	58.000000	-21.000000	22.000000
2.110000	93.330000	77.830000	473.000000	0.000000	169.000000	58.000000	-25.000000	27.000000
2.120000	93.080000	78.140000	472.000000	0.000000	169.000000	58.000000	-25.000000	31.000000
2.130000	92.820000	78.470000	472.000000	0.000000	169.000000	57.000000	-26.000000	33.000000
2.140000	92.570000	78.650000	473.000000	0.000000	169.000000	57.000000	-25.000000	18.000000
2.150000	92.330000	78.800000	473.000000	0.000000	169.000000	57.000000	-24.000000	15.000000
2.160000	92.090000	78.890000	467.000000	0.000000	171.000000	56.000000	-24.000000	9.000000
2.170000	91.830000	78.890000	473.000000	0.000000	171.000000	56.000000	-26.000000	0.000000
2.180000	91.620000	78.890000	470.000000	0.000000	171.000000	55.000000	-21.000000	0.000000
2.190000	91.620000	78.890000	468.000000	0.000000	171.000000	55.000000	0.000000	0.000000
2.200000	91.620000	78.890000	465.000000	0.000000	171.000000	55.000000	0.000000	0.000000
2.210000	91.330000	78.710000	465.000000	0.000000	172.000000	54.000000	-29.000000	-18.000000
2.220000	91.330000	78.630000	465.000000	0.000000	173.000000	54.000000	0.000000	-8.000000
2.230000	91.410000	78.530000	464.000000	0.000000	173.000000	54.000000	8.000000	-10.000000
2.240000	91.520000	78.400000	465.000000	0.000000	173.000000	55.000000	11.000000	-13.000000
