t	x	y	pressure	penup	azimuth	inclination	v_x	v_y
0.000000	50.980000	31.450000	61.000000	1.000000	130.000000	62.000000	0.000000	0.000000
0.010000	50.760000	31.700000	119.000000	0.000000	133.000000	62.000000	-22.000000	25.000000
0.020000	50.520000	31.790000	203.000000	0.000000	133.000000	62.000000	-24.000000	9.000000
0.030000	50.210000	31.840000	292.000000	0.000000	133.000000	62.000000	-31.000000	5.000000
0.040000	49.770000	31.840000	342.000000	0.000000	135.000000	63.000000	-44.000000	0.000000
0.050000	49.230000	31.770000	396.000000	0.000000	137.000000	62.000000	-54.000000	-7.000000
0.060000	48.560000	31.610000	417.000000	0.000000	137.000000	62.000000	-67.000000	-16.000000
0.070000	47.770000	31.420000	449.000000	0.000000	137.000000	62.000000	-79.000000	-19.000000
0.080000	46.890000	31.170000	478.000000	0.000000	137.000000	62.000000	-88.000000	-25.000000
0.090000	46.110000	30.910000	488.000000	0.000000	137.000000	62.000000	-78.000000	-26.000000
0.100000	45.500000	30.610000	496.000000	0.000000	137.000000	62.000000	-61.000000	-30.000000
0.110000	45.010000	30.350000	496.000000	0.000000	137.000000	62.000000	-49.000000	-26.000000
0.120000	44.660000	30.100000	489.000000	0.000000	135.000000	62.000000	-35.000000	-25.000000
0.130000	44.540000	29.940000	489.000000	0.000000	135.000000	62.000000	-12.000000	-16.000000
0.140000	44.540000	29.860000	496.000000	0.000000	133.000000	62.000000	0.000000	-8.000000
0.150000	44.650000	29.860000	502.000000	0.000000	132.000000	61.000000	11.000000	0.000000
0.160000	44.920000	29.700000	512.000000	0.000000	132.000000	61.000000	27.000000	-16.000000
0.170000	45.310000	29.560000	512.000000	0.000000	132.000000	61.000000	39.000000	-14.000000
0.180000	46.020000	29.450000	515.000000	0.000000	132.000000	61.000000	71.000000	-11.000000
0.190000	46.930000	29.350000	516.000000	0.000000	133.000000	62.000000	91.000000	-10.000000
0.200000	47.970000	29.180000	512.000000	0.000000	133.000000	62.000000	104.000000	-17.000000
0.210000	48.810000	29.030000	520.000000	0.000000	133.000000	62.000000	84.000000	-15.000000
0.220000	49.410000	28.890000	519.000000	0.000000	135.000000	63.000000	60.000000	-14.000000
0.230000	49.840000	28.720000	515.000000	0.000000	135.000000	63.000000	43.000000	-17.000000
0.240000	50.020000	28.540000	519.000000	0.000000	135.000000	64.000000	18.000000	-18.000000
0.250000	50.020000	28.350000	519.000000	0.000000	135.000000	64.000000	0.000000	-19.000000
0.260000	49.890000	28.140000	522.000000	0.000000	135.000000	64.000000	-13.000000	-21.000000
0.270000	49.550000	27.910000	519.000000	0.000000	133.000000	65.000000	-34.000000	-23.000000
0.280000	48.990000	27.660000	533.000000	0.000000	133.000000	65.000000	-56.000000	-25.000000
0.290000	48.280000	27.510000	537.000000	0.000000	133.000000	65.000000	-71.000000	-15.000000
0.300000	47.440000	27.440000	541.000000	0.000000	133.000000	65.000000	-84.000000	-7.000000
0.310000	46.650000	27.520000	537.000000	0.000000	132.000000	65.000000	-79.000000	8.000000
0.320000	45.890000	27.680000	537.000000	0.000000	132.000000	65.000000	-76.000000	16.000000
0.330000	45.460000	27.900000	524.000000	0.000000	130.000000	65.000000	-43.000000	22.000000
0.340000	45.300000	28.180000	407.000000	0.000000	130.000000	65.000000	-16.000000	28.000000
0.350000	45.300000	28.180000	0.000000	1.000000	130.000000	65.000000	0.000000	0.000000
0.360000	45.580000	28.780000	0.000000	0.000000	130.000000	65.000000	28.000000	60.000000
0.370000	45.980000	29.140000	0.000000	0.000000	130.000000	63.000000	40.000000	36.000000
0.380000	46.470000	29.480000	0.000000	0.000000	132.000000	64.000000	49.000000	34.000000
0.390000	47.020000	29.820000	0.000000	0.000000	132.000000	64.000000	55.000000	34.000000
0.400000	47.730000	30.040000	0.000000	0.000000	132.000000	64.000000	71.000000	22.000000
0.410000	48.540000	30.170000	0.000000	0.000000	133.000000	65.000000	81.000000	13.000000
0.420000	49.600000	30.570000	0.000000	0.000000	132.000000	64.000000	106.000000	40.000000
0.430000	50.800000	30.850000	0.000000	0.000000	132.000000	64.000000	120.000000	28.000000
0.440000	52.080000	31.040000	0.000000	0.000000	130.000000	63.000000	128.000000	19.000000
0.450000	53.220000	31.130000	0.000000	0.000000	130.000000	62.000000	114.000000	9.000000
0.460000	54.390000	31.180000	0.000000	0.000000	130.000000	62.000000	117.000000	5.000000
0.470000	55.140000	31.180000	0.000000	0.000000	130.000000	62.000000	75.000000	0.000000
0.480000	55.590000	31.180000	0.000000	0.000000	130.000000	62.000000	45.000000	0.000000
0.490000	56.060000	31.060000	0.000000	0.000000	133.000000	62.000000	47.000000	-12.000000
0.500000	56.060000	31.060000	0.000000	0.000000	135.000000	63.000000	0.000000	0.000000
0.510000	56.260000	30.450000	0.000000	0.000000	138.000000	64.000000	20.000000	-61.000000
0.520000	55.870000	29.940000	0.000000	0.000000	141.000000	64.000000	-39.000000	-51.000000
0.530000	55.500000	29.940000	0.000000	0.000000	142.000000	65.000000	-37.000000	0.000000
0.540000	55.220000	29.940000	0.000000	0.000000	144.000000	66.000000	-28.000000	0.000000
0.550000	54.760000	29.870000	0.000000	0.000000	142.000000	65.000000	-46.000000	-7.000000
0.560000	54.180000	29.820000	0.000000	0.000000	140.000000	65.000000	-58.000000	-5.000000
0.570000	53.590000	29.750000	0.000000	0.000000	137.000000	65.000000	-59.000000	-7.000000
0.580000	53.020000	29.700000	0.000000	0.000000	135.000000	64.000000	-57.000000	-5.000000
0.590000	52.770000	29.700000	0.000000	0.000000	133.000000	63.000000	-25.000000	0.000000
0.600000	52.710000	29.610000	0.000000	0.000000	132.000000	63.000000	-6.000000	-9.000000
0.610000	52.710000	29.610000	0.000000	0.000000	130.000000	62.000000	0.000000	0.000000
0.620000	52.710000	29.550000	0.000000	0.000000	130.000000	62.000000	0.000000	-6.000000
0.630000	52.660000	29.550000	0.000000	0.000000	129.000000	61.000000	-5.000000	0.000000
0.640000	52.560000	29.550000	0.000000	0.000000	127.000000	62.000000	-10.000000	0.000000
0.650000	52.380000	29.550000	0.000000	0.000000	127.000000	62.000000	-18.000000	0.000000
0.660000	52.140000	29.490000	0.000000	0.000000	127.000000	62.000000	-24.000000	-6.000000
0.670000	51.940000	29.430000	0.000000	0.000000	127.000000	62.000000	-20.000000	-6.000000
0.680000	51.770000	29.320000	0.000000	0.000000	126.000000	61.000000	-17.000000	-11.000000
0.690000	51.650000	29.200000	0.000000	0.000000	126.000000	61.000000	-12.000000	-12.000000
0.700000	51.650000	29.200000	0.000000	0.000000	127.000000	62.000000	0.000000	0.000000
0.710000	51.650000	29.200000	34.000000	1.000000	127.000000	62.000000	0.000000	0.000000
0.720000	51.470000	29.030000	98.000000	0.000000	127.000000	62.000000	-18.000000	-17.000000
0.730000	51.470000	28.980000	139.000000	0.000000	127.000000	62.000000	0.000000	-5.000000
0.740000	51.470000	28.980000	182.000000	0.000000	127.000000	62.000000	0.000000	0.000000
0.750000	51.530000	29.070000	180.000000	0.000000	129.000000	63.000000	6.000000	9.000000
0.760000	51.530000	29.160000	183.000000	0.000000	129.000000	63.000000	0.000000	9.000000
0.770000	51.630000	29.230000	181.000000	0.000000	130.000000	62.000000	10.000000	7.000000
0.780000	51.720000	29.290000	131.000000	0.000000	130.000000	62.000000	9.000000	6.000000
0.790000	51.720000	29.290000	0.000000	1.000000	130.000000	62.000000	0.000000	0.000000
0.800000	51.720000	29.290000	0.000000	0.000000	130.000000	62.000000	0.000000	0.000000
0.810000	51.790000	29.290000	0.000000	0.000000	130.000000	62.000000	7.000000	0.000000
0.820000	51.790000	29.290000	0.000000	0.000000	130.000000	62.000000	0.000000	0.000000
0.830000	51.840000	29.150000	0.000000	0.000000	129.000000	63.000000	5.000000	-14.000000
0.840000	51.840000	28.850000	0.000000	0.000000	129.000000	63.000000	0.000000	-30.000000
0.850000	51.940000	28.450000	0.000000	0.000000	129.000000	63.000000	10.000000	-40.000000
0.860000	52.240000	28.150000	0.000000	0.000000	126.000000	62.000000	30.000000	-30.000000
0.870000	52.680000	27.910000	0.000000	0.000000	124.000000	63.000000	44.000000	-24.000000
0.880000	53.130000	27.720000	0.000000	0.000000	124.000000	63.000000	45.000000	-19.000000
0.890000	53.570000	27.550000	0.000000	0.000000	122.000000	63.000000	44.000000	-17.000000
0.900000	53.990000	27.440000	0.000000	0.000000	122.000000	63.000000	42.000000	-11.000000
0.910000	54.330000	27.380000	0.000000	0.000000	120.000000	64.000000	34.000000	-6.000000
0.920000	54.540000	27.380000	0.000000	0.000000	122.000000	65.000000	21.000000	0.000000
0.930000	54.660000	27.530000	0.000000	0.000000	122.000000	65.000000	12.000000	15.000000
0.940000	54.660000	27.700000	0.000000	0.000000	124.000000	64.000000	0.000000	17.000000
0.950000	54.590000	27.850000	0.000000	0.000000	125.000000	65.000000	-7.000000	15.000000
0.960000	54.590000	27.850000	58.000000	1.000000	125.000000	65.000000	0.000000	0.000000
0.970000	54.350000	28.270000	141.000000	0.000000	127.000000	64.000000	-24.000000	42.000000
0.980000	54.220000	28.470000	190.000000	0.000000	127.000000	64.000000	-13.000000	20.000000
0.990000	54.150000	28.720000	280.000000	0.000000	127.000000	64.000000	-7.000000	25.000000
1.000000	54.150000	29.000000	320.000000	0.000000	129.000000	64.000000	0.000000	28.000000
1.010000	54.230000	29.410000	364.000000	0.000000	129.000000	64.000000	8.000000	41.000000
1.020000	54.340000	29.950000	389.000000	0.000000	129.000000	64.000000	11.000000	54.000000
1.030000	54.550000	30.590000	413.000000	0.000000	130.000000	63.000000	21.000000	64.000000
1.040000	54.800000	31.430000	425.000000	0.000000	129.000000	63.000000	25.000000	84.000000
1.050000	55.030000	32.430000	441.000000	0.000000	129.000000	63.000000	23.000000	100.000000
1.060000	55.130000	33.550000	474.000000	0.000000	130.000000	62.000000	10.000000	112.000000
1.070000	55.130000	34.320000	502.000000	0.000000	130.000000	62.000000	0.000000	77.000000
1.080000	55.130000	34.790000	530.000000	0.000000	130.000000	62.000000	0.000000	47.000000
1.090000	55.060000	35.050000	545.000000	0.000000	130.000000	62.000000	-7.000000	26.000000
1.100000	54.970000	35.120000	561.000000	0.000000	130.000000	62.000000	-9.000000	7.000000
1.110000	54.970000	35.120000	556.000000	0.000000	130.000000	62.000000	0.000000	0.000000
1.120000	54.880000	35.120000	554.000000	0.000000	130.000000	62.000000	-9.000000	0.000000
1.130000	54.830000	34.790000	556.000000	0.000000	130.000000	62.000000	-5.000000	-33.000000
1.140000	54.750000	34.310000	550.000000	0.000000	130.000000	62.000000	-8.000000	-48.000000
1.150000	54.750000	33.720000	551.000000	0.000000	130.000000	62.000000	0.000000	-59.000000
1.160000	54.880000	32.930000	545.000000	0.000000	130.000000	62.000000	13.000000	-79.000000
1.170000	55.100000	32.000000	540.000000	0.000000	130.000000	62.000000	22.000000	-93.000000
1.180000	55.380000	31.070000	535.000000	0.000000	132.000000	63.000000	28.000000	-93.000000
1.190000	55.660000	30.240000	533.000000	0.000000	132.000000	63.000000	28.000000	-83.000000
1.200000	55.980000	29.480000	535.000000	0.000000	132.000000	63.000000	32.000000	-76.000000
1.210000	56.310000	28.950000	533.000000	0.000000	133.000000	63.000000	33.000000	-53.000000
1.220000	56.710000	28.580000	535.000000	0.000000	133.000000	63.000000	40.000000	-37.000000
1.230000	57.130000	28.310000	533.000000	0.000000	133.000000	63.000000	42.000000	-27.000000
1.240000	57.550000	28.260000	532.000000	0.000000	135.000000	64.000000	42.000000	-5.000000
1.250000	57.930000	28.390000	532.000000	0.000000	135.000000	64.000000	38.000000	13.000000
1.260000	58.140000	28.650000	533.000000	0.000000	135.000000	64.000000	21.000000	26.000000
1.270000	58.240000	28.940000	533.000000	0.000000	135.000000	64.000000	10.000000	29.000000
1.280000	58.240000	29.220000	530.000000	0.000000	135.000000	64.000000	0.000000	28.000000
1.290000	58.100000	29.490000	512.000000	0.000000	135.000000	64.000000	-14.000000	27.000000
1.300000	57.820000	29.720000	510.000000	0.000000	135.000000	64.000000	-28.000000	23.000000
1.310000	57.410000	29.910000	492.000000	0.000000	135.000000	64.000000	-41.000000	19.000000
1.320000	56.960000	30.010000	490.000000	0.000000	135.000000	64.000000	-45.000000	10.000000
1.330000	56.490000	30.010000	477.000000	0.000000	135.000000	64.000000	-47.000000	0.000000
1.340000	56.110000	30.010000	475.000000	0.000000	135.000000	64.000000	-38.000000	0.000000
1.350000	55.740000	29.850000	481.000000	0.000000	133.000000	63.000000	-37.000000	-16.000000
1.360000	55.550000	29.640000	477.000000	0.000000	135.000000	63.000000	-19.000000	-21.000000
1.370000	55.480000	29.470000	475.000000	0.000000	135.000000	63.000000	-7.000000	-17.000000
1.380000	55.480000	29.290000	477.000000	0.000000	133.000000	63.000000	0.000000	-18.000000
1.390000	55.590000	29.090000	475.000000	0.000000	133.000000	63.000000	11.000000	-20.000000
1.400000	55.750000	28.910000	478.000000	0.000000	133.000000	63.000000	16.000000	-18.000000
1.410000	55.970000	28.830000	483.000000	0.000000	133.000000	63.000000	22.000000	-8.000000
1.420000	56.210000	28.830000	495.000000	0.000000	133.000000	63.000000	24.000000	0.000000
1.430000	56.480000	28.890000	498.000000	0.000000	133.000000	63.000000	27.000000	6.000000
1.440000	56.800000	29.100000	496.000000	0.000000	135.000000	64.000000	32.000000	21.000000
1.450000	57.150000	29.390000	496.000000	0.000000	135.000000	64.000000	35.000000	29.000000
1.460000	57.530000	29.710000	491.000000	0.000000	135.000000	64.000000	38.000000	32.000000
1.470000	57.790000	30.050000	493.000000	0.000000	135.000000	64.000000	26.000000	34.000000
1.480000	57.970000	30.400000	495.000000	0.000000	135.000000	64.000000	18.000000	35.000000
1.490000	58.070000	30.640000	495.000000	0.000000	137.000000	63.000000	10.000000	24.000000
1.500000	58.070000	30.840000	502.000000	0.000000	137.000000	63.000000	0.000000	20.000000
1.510000	58.010000	30.950000	514.000000	0.000000	137.000000	63.000000	-6.000000	11.000000
1.520000	58.010000	31.000000	514.000000	0.000000	137.000000	63.000000	0.000000	5.000000
1.530000	57.960000	31.000000	505.000000	0.000000	137.000000	63.000000	-5.000000	0.000000
1.540000	57.960000	30.950000	501.000000	0.000000	137.000000	63.000000	0.000000	-5.000000
1.550000	58.020000	30.820000	499.000000	0.000000	137.000000	62.000000	6.000000	-13.000000
1.560000	58.120000	30.560000	497.000000	0.000000	137.000000	62.000000	10.000000	-26.000000
1.570000	58.240000	30.230000	494.000000	0.000000	135.000000	63.000000	12.000000	-33.000000
1.580000	58.370000	29.990000	494.000000	0.000000	135.000000	63.000000	13.000000	-24.000000
1.590000	58.510000	29.750000	496.000000	0.000000	137.000000	63.000000	14.000000	-24.000000
1.600000	58.670000	29.580000	494.000000	0.000000	137.000000	63.000000	16.000000	-17.000000
1.610000	58.840000	29.450000	501.000000	0.000000	137.000000	63.000000	17.000000	-13.000000
1.620000	59.040000	29.400000	507.000000	0.000000	138.000000	64.000000	20.000000	-5.000000
1.630000	59.240000	29.450000	519.000000	0.000000	138.000000	64.000000	20.000000	5.000000
1.640000	59.460000	29.560000	524.000000	0.000000	138.000000	64.000000	22.000000	11.000000
1.650000	59.690000	29.790000	540.000000	0.000000	138.000000	64.000000	23.000000	23.000000
1.660000	59.920000	30.100000	546.000000	0.000000	138.000000	64.000000	23.000000	31.000000
1.670000	60.050000	30.470000	546.000000	0.000000	138.000000	64.000000	13.000000	37.000000
1.680000	60.120000	30.760000	556.000000	0.000000	138.000000	64.000000	7.000000	29.000000
1.690000	60.120000	31.030000	560.000000	0.000000	138.000000	64.000000	0.000000	27.000000
1.700000	60.070000	31.240000	577.000000	0.000000	138.000000	64.000000	-5.000000	21.000000
1.710000	60.000000	31.320000	602.000000	0.000000	138.000000	64.000000	-7.000000	8.000000
1.720000	60.000000	31.320000	599.000000	0.000000	138.000000	64.000000	0.000000	0.000000
1.730000	60.000000	31.320000	591.000000	0.000000	138.000000	64.000000	0.000000	0.000000
1.740000	60.000000	31.320000	592.000000	0.000000	140.000000	63.000000	0.000000	0.000000
1.750000	60.050000	31.140000	594.000000	0.000000	140.000000	63.000000	5.000000	-18.000000
1.760000	60.120000	30.860000	594.000000	0.000000	140.000000	63.000000	7.000000	-28.000000
1.770000	60.200000	30.550000	595.000000	0.000000	140.000000	63.000000	8.000000	-31.000000
1.780000	60.300000	30.250000	597.000000	0.000000	140.000000	63.000000	10.000000	-30.000000
1.790000	60.420000	29.950000	595.000000	0.000000	140.000000	63.000000	12.000000	-30.000000
1.800000	60.580000	29.700000	592.000000	0.000000	140.000000	63.000000	16.000000	-25.000000
1.810000	60.790000	29.490000	586.000000	0.000000	138.000000	64.000000	21.000000	-21.000000
1.820000	61.050000	29.340000	572.000000	0.000000	138.000000	64.000000	26.000000	-15.000000
1.830000	61.370000	29.340000	542.000000	0.000000	138.000000	64.000000	32.000000	0.000000
1.840000	61.790000	29.550000	488.000000	0.000000	138.000000	64.000000	42.000000	21.000000
1.850000	62.270000	29.880000	413.000000	0.000000	138.000000	64.000000	48.000000	33.000000
1.860000	62.760000	30.250000	272.000000	0.000000	138.000000	64.000000	49.000000	37.000000
1.870000	63.090000	30.650000	153.000000	0.000000	138.000000	64.000000	33.000000	40.000000
1.880000	63.300000	30.970000	50.000000	0.000000	138.000000	64.000000	21.000000	32.000000
1.890000	63.300000	30.970000	0.000000	1.000000	138.000000	64.000000	0.000000	0.000000
1.900000	63.250000	31.540000	0.000000	0.000000	138.000000	64.000000	-5.000000	57.000000
1.910000	63.060000	31.730000	0.000000	0.000000	140.000000	63.000000	-19.000000	19.000000
1.920000	63.060000	31.730000	60.000000	1.000000	140.000000	63.000000	0.000000	0.000000
1.930000	62.650000	31.920000	93.000000	0.000000	138.000000	63.000000	-41.000000	19.000000
1.940000	62.460000	31.920000	119.000000	0.000000	138.000000	63.000000	-19.000000	0.000000
1.950000	62.280000	31.850000	141.000000	0.000000	140.000000	63.000000	-18.000000	-7.000000
1.960000	62.130000	31.780000	160.000000	0.000000	140.000000	63.000000	-15.000000	-7.000000
1.970000	61.950000	31.600000	173.000000	0.000000	140.000000	63.000000	-18.000000	-18.000000
1.980000	61.800000	31.350000	214.000000	0.000000	140.000000	63.000000	-15.000000	-25.000000
1.990000	61.680000	31.130000	247.000000	0.000000	140.000000	63.000000	-12.000000	-22.000000
2.000000	61.580000	30.900000	279.000000	0.000000	140.000000	63.000000	-10.000000	-23.000000
2.010000	61.530000	30.690000	279.000000	0.000000	140.000000	63.000000	-5.000000	-21.000000
2.020000	61.530000	30.490000	287.000000	0.000000	140.000000	63.000000	0.000000	-20.000000
2.030000	61.580000	30.300000	299.000000	0.000000	140.000000	63.000000	5.000000	-19.000000
2.040000	61.700000	30.120000	312.000000	0.000000	140.000000	63.000000	12.000000	-18.000000
2.050000	61.910000	29.950000	319.000000	0.000000	140.000000	63.000000	21.000000	-17.000000
2.060000	62.210000	29.890000	324.000000	0.000000	140.000000	63.000000	30.000000	-6.000000
2.070000	62.570000	29.890000	325.000000	0.000000	140.000000	63.000000	36.000000	0.000000
2.080000	62.980000	30.000000	325.000000	0.000000	138.000000	64.000000	41.000000	11.000000
2.090000	63.400000	30.160000	327.000000	0.000000	138.000000	64.000000	42.000000	16.000000
2.100000	63.740000	30.370000	329.000000	0.000000	138.000000	64.000000	34.000000	21.000000
2.110000	64.020000	30.610000	334.000000	0.000000	138.000000	64.000000	28.000000	24.000000
2.120000	64.180000	30.820000	339.000000	0.000000	138.000000	64.000000	16.000000	21.000000
2.130000	64.180000	31.010000	368.000000	0.000000	138.000000	64.000000	0.000000	19.000000
2.140000	64.040000	31.160000	367.000000	0.000000	138.000000	63.000000	-14.000000	15.000000
2.150000	63.810000	31.290000	366.000000	0.000000	138.000000	63.000000	-23.000000	13.000000
2.160000	63.470000	31.420000	361.000000	0.000000	138.000000	63.000000	-34.000000	13.000000
2.170000	63.050000	31.420000	373.000000	0.000000	138.000000	63.000000	-42.000000	0.000000
2.180000	62.660000	31.420000	373.000000	0.000000	138.000000	63.000000	-39.000000	0.000000
2.190000	62.320000	31.300000	373.000000	0.000000	138.000000	63.000000	-34.000000	-12.000000
2.200000	62.070000	31.140000	373.000000	0.000000	141.000000	63.000000	-25.000000	-16.000000
2.210000	61.960000	30.970000	371.000000	0.000000	141.000000	63.000000	-11.000000	-17.000000
