t	x	y	pressure	penup	azimuth	inclination	v_x	v_y
0.000000	15.060000	81.330000	3.000000	1.000000	151.000000	54.000000	0.000000	0.000000
0.010000	14.660000	81.330000	29.000000	1.000000	151.000000	54.000000	0.000000	0.000000
0.020000	14.260000	81.160000	39.000000	0.000000	151.000000	54.000000	-40.000000	-17.000000
0.030000	13.760000	80.900000	46.000000	0.000000	150.000000	54.000000	-50.000000	-26.000000
0.040000	13.140000	80.530000	48.000000	0.000000	150.000000	54.000000	-62.000000	-37.000000
0.050000	12.440000	80.060000	109.000000	0.000000	150.000000	54.000000	-70.000000	-47.000000
0.060000	11.760000	79.570000	129.000000	0.000000	150.000000	54.000000	-68.000000	-49.000000
0.070000	11.430000	79.090000	136.000000	0.000000	150.000000	54.000000	-33.000000	-48.000000
0.080000	11.330000	78.730000	141.000000	0.000000	148.000000	54.000000	-10.000000	-36.000000
0.090000	11.440000	78.430000	142.000000	0.000000	148.000000	54.000000	11.000000	-30.000000
0.100000	11.760000	78.230000	134.000000	0.000000	148.000000	54.000000	32.000000	-20.000000
0.110000	12.220000	78.150000	143.000000	0.000000	148.000000	54.000000	46.000000	-8.000000
0.120000	12.910000	78.150000	144.000000	0.000000	148.000000	54.000000	69.000000	0.000000
0.130000	13.640000	78.340000	143.000000	0.000000	147.000000	53.000000	73.000000	19.000000
0.140000	14.300000	78.530000	139.000000	0.000000	147.000000	53.000000	66.000000	19.000000
0.150000	14.880000	78.720000	146.000000	0.000000	147.000000	53.000000	58.000000	19.000000
0.160000	15.180000	78.860000	124.000000	0.000000	148.000000	53.000000	30.000000	14.000000
0.170000	15.180000	78.860000	127.000000	0.000000	148.000000	53.000000	0.000000	0.000000
0.180000	14.990000	78.730000	142.000000	0.000000	148.000000	53.000000	-19.000000	-13.000000
0.190000	14.490000	78.400000	156.000000	0.000000	148.000000	53.000000	-50.000000	-33.000000
0.200000	13.700000	77.870000	168.000000	0.000000	148.000000	53.000000	-79.000000	-53.000000
0.210000	12.710000	77.210000	180.000000	0.000000	149.000000	53.000000	-99.000000	-66.000000
0.220000	11.510000	76.530000	182.000000	0.000000	149.000000	53.000000	-120.000000	-68.000000
0.230000	10.340000	76.000000	184.000000	0.000000	148.000000	54.000000	-117.000000	-53.000000
0.240000	9.750000	75.560000	170.000000	0.000000	148.000000	54.000000	-59.000000	-44.000000
0.250000	9.540000	75.230000	137.000000	0.000000	147.000000	55.000000	-21.000000	-33.000000
0.260000	9.490000	74.990000	51.000000	0.000000	147.000000	55.000000	-5.000000	-24.000000
0.270000	9.490000	74.990000	0.000000	1.000000	149.000000	55.000000	0.000000	0.000000
0.280000	9.780000	74.600000	0.000000	0.000000	149.000000	55.000000	29.000000	-39.000000
0.290000	10.210000	74.670000	0.000000	0.000000	149.000000	55.000000	43.000000	7.000000
0.300000	10.700000	74.930000	0.000000	0.000000	149.000000	55.000000	49.000000	26.000000
0.310000	11.230000	75.500000	0.000000	0.000000	150.000000	54.000000	53.000000	57.000000
0.320000	11.750000	76.060000	0.000000	0.000000	150.000000	54.000000	52.000000	56.000000
0.330000	12.190000	76.590000	0.000000	0.000000	151.000000	53.000000	44.000000	53.000000
0.340000	12.610000	77.040000	0.000000	0.000000	152.000000	53.000000	42.000000	45.000000
0.350000	13.000000	77.330000	0.000000	0.000000	154.000000	52.000000	39.000000	29.000000
0.360000	13.280000	77.530000	0.000000	0.000000	155.000000	50.000000	28.000000	20.000000
0.370000	13.550000	77.580000	0.000000	0.000000	156.000000	50.000000	27.000000	5.000000
0.380000	13.820000	77.430000	0.000000	0.000000	159.000000	48.000000	27.000000	-15.000000
0.390000	14.020000	77.140000	0.000000	0.000000	161.000000	47.000000	20.000000	-29.000000
0.400000	14.230000	76.850000	0.000000	0.000000	161.000000	47.000000	21.000000	-29.000000
0.410000	14.440000	76.690000	0.000000	0.000000	162.000000	48.000000	21.000000	-16.000000
0.420000	14.700000	76.620000	0.000000	0.000000	162.000000	48.000000	26.000000	-7.000000
0.430000	14.930000	76.690000	0.000000	0.000000	161.000000	48.000000	23.000000	7.000000
0.440000	14.930000	76.790000	0.000000	0.000000	161.000000	49.000000	0.000000	10.000000
0.450000	14.880000	76.900000	0.000000	0.000000	160.000000	50.000000	-5.000000	11.000000
0.460000	14.710000	76.900000	0.000000	0.000000	158.000000	51.000000	-17.000000	0.000000
0.470000	14.560000	76.900000	0.000000	0.000000	157.000000	52.000000	-15.000000	0.000000
0.480000	14.440000	76.900000	0.000000	0.000000	157.000000	52.000000	-12.000000	0.000000
0.490000	14.360000	76.900000	0.000000	0.000000	157.000000	52.000000	-8.000000	0.000000
0.500000	14.290000	76.900000	0.000000	0.000000	157.000000	52.000000	-7.000000	0.000000
0.510000	14.210000	76.770000	0.000000	0.000000	157.000000	52.000000	-8.000000	-13.000000
0.520000	14.110000	76.690000	0.000000	0.000000	157.000000	52.000000	-10.000000	-8.000000
0.530000	14.110000	76.690000	0.000000	0.000000	157.000000	52.000000	0.000000	0.000000
0.540000	14.110000	76.690000	0.000000	0.000000	158.000000	51.000000	0.000000	0.000000
0.550000	14.210000	76.750000	0.000000	0.000000	158.000000	51.000000	10.000000	6.000000
0.560000	14.420000	76.900000	0.000000	0.000000	158.000000	51.000000	21.000000	15.000000
0.570000	14.700000	77.080000	0.000000	0.000000	159.000000	51.000000	28.000000	18.000000
0.580000	15.000000	77.220000	0.000000	0.000000	159.000000	51.000000	30.000000	14.000000
0.590000	15.300000	77.220000	0.000000	0.000000	159.000000	51.000000	30.000000	0.000000
0.600000	15.520000	77.040000	0.000000	0.000000	159.000000	51.000000	22.000000	-18.000000
0.610000	15.690000	76.740000	0.000000	0.000000	160.000000	50.000000	17.000000	-30.000000
0.620000	15.880000	76.400000	0.000000	0.000000	160.000000	50.000000	19.000000	-34.000000
0.630000	15.880000	76.020000	0.000000	0.000000	160.000000	50.000000	0.000000	-38.000000
0.640000	15.750000	75.650000	0.000000	0.000000	159.000000	51.000000	-13.000000	-37.000000
0.650000	15.580000	75.490000	0.000000	0.000000	159.000000	51.000000	-17.000000	-16.000000
0.660000	15.450000	75.490000	0.000000	0.000000	159.000000	51.000000	-13.000000	0.000000
0.670000	15.390000	75.740000	0.000000	0.000000	158.000000	52.000000	-6.000000	25.000000
0.680000	15.450000	76.190000	0.000000	0.000000	158.000000	52.000000	6.000000	45.000000
0.690000	15.580000	76.750000	0.000000	0.000000	158.000000	52.000000	13.000000	56.000000
0.700000	15.680000	77.350000	0.000000	0.000000	157.000000	52.000000	10.000000	60.000000
0.710000	15.790000	77.920000	0.000000	0.000000	157.000000	52.000000	11.000000	57.000000
0.720000	15.790000	78.420000	0.000000	0.000000	158.000000	51.000000	0.000000	50.000000
0.730000	15.660000	78.850000	0.000000	0.000000	158.000000	49.000000	-13.000000	43.000000
0.740000	15.400000	79.210000	0.000000	0.000000	159.000000	48.000000	-26.000000	36.000000
0.750000	15.020000	79.490000	0.000000	0.000000	159.000000	46.000000	-38.000000	28.000000
0.760000	14.570000	79.570000	0.000000	0.000000	160.000000	45.000000	-45.000000	8.000000
0.770000	14.220000	79.570000	0.000000	0.000000	160.000000	44.000000	-35.000000	0.000000
0.780000	14.220000	79.570000	0.000000	0.000000	160.000000	44.000000	0.000000	0.000000
0.790000	14.350000	79.680000	0.000000	0.000000	160.000000	44.000000	13.000000	11.000000
0.800000	14.740000	79.850000	0.000000	0.000000	159.000000	46.000000	39.000000	17.000000
0.810000	15.120000	80.070000	0.000000	0.000000	157.000000	49.000000	38.000000	22.000000
0.820000	15.490000	80.260000	0.000000	0.000000	155.000000	51.000000	37.000000	19.000000
0.830000	15.880000	80.400000	0.000000	0.000000	149.000000	53.000000	39.000000	14.000000
0.840000	16.280000	80.470000	0.000000	0.000000	144.000000	56.000000	40.000000	7.000000
0.850000	16.670000	80.150000	0.000000	0.000000	136.000000	56.000000	39.000000	-32.000000
0.860000	16.750000	79.570000	0.000000	0.000000	131.000000	56.000000	8.000000	-58.000000
0.870000	16.650000	79.290000	0.000000	0.000000	128.000000	54.000000	-10.000000	-28.000000
0.880000	16.440000	78.920000	0.000000	0.000000	127.000000	52.000000	-21.000000	-37.000000
0.890000	16.210000	78.490000	0.000000	0.000000	126.000000	49.000000	-23.000000	-43.000000
0.900000	15.960000	78.250000	0.000000	0.000000	127.000000	48.000000	-25.000000	-24.000000
0.910000	15.780000	78.140000	0.000000	0.000000	129.000000	46.000000	-18.000000	-11.000000
0.920000	15.610000	78.140000	0.000000	0.000000	133.000000	45.000000	-17.000000	0.000000
0.930000	15.440000	78.200000	0.000000	0.000000	135.000000	45.000000	-17.000000	6.000000
0.940000	15.190000	78.270000	0.000000	0.000000	139.000000	45.000000	-25.000000	7.000000
0.950000	15.190000	78.270000	0.000000	0.000000	143.000000	46.000000	0.000000	0.000000
0.960000	14.730000	78.110000	0.000000	0.000000	145.000000	47.000000	-46.000000	-16.000000
0.970000	14.470000	78.110000	0.000000	0.000000	147.000000	48.000000	-26.000000	0.000000
0.980000	14.200000	78.110000	0.000000	0.000000	151.000000	49.000000	-27.000000	0.000000
0.990000	14.010000	78.110000	0.000000	0.000000	151.000000	50.000000	-19.000000	0.000000
1.000000	13.840000	78.230000	0.000000	0.000000	153.000000	51.000000	-17.000000	12.000000
1.010000	13.710000	78.660000	0.000000	0.000000	153.000000	51.000000	-13.000000	43.000000
1.020000	13.710000	79.290000	0.000000	0.000000	153.000000	52.000000	0.000000	63.000000
1.030000	13.810000	80.130000	0.000000	0.000000	151.000000	53.000000	10.000000	84.000000
1.040000	13.910000	80.940000	0.000000	0.000000	149.000000	55.000000	10.000000	81.000000
1.050000	14.040000	81.530000	0.000000	0.000000	147.000000	56.000000	13.000000	59.000000
1.060000	14.240000	81.980000	0.000000	0.000000	143.000000	59.000000	20.000000	45.000000
1.070000	14.460000	82.080000	0.000000	0.000000	141.000000	60.000000	22.000000	10.000000
1.080000	14.700000	81.970000	0.000000	0.000000	138.000000	61.000000	24.000000	-11.000000
1.090000	14.870000	81.720000	0.000000	0.000000	133.000000	62.000000	17.000000	-25.000000
1.100000	15.000000	81.480000	0.000000	0.000000	130.000000	63.000000	13.000000	-24.000000
1.110000	15.260000	81.370000	0.000000	0.000000	129.000000	63.000000	26.000000	-11.000000
1.120000	15.850000	81.370000	0.000000	0.000000	126.000000	61.000000	59.000000	0.000000
1.130000	16.660000	81.460000	0.000000	0.000000	125.000000	60.000000	81.000000	9.000000
1.140000	17.060000	81.550000	0.000000	0.000000	123.000000	58.000000	40.000000	9.000000
1.150000	17.140000	81.460000	0.000000	0.000000	121.000000	56.000000	8.000000	-9.000000
1.160000	17.010000	81.270000	0.000000	0.000000	118.000000	54.000000	-13.000000	-19.000000
1.170000	16.960000	81.090000	0.000000	0.000000	117.000000	52.000000	-5.000000	-18.000000
1.180000	16.960000	80.900000	0.000000	0.000000	115.000000	49.000000	0.000000	-19.000000
1.190000	16.960000	80.680000	0.000000	0.000000	113.000000	48.000000	0.000000	-22.000000
1.200000	16.960000	80.500000	0.000000	0.000000	111.000000	46.000000	0.000000	-18.000000
1.210000	17.030000	80.350000	0.000000	0.000000	110.000000	45.000000	7.000000	-15.000000
1.220000	17.030000	80.230000	0.000000	0.000000	111.000000	46.000000	0.000000	-12.000000
1.230000	17.030000	80.150000	0.000000	0.000000	110.000000	46.000000	0.000000	-8.000000
1.240000	17.030000	80.090000	0.000000	0.000000	110.000000	46.000000	0.000000	-6.000000
1.250000	16.970000	80.090000	0.000000	0.000000	109.000000	47.000000	-6.000000	0.000000
1.260000	16.910000	80.090000	0.000000	0.000000	110.000000	48.000000	-6.000000	0.000000
1.270000	16.910000	79.980000	0.000000	0.000000	109.000000	49.000000	0.000000	-11.000000
1.280000	16.830000	79.840000	0.000000	0.000000	109.000000	49.000000	-8.000000	-14.000000
1.290000	16.880000	79.690000	0.000000	0.000000	110.000000	50.000000	5.000000	-15.000000
1.300000	16.930000	79.560000	0.000000	0.000000	110.000000	50.000000	5.000000	-13.000000
1.310000	17.000000	79.500000	0.000000	0.000000	113.000000	50.000000	7.000000	-6.000000
1.320000	17.000000	79.440000	0.000000	0.000000	116.000000	50.000000	0.000000	-6.000000
1.330000	17.080000	79.440000	0.000000	0.000000	118.000000	49.000000	8.000000	0.000000
1.340000	17.080000	79.490000	0.000000	0.000000	121.000000	49.000000	0.000000	5.000000
1.350000	17.180000	79.580000	0.000000	0.000000	123.000000	49.000000	10.000000	9.000000
1.360000	17.180000	79.580000	0.000000	0.000000	124.000000	49.000000	0.000000	0.000000
1.370000	17.180000	79.580000	0.000000	0.000000	125.000000	50.000000	0.000000	0.000000
1.380000	17.260000	79.580000	0.000000	0.000000	125.000000	50.000000	8.000000	0.000000
1.390000	17.340000	79.650000	0.000000	0.000000	122.000000	50.000000	8.000000	7.000000
1.400000	17.480000	79.650000	0.000000	0.000000	121.000000	51.000000	14.000000	0.000000
1.410000	17.630000	79.650000	0.000000	0.000000	119.000000	51.000000	15.000000	0.000000
1.420000	17.800000	79.650000	0.000000	0.000000	117.000000	52.000000	17.000000	0.000000
1.430000	17.980000	79.650000	0.000000	0.000000	116.000000	52.000000	18.000000	0.000000
1.440000	18.150000	79.650000	0.000000	0.000000	117.000000	52.000000	17.000000	0.000000
1.450000	18.260000	79.570000	0.000000	0.000000	119.000000	51.000000	11.000000	-8.000000
1.460000	18.320000	79.570000	0.000000	0.000000	121.000000	51.000000	6.000000	0.000000
1.470000	18.370000	79.570000	0.000000	0.000000	122.000000	50.000000	5.000000	0.000000
1.480000	18.370000	79.570000	0.000000	0.000000	125.000000	50.000000	0.000000	0.000000
1.490000	18.420000	79.460000	0.000000	0.000000	129.000000	49.000000	5.000000	-11.000000
1.500000	18.510000	79.380000	0.000000	0.000000	132.000000	48.000000	9.000000	-8.000000
1.510000	18.600000	79.290000	0.000000	0.000000	133.000000	47.000000	9.000000	-9.000000
1.520000	18.780000	79.290000	0.000000	0.000000	134.000000	47.000000	18.000000	0.000000
1.530000	19.010000	79.290000	0.000000	0.000000	134.000000	47.000000	23.000000	0.000000
1.540000	19.270000	79.290000	0.000000	0.000000	135.000000	46.000000	26.000000	0.000000
1.550000	19.530000	79.360000	0.000000	0.000000	135.000000	46.000000	26.000000	7.000000
1.560000	19.820000	79.430000	0.000000	0.000000	137.000000	46.000000	29.000000	7.000000
1.570000	20.120000	79.510000	0.000000	0.000000	137.000000	46.000000	30.000000	8.000000
1.580000	20.430000	79.510000	0.000000	0.000000	137.000000	46.000000	31.000000	0.000000
1.590000	20.620000	79.510000	0.000000	0.000000	137.000000	46.000000	19.000000	0.000000
1.600000	20.750000	79.400000	0.000000	0.000000	138.000000	47.000000	13.000000	-11.000000
1.610000	20.870000	79.400000	0.000000	0.000000	138.000000	47.000000	12.000000	0.000000
1.620000	21.070000	79.460000	0.000000	0.000000	137.000000	47.000000	20.000000	6.000000
1.630000	21.330000	79.460000	0.000000	0.000000	137.000000	47.000000	26.000000	0.000000
1.640000	20.700000	79.460000	0.000000	0.000000	137.000000	47.000000	-63.000000	0.000000
1.650000	20.500000	79.460000	0.000000	0.000000	138.000000	48.000000	-20.000000	0.000000
1.660000	20.580000	79.520000	0.000000	0.000000	138.000000	48.000000	8.000000	6.000000
1.670000	20.500000	79.620000	0.000000	0.000000	137.000000	48.000000	-8.000000	10.000000
1.680000	20.440000	79.620000	0.000000	0.000000	136.000000	49.000000	-6.000000	0.000000
1.690000	20.440000	79.620000	0.000000	0.000000	134.000000	49.000000	0.000000	0.000000
1.700000	20.380000	79.620000	0.000000	0.000000	132.000000	50.000000	-6.000000	0.000000
1.710000	20.330000	79.620000	0.000000	0.000000	128.000000	50.000000	-5.000000	0.000000
1.720000	20.330000	79.620000	0.000000	0.000000	126.000000	51.000000	0.000000	0.000000
1.730000	20.160000	79.770000	0.000000	0.000000	123.000000	52.000000	-17.000000	15.000000
1.740000	19.970000	79.870000	0.000000	0.000000	120.000000	52.000000	-19.000000	10.000000
1.750000	19.690000	79.950000	0.000000	0.000000	118.000000	53.000000	-28.000000	8.000000
1.760000	19.300000	79.950000	0.000000	0.000000	119.000000	53.000000	-39.000000	0.000000
1.770000	18.830000	79.950000	0.000000	0.000000	118.000000	54.000000	-47.000000	0.000000
1.780000	18.280000	79.820000	0.000000	0.000000	119.000000	53.000000	-55.000000	-13.000000
1.790000	17.720000	79.650000	0.000000	0.000000	119.000000	53.000000	-56.000000	-17.000000
1.800000	17.160000	79.440000	0.000000	0.000000	120.000000	54.000000	-56.000000	-21.000000
1.810000	16.910000	79.390000	0.000000	0.000000	122.000000	54.000000	-25.000000	-5.000000
1.820000	16.960000	79.440000	0.000000	0.000000	123.000000	53.000000	5.000000	5.000000
1.830000	17.200000	79.540000	0.000000	0.000000	124.000000	53.000000	24.000000	10.000000
1.840000	17.510000	79.720000	0.000000	0.000000	127.000000	53.000000	31.000000	18.000000
1.850000	17.840000	79.960000	0.000000	0.000000	127.000000	53.000000	33.000000	24.000000
1.860000	18.200000	80.150000	0.000000	0.000000	127.000000	53.000000	36.000000	19.000000
1.870000	18.570000	80.340000	0.000000	0.000000	127.000000	53.000000	37.000000	19.000000
1.880000	18.800000	80.570000	0.000000	0.000000	127.000000	53.000000	23.000000	23.000000
1.890000	18.940000	80.670000	0.000000	0.000000	127.000000	53.000000	14.000000	10.000000
1.900000	18.940000	80.670000	0.000000	0.000000	124.000000	53.000000	0.000000	0.000000
1.910000	18.940000	80.600000	0.000000	0.000000	124.000000	53.000000	0.000000	-7.000000
1.920000	18.890000	80.600000	0.000000	0.000000	124.000000	53.000000	-5.000000	0.000000
1.930000	18.820000	80.530000	0.000000	0.000000	124.000000	53.000000	-7.000000	-7.000000
1.940000	18.710000	80.530000	0.000000	0.000000	124.000000	53.000000	-11.000000	0.000000
1.950000	18.580000	80.480000	0.000000	0.000000	125.000000	54.000000	-13.000000	-5.000000
1.960000	18.580000	80.480000	0.000000	0.000000	127.000000	53.000000	0.000000	0.000000
1.970000	18.580000	80.570000	0.000000	0.000000	127.000000	53.000000	0.000000	9.000000
1.980000	18.680000	80.660000	0.000000	0.000000	127.000000	53.000000	10.000000	9.000000
1.990000	18.840000	80.770000	0.000000	0.000000	127.000000	53.000000	16.000000	11.000000
2.000000	19.030000	80.890000	0.000000	0.000000	128.000000	53.000000	19.000000	12.000000
2.010000	19.230000	81.000000	0.000000	0.000000	128.000000	53.000000	20.000000	11.000000
2.020000	19.440000	81.100000	0.000000	0.000000	128.000000	53.000000	21.000000	10.000000
2.030000	19.530000	81.190000	0.000000	0.000000	128.000000	53.000000	9.000000	9.000000
2.040000	19.530000	81.190000	0.000000	0.000000	128.000000	53.000000	0.000000	0.000000
2.050000	19.530000	81.190000	0.000000	0.000000	128.000000	53.000000	0.000000	0.000000
2.060000	19.480000	81.190000	0.000000	0.000000	128.000000	53.000000	-5.000000	0.000000
2.070000	19.410000	81.190000	0.000000	0.000000	128.000000	53.000000	-7.000000	0.000000
2.080000	19.320000	81.190000	0.000000	0.000000	129.000000	53.000000	-9.000000	0.000000
2.090000	19.240000	81.190000	0.000000	0.000000	130.000000	53.000000	-8.000000	0.000000
2.100000	19.170000	81.110000	0.000000	0.000000	130.000000	53.000000	-7.000000	-8.000000
2.110000	19.120000	81.110000	0.000000	0.000000	130.000000	53.000000	-5.000000	0.000000
2.120000	19.120000	81.110000	0.000000	0.000000	130.000000	53.000000	0.000000	0.000000
2.130000	19.170000	81.110000	0.000000	0.000000	131.000000	54.000000	5.000000	0.000000
2.140000	19.240000	81.110000	0.000000	0.000000	133.000000	53.000000	7.000000	0.000000
2.150000	19.330000	81.180000	0.000000	0.000000	133.000000	53.000000	9.000000	7.000000
2.160000	19.410000	81.280000	0.000000	0.000000	133.000000	53.000000	8.000000	10.000000
2.170000	19.500000	81.370000	0.000000	0.000000	133.000000	53.000000	9.000000	9.000000
2.180000	19.560000	81.450000	0.000000	0.000000	133.000000	53.000000	6.000000	8.000000
2.190000	19.610000	81.530000	0.000000	0.000000	133.000000	53.000000	5.000000	8.000000
2.200000	19.610000	81.610000	0.000000	0.000000	133.000000	53.000000	0.000000	8.000000
2.210000	19.610000	81.730000	0.000000	0.000000	133.000000	53.000000	0.000000	12.000000
2.220000	19.610000	81.730000	3.000000	0.000000	134.000000	52.000000	0.000000	0.000000
2.230000	19.710000	82.020000	8.000000	0.000000	134.000000	52.000000	10.000000	29.000000
2.240000	19.780000	82.180000	8.000000	0.000000	134.000000	52.000000	7.000000	16.000000
2.250000	19.780000	82.340000	10.000000	0.000000	134.000000	52.000000	0.000000	16.000000
