t	x	y	pressure	penup	azimuth	inclination	v_x	v_y
0.000000	49.300000	30.470000	216.000000	1.000000	161.000000	52.000000	0.000000	0.000000
0.010000	49.720000	30.750000	337.000000	0.000000	162.000000	53.000000	42.000000	28.000000
0.020000	49.650000	30.900000	448.000000	0.000000	163.000000	54.000000	-7.000000	15.000000
0.030000	49.430000	31.110000	518.000000	0.000000	163.000000	54.000000	-22.000000	21.000000
0.040000	49.080000	31.370000	546.000000	0.000000	163.000000	54.000000	-35.000000	26.000000
0.050000	48.540000	31.590000	556.000000	0.000000	163.000000	54.000000	-54.000000	22.000000
0.060000	47.870000	31.590000	565.000000	0.000000	163.000000	54.000000	-67.000000	0.000000
0.070000	46.950000	31.430000	563.000000	0.000000	163.000000	54.000000	-92.000000	-16.000000
0.080000	46.170000	31.000000	586.000000	0.000000	162.000000	54.000000	-78.000000	-43.000000
0.090000	45.480000	30.520000	603.000000	0.000000	162.000000	54.000000	-69.000000	-48.000000
0.100000	45.000000	30.090000	610.000000	0.000000	160.000000	53.000000	-48.000000	-43.000000
0.110000	44.830000	29.710000	639.000000	0.000000	160.000000	53.000000	-17.000000	-38.000000
0.120000	44.830000	29.460000	653.000000	0.000000	160.000000	53.000000	0.000000	-25.000000
0.130000	45.060000	29.220000	714.000000	0.000000	160.000000	53.000000	23.000000	-24.000000
0.140000	45.560000	29.000000	731.000000	0.000000	160.000000	53.000000	50.000000	-22.000000
0.150000	46.270000	28.740000	762.000000	0.000000	160.000000	53.000000	71.000000	-26.000000
0.160000	46.980000	28.430000	771.000000	0.000000	160.000000	53.000000	71.000000	-31.000000
0.170000	47.570000	27.940000	776.000000	0.000000	160.000000	53.000000	59.000000	-49.000000
0.180000	48.070000	27.350000	784.000000	0.000000	160.000000	54.000000	50.000000	-59.000000
0.190000	48.250000	26.870000	788.000000	0.000000	160.000000	54.000000	18.000000	-48.000000
0.200000	48.130000	26.420000	783.000000	0.000000	160.000000	54.000000	-12.000000	-45.000000
0.210000	47.800000	25.980000	790.000000	0.000000	159.000000	55.000000	-33.000000	-44.000000
0.220000	47.390000	25.690000	802.000000	0.000000	158.000000	56.000000	-41.000000	-29.000000
0.230000	46.890000	25.520000	817.000000	0.000000	157.000000	57.000000	-50.000000	-17.000000
0.240000	46.320000	25.440000	827.000000	0.000000	157.000000	58.000000	-57.000000	-8.000000
0.250000	45.620000	25.560000	837.000000	0.000000	157.000000	58.000000	-70.000000	12.000000
0.260000	44.950000	25.800000	843.000000	0.000000	154.000000	58.000000	-67.000000	24.000000
0.270000	44.310000	26.130000	867.000000	0.000000	154.000000	58.000000	-64.000000	33.000000
0.280000	43.960000	26.220000	860.000000	0.000000	154.000000	58.000000	-35.000000	9.000000
0.290000	43.810000	26.270000	863.000000	0.000000	154.000000	58.000000	-15.000000	5.000000
0.300000	43.810000	26.270000	736.000000	0.000000	153.000000	58.000000	0.000000	0.000000
0.310000	43.810000	26.270000	384.000000	0.000000	153.000000	58.000000	0.000000	0.000000
0.320000	43.810000	26.270000	0.000000	1.000000	153.000000	58.000000	0.000000	0.000000
0.330000	44.890000	26.450000	0.000000	0.000000	154.000000	57.000000	108.000000	18.000000
0.340000	45.650000	26.840000	0.000000	0.000000	154.000000	57.000000	76.000000	39.000000
0.350000	46.510000	27.230000	0.000000	0.000000	154.000000	57.000000	86.000000	39.000000
0.360000	47.600000	27.560000	0.000000	0.000000	154.000000	57.000000	109.000000	33.000000
0.370000	48.800000	27.450000	0.000000	0.000000	156.000000	57.000000	120.000000	-11.000000
0.380000	49.740000	27.080000	0.000000	0.000000	156.000000	57.000000	94.000000	-37.000000
0.390000	49.740000	27.080000	156.000000	1.000000	157.000000	57.000000	0.000000	0.000000
0.400000	50.240000	25.970000	440.000000	0.000000	159.000000	57.000000	50.000000	-111.000000
0.410000	49.810000	25.610000	586.000000	0.000000	161.000000	57.000000	-43.000000	-36.000000
0.420000	49.670000	25.410000	678.000000	0.000000	161.000000	59.000000	-14.000000	-20.000000
0.430000	49.670000	25.360000	693.000000	0.000000	163.000000	59.000000	0.000000	-5.000000
0.440000	49.670000	25.410000	664.000000	0.000000	165.000000	59.000000	0.000000	5.000000
0.450000	49.720000	25.410000	519.000000	0.000000	166.000000	60.000000	5.000000	0.000000
0.460000	49.770000	25.530000	34.000000	0.000000	167.000000	61.000000	5.000000	12.000000
0.470000	49.770000	25.530000	0.000000	1.000000	167.000000	61.000000	0.000000	0.000000
0.480000	50.550000	26.200000	0.000000	0.000000	167.000000	61.000000	78.000000	67.000000
0.490000	50.880000	27.010000	0.000000	0.000000	168.000000	60.000000	33.000000	81.000000
0.500000	51.400000	28.030000	0.000000	0.000000	166.000000	60.000000	52.000000	102.000000
0.510000	52.040000	29.430000	0.000000	0.000000	166.000000	59.000000	64.000000	140.000000
0.520000	52.810000	30.580000	0.000000	0.000000	165.000000	58.000000	77.000000	115.000000
0.530000	53.570000	31.570000	0.000000	0.000000	166.000000	57.000000	76.000000	99.000000
0.540000	54.320000	32.470000	0.000000	0.000000	166.000000	56.000000	75.000000	90.000000
0.550000	54.320000	32.470000	330.000000	1.000000	165.000000	55.000000	0.000000	0.000000
0.560000	54.800000	32.800000	493.000000	0.000000	166.000000	54.000000	48.000000	33.000000
0.570000	54.690000	33.230000	551.000000	0.000000	168.000000	53.000000	-11.000000	43.000000
0.580000	54.640000	33.230000	606.000000	0.000000	168.000000	52.000000	-5.000000	0.000000
0.590000	54.500000	32.910000	696.000000	0.000000	168.000000	52.000000	-14.000000	-32.000000
0.600000	54.270000	32.480000	746.000000	0.000000	169.000000	53.000000	-23.000000	-43.000000
0.610000	53.880000	31.640000	788.000000	0.000000	169.000000	53.000000	-39.000000	-84.000000
0.620000	53.480000	30.530000	826.000000	0.000000	169.000000	53.000000	-40.000000	-111.000000
0.630000	53.070000	29.540000	845.000000	0.000000	171.000000	53.000000	-41.000000	-99.000000
0.640000	52.680000	28.410000	873.000000	0.000000	170.000000	54.000000	-39.000000	-113.000000
0.650000	52.320000	27.200000	893.000000	0.000000	170.000000	54.000000	-36.000000	-121.000000
0.660000	52.010000	26.380000	897.000000	0.000000	170.000000	55.000000	-31.000000	-82.000000
0.670000	51.880000	25.910000	899.000000	0.000000	168.000000	55.000000	-13.000000	-47.000000
0.680000	51.880000	25.680000	908.000000	0.000000	168.000000	56.000000	0.000000	-23.000000
0.690000	51.880000	25.620000	939.000000	0.000000	166.000000	57.000000	0.000000	-6.000000
0.700000	51.880000	25.770000	936.000000	0.000000	165.000000	58.000000	0.000000	15.000000
0.710000	52.080000	26.060000	911.000000	0.000000	165.000000	59.000000	20.000000	29.000000
0.720000	52.400000	27.050000	873.000000	0.000000	163.000000	59.000000	32.000000	99.000000
0.730000	52.870000	28.450000	828.000000	0.000000	163.000000	59.000000	47.000000	140.000000
0.740000	53.370000	30.130000	823.000000	0.000000	163.000000	59.000000	50.000000	168.000000
0.750000	53.940000	31.730000	821.000000	0.000000	165.000000	58.000000	57.000000	160.000000
0.760000	54.310000	33.030000	832.000000	0.000000	166.000000	57.000000	37.000000	130.000000
0.770000	54.560000	34.130000	848.000000	0.000000	166.000000	56.000000	25.000000	110.000000
0.780000	54.560000	34.500000	869.000000	0.000000	168.000000	55.000000	0.000000	37.000000
0.790000	54.560000	34.640000	855.000000	0.000000	169.000000	54.000000	0.000000	14.000000
0.800000	54.620000	34.640000	857.000000	0.000000	169.000000	54.000000	6.000000	0.000000
0.810000	54.570000	34.540000	860.000000	0.000000	169.000000	54.000000	-5.000000	-10.000000
0.820000	54.480000	33.920000	863.000000	0.000000	169.000000	53.000000	-9.000000	-62.000000
0.830000	54.380000	32.950000	869.000000	0.000000	169.000000	53.000000	-10.000000	-97.000000
0.840000	54.320000	31.970000	872.000000	0.000000	169.000000	53.000000	-6.000000	-98.000000
0.850000	54.500000	31.080000	873.000000	0.000000	169.000000	53.000000	18.000000	-89.000000
0.860000	54.820000	30.240000	873.000000	0.000000	169.000000	53.000000	32.000000	-84.000000
0.870000	55.220000	29.450000	875.000000	0.000000	169.000000	53.000000	40.000000	-79.000000
0.880000	55.690000	28.720000	872.000000	0.000000	169.000000	53.000000	47.000000	-73.000000
0.890000	56.200000	28.040000	872.000000	0.000000	169.000000	53.000000	51.000000	-68.000000
0.900000	56.550000	27.530000	869.000000	0.000000	170.000000	55.000000	35.000000	-51.000000
0.910000	56.660000	27.200000	864.000000	0.000000	170.000000	55.000000	11.000000	-33.000000
0.920000	56.600000	26.990000	866.000000	0.000000	170.000000	56.000000	-6.000000	-21.000000
0.930000	56.450000	26.850000	864.000000	0.000000	170.000000	56.000000	-15.000000	-14.000000
0.940000	56.040000	26.790000	864.000000	0.000000	169.000000	57.000000	-41.000000	-6.000000
0.950000	55.460000	26.790000	870.000000	0.000000	169.000000	58.000000	-58.000000	0.000000
0.960000	54.950000	26.900000	870.000000	0.000000	169.000000	58.000000	-51.000000	11.000000
0.970000	54.640000	27.030000	870.000000	0.000000	168.000000	58.000000	-31.000000	13.000000
0.980000	54.450000	27.180000	878.000000	0.000000	167.000000	58.000000	-19.000000	15.000000
0.990000	54.400000	27.180000	879.000000	0.000000	167.000000	58.000000	-5.000000	0.000000
1.000000	54.400000	27.180000	881.000000	0.000000	167.000000	58.000000	0.000000	0.000000
1.010000	54.400000	27.180000	881.000000	0.000000	165.000000	58.000000	0.000000	0.000000
1.020000	54.490000	27.180000	888.000000	0.000000	165.000000	58.000000	9.000000	0.000000
1.030000	54.490000	27.180000	890.000000	0.000000	165.000000	58.000000	0.000000	0.000000
1.040000	54.780000	27.180000	887.000000	0.000000	164.000000	58.000000	29.000000	0.000000
1.050000	55.180000	27.350000	878.000000	0.000000	164.000000	58.000000	40.000000	17.000000
1.060000	55.500000	27.590000	853.000000	0.000000	166.000000	57.000000	32.000000	24.000000
1.070000	55.640000	27.730000	852.000000	0.000000	166.000000	57.000000	14.000000	14.000000
1.080000	55.640000	27.730000	837.000000	0.000000	166.000000	57.000000	0.000000	0.000000
1.090000	55.640000	27.730000	817.000000	0.000000	166.000000	57.000000	0.000000	0.000000
1.100000	55.640000	27.670000	826.000000	0.000000	166.000000	57.000000	0.000000	-6.000000
1.110000	55.530000	27.620000	824.000000	0.000000	166.000000	57.000000	-11.000000	-5.000000
1.120000	55.480000	27.560000	826.000000	0.000000	166.000000	57.000000	-5.000000	-6.000000
1.130000	55.420000	27.510000	832.000000	0.000000	166.000000	57.000000	-6.000000	-5.000000
1.140000	55.360000	27.510000	824.000000	0.000000	166.000000	57.000000	-6.000000	0.000000
1.150000	55.360000	27.510000	831.000000	0.000000	166.000000	57.000000	0.000000	0.000000
1.160000	55.360000	27.510000	824.000000	0.000000	166.000000	57.000000	0.000000	0.000000
1.170000	55.360000	27.510000	739.000000	0.000000	166.000000	57.000000	0.000000	0.000000
1.180000	55.360000	27.510000	256.000000	0.000000	166.000000	57.000000	0.000000	0.000000
1.190000	55.360000	27.510000	0.000000	1.000000	166.000000	57.000000	0.000000	0.000000
1.200000	55.230000	27.780000	0.000000	0.000000	166.000000	57.000000	-13.000000	27.000000
1.210000	55.230000	28.240000	0.000000	0.000000	166.000000	57.000000	0.000000	46.000000
1.220000	55.420000	28.890000	0.000000	0.000000	167.000000	57.000000	19.000000	65.000000
1.230000	55.960000	29.390000	0.000000	0.000000	167.000000	57.000000	54.000000	50.000000
1.240000	56.790000	29.780000	0.000000	0.000000	167.000000	57.000000	83.000000	39.000000
1.250000	57.820000	30.030000	0.000000	0.000000	169.000000	57.000000	103.000000	25.000000
1.260000	58.730000	30.350000	0.000000	0.000000	168.000000	56.000000	91.000000	32.000000
1.270000	59.600000	30.730000	0.000000	0.000000	168.000000	55.000000	87.000000	38.000000
1.280000	60.430000	30.880000	0.000000	0.000000	167.000000	54.000000	83.000000	15.000000
1.290000	61.150000	31.020000	0.000000	0.000000	166.000000	53.000000	72.000000	14.000000
1.300000	61.510000	31.110000	0.000000	0.000000	166.000000	52.000000	36.000000	9.000000
1.310000	61.630000	31.110000	0.000000	0.000000	164.000000	52.000000	12.000000	0.000000
1.320000	61.400000	31.050000	0.000000	0.000000	164.000000	51.000000	-23.000000	-6.000000
1.330000	60.860000	30.930000	0.000000	0.000000	162.000000	51.000000	-54.000000	-12.000000
1.340000	60.110000	30.840000	0.000000	0.000000	162.000000	51.000000	-75.000000	-9.000000
1.350000	59.560000	30.920000	0.000000	0.000000	162.000000	51.000000	-55.000000	8.000000
1.360000	58.910000	31.090000	0.000000	0.000000	162.000000	51.000000	-65.000000	17.000000
1.370000	58.180000	31.180000	0.000000	0.000000	162.000000	52.000000	-73.000000	9.000000
1.380000	57.410000	31.080000	0.000000	0.000000	163.000000	52.000000	-77.000000	-10.000000
1.390000	56.680000	30.850000	0.000000	0.000000	163.000000	52.000000	-73.000000	-23.000000
1.400000	56.020000	30.560000	0.000000	0.000000	162.000000	53.000000	-66.000000	-29.000000
1.410000	55.690000	30.300000	0.000000	0.000000	164.000000	53.000000	-33.000000	-26.000000
1.420000	55.580000	30.350000	0.000000	0.000000	163.000000	54.000000	-11.000000	5.000000
1.430000	56.030000	30.590000	0.000000	0.000000	164.000000	54.000000	45.000000	24.000000
1.440000	56.480000	30.790000	0.000000	0.000000	164.000000	55.000000	45.000000	20.000000
1.450000	56.930000	30.990000	0.000000	0.000000	165.000000	55.000000	45.000000	20.000000
1.460000	57.370000	31.080000	0.000000	0.000000	165.000000	55.000000	44.000000	9.000000
1.470000	57.680000	31.080000	0.000000	0.000000	165.000000	55.000000	31.000000	0.000000
1.480000	57.910000	31.170000	0.000000	0.000000	165.000000	55.000000	23.000000	9.000000
1.490000	57.910000	31.230000	0.000000	0.000000	165.000000	55.000000	0.000000	6.000000
1.500000	57.910000	31.290000	0.000000	0.000000	166.000000	54.000000	0.000000	6.000000
1.510000	57.910000	31.360000	0.000000	0.000000	164.000000	54.000000	0.000000	7.000000
1.520000	58.030000	31.440000	0.000000	0.000000	164.000000	54.000000	12.000000	8.000000
1.530000	58.170000	31.510000	0.000000	0.000000	163.000000	54.000000	14.000000	7.000000
1.540000	58.370000	31.570000	0.000000	0.000000	164.000000	53.000000	20.000000	6.000000
1.550000	58.580000	31.570000	0.000000	0.000000	162.000000	53.000000	21.000000	0.000000
1.560000	58.680000	31.500000	0.000000	0.000000	162.000000	53.000000	10.000000	-7.000000
1.570000	58.680000	31.410000	0.000000	0.000000	161.000000	52.000000	0.000000	-9.000000
1.580000	58.680000	31.320000	0.000000	0.000000	162.000000	52.000000	0.000000	-9.000000
1.590000	58.680000	31.320000	0.000000	0.000000	163.000000	52.000000	0.000000	0.000000
1.600000	58.620000	31.320000	0.000000	0.000000	163.000000	52.000000	-6.000000	0.000000
1.610000	58.530000	31.320000	0.000000	0.000000	163.000000	52.000000	-9.000000	0.000000
1.620000	58.400000	31.320000	0.000000	0.000000	164.000000	52.000000	-13.000000	0.000000
1.630000	58.230000	31.320000	0.000000	0.000000	164.000000	52.000000	-17.000000	0.000000
1.640000	57.990000	31.320000	0.000000	0.000000	164.000000	52.000000	-24.000000	0.000000
1.650000	57.750000	31.380000	0.000000	0.000000	164.000000	52.000000	-24.000000	6.000000
1.660000	57.510000	31.380000	0.000000	0.000000	164.000000	52.000000	-24.000000	0.000000
1.670000	57.400000	31.440000	0.000000	0.000000	164.000000	52.000000	-11.000000	6.000000
1.680000	57.320000	31.510000	0.000000	0.000000	164.000000	52.000000	-8.000000	7.000000
1.690000	57.320000	31.600000	0.000000	0.000000	164.000000	52.000000	0.000000	9.000000
1.700000	57.320000	31.730000	0.000000	0.000000	164.000000	52.000000	0.000000	13.000000
1.710000	57.320000	31.870000	0.000000	0.000000	166.000000	52.000000	0.000000	14.000000
1.720000	57.320000	32.020000	0.000000	0.000000	166.000000	52.000000	0.000000	15.000000
1.730000	57.320000	32.110000	0.000000	0.000000	166.000000	52.000000	0.000000	9.000000
1.740000	57.320000	32.110000	0.000000	0.000000	166.000000	52.000000	0.000000	0.000000
1.750000	57.320000	32.110000	0.000000	0.000000	166.000000	51.000000	0.000000	0.000000
1.760000	57.270000	32.110000	0.000000	0.000000	166.000000	51.000000	-5.000000	0.000000
1.770000	57.270000	32.060000	0.000000	0.000000	166.000000	51.000000	0.000000	-5.000000
1.780000	57.180000	32.060000	0.000000	0.000000	166.000000	51.000000	-9.000000	0.000000
1.790000	57.180000	32.060000	0.000000	0.000000	165.000000	51.000000	0.000000	0.000000
1.800000	57.130000	32.060000	0.000000	0.000000	165.000000	51.000000	-5.000000	0.000000
1.810000	57.130000	32.110000	0.000000	0.000000	165.000000	51.000000	0.000000	5.000000
1.820000	57.130000	32.110000	0.000000	0.000000	165.000000	51.000000	0.000000	0.000000
1.830000	57.050000	32.050000	0.000000	0.000000	165.000000	51.000000	-8.000000	-6.000000
1.840000	56.950000	31.930000	0.000000	0.000000	165.000000	51.000000	-10.000000	-12.000000
1.850000	56.820000	31.780000	0.000000	0.000000	165.000000	51.000000	-13.000000	-15.000000
1.860000	56.710000	31.610000	0.000000	0.000000	164.000000	52.000000	-11.000000	-17.000000
1.870000	56.620000	31.470000	0.000000	0.000000	163.000000	52.000000	-9.000000	-14.000000
1.880000	56.550000	31.340000	0.000000	0.000000	163.000000	52.000000	-7.000000	-13.000000
1.890000	56.430000	31.210000	0.000000	0.000000	163.000000	52.000000	-12.000000	-13.000000
1.900000	56.360000	31.070000	0.000000	0.000000	162.000000	52.000000	-7.000000	-14.000000
1.910000	56.360000	31.070000	96.000000	1.000000	161.000000	52.000000	0.000000	0.000000
1.920000	56.360000	31.070000	206.000000	0.000000	161.000000	52.000000	0.000000	0.000000
1.930000	56.360000	31.070000	334.000000	0.000000	160.000000	52.000000	0.000000	0.000000
1.940000	56.360000	31.070000	413.000000	0.000000	160.000000	52.000000	0.000000	0.000000
1.950000	56.360000	31.070000	438.000000	0.000000	160.000000	52.000000	0.000000	0.000000
1.960000	56.360000	31.070000	470.000000	0.000000	161.000000	52.000000	0.000000	0.000000
1.970000	56.360000	31.070000	520.000000	0.000000	161.000000	52.000000	0.000000	0.000000
1.980000	56.360000	31.070000	548.000000	0.000000	161.000000	52.000000	0.000000	0.000000
1.990000	56.650000	31.100000	570.000000	0.000000	162.000000	53.000000	29.000000	3.000000
2.000000	56.880000	31.280000	580.000000	0.000000	162.000000	53.000000	23.000000	18.000000
2.010000	57.240000	31.530000	589.000000	0.000000	164.000000	53.000000	36.000000	25.000000
2.020000	57.510000	31.780000	595.000000	0.000000	164.000000	53.000000	27.000000	25.000000
2.030000	57.710000	32.020000	617.000000	0.000000	165.000000	53.000000	20.000000	24.000000
2.040000	57.760000	32.090000	625.000000	0.000000	165.000000	53.000000	5.000000	7.000000
2.050000	57.760000	32.090000	636.000000	0.000000	165.000000	53.000000	0.000000	0.000000
2.060000	57.760000	32.040000	639.000000	0.000000	165.000000	53.000000	0.000000	-5.000000
2.070000	57.760000	32.040000	636.000000	0.000000	165.000000	53.000000	0.000000	0.000000
2.080000	57.760000	32.040000	639.000000	0.000000	166.000000	52.000000	0.000000	0.000000
2.090000	57.760000	32.040000	642.000000	0.000000	166.000000	52.000000	0.000000	0.000000
2.100000	57.760000	31.990000	639.000000	0.000000	166.000000	52.000000	0.000000	-5.000000
2.110000	57.660000	31.920000	645.000000	0.000000	167.000000	52.000000	-10.000000	-7.000000
2.120000	57.540000	31.600000	640.000000	0.000000	167.000000	52.000000	-12.000000	-32.000000
2.130000	57.240000	31.140000	650.000000	0.000000	167.000000	52.000000	-30.000000	-46.000000
2.140000	57.000000	30.420000	667.000000	0.000000	167.000000	52.000000	-24.000000	-72.000000
2.150000	56.840000	29.760000	676.000000	0.000000	165.000000	53.000000	-16.000000	-66.000000
2.160000	56.740000	29.140000	697.000000	0.000000	165.000000	53.000000	-10.000000	-62.000000
2.170000	56.850000	28.680000	697.000000	0.000000	165.000000	53.000000	11.000000	-46.000000
2.180000	57.100000	28.380000	710.000000	0.000000	164.000000	54.000000	25.000000	-30.000000
2.190000	57.350000	28.190000	728.000000	0.000000	163.000000	54.000000	25.000000	-19.000000
2.200000	57.650000	28.190000	742.000000	0.000000	163.000000	54.000000	30.000000	0.000000
2.210000	58.000000	28.350000	751.000000	0.000000	161.000000	55.000000	35.000000	16.000000
2.220000	58.450000	28.700000	755.000000	0.000000	160.000000	54.000000	45.000000	35.000000
