t	x	y	pressure	penup	azimuth	inclination	v_x	v_y
0.000000	86.500000	29.400000	90.000000	1.000000	146.000000	55.000000	0.000000	0.000000
0.010000	86.500000	29.400000	148.000000	0.000000	146.000000	55.000000	0.000000	0.000000
0.020000	86.340000	29.660000	249.000000	0.000000	147.000000	55.000000	-16.000000	26.000000
0.030000	86.150000	29.720000	304.000000	0.000000	147.000000	55.000000	-19.000000	6.000000
0.040000	85.870000	29.720000	348.000000	0.000000	147.000000	55.000000	-28.000000	0.000000
0.050000	85.520000	29.720000	430.000000	0.000000	148.000000	54.000000	-35.000000	0.000000
0.060000	85.060000	29.540000	466.000000	0.000000	148.000000	54.000000	-46.000000	-18.000000
0.070000	84.500000	29.330000	475.000000	0.000000	148.000000	54.000000	-56.000000	-21.000000
0.080000	83.870000	29.060000	491.000000	0.000000	148.000000	54.000000	-63.000000	-27.000000
0.090000	83.310000	28.770000	502.000000	0.000000	148.000000	54.000000	-56.000000	-29.000000
0.100000	82.790000	28.440000	510.000000	0.000000	150.000000	54.000000	-52.000000	-33.000000
0.110000	82.440000	28.110000	514.000000	0.000000	150.000000	54.000000	-35.000000	-33.000000
0.120000	82.200000	27.830000	517.000000	0.000000	149.000000	55.000000	-24.000000	-28.000000
0.130000	82.100000	27.580000	514.000000	0.000000	149.000000	55.000000	-10.000000	-25.000000
0.140000	82.100000	27.400000	519.000000	0.000000	149.000000	55.000000	0.000000	-18.000000
0.150000	82.270000	27.280000	516.000000	0.000000	148.000000	56.000000	17.000000	-12.000000
0.160000	82.550000	27.190000	527.000000	0.000000	148.000000	56.000000	28.000000	-9.000000
0.170000	82.870000	27.070000	540.000000	0.000000	147.000000	56.000000	32.000000	-12.000000
0.180000	83.420000	27.070000	537.000000	0.000000	147.000000	56.000000	55.000000	0.000000
0.190000	84.110000	27.130000	542.000000	0.000000	147.000000	56.000000	69.000000	6.000000
0.200000	84.880000	27.130000	542.000000	0.000000	146.000000	57.000000	77.000000	0.000000
0.210000	85.580000	27.130000	545.000000	0.000000	146.000000	57.000000	70.000000	0.000000
0.220000	86.220000	27.070000	545.000000	0.000000	144.000000	57.000000	64.000000	-6.000000
0.230000	86.630000	26.890000	545.000000	0.000000	144.000000	57.000000	41.000000	-18.000000
0.240000	86.810000	26.660000	546.000000	0.000000	144.000000	57.000000	18.000000	-23.000000
0.250000	86.810000	26.430000	548.000000	0.000000	143.000000	56.000000	0.000000	-23.000000
0.260000	86.720000	26.200000	556.000000	0.000000	143.000000	57.000000	-9.000000	-23.000000
0.270000	86.380000	25.930000	562.000000	0.000000	143.000000	57.000000	-34.000000	-27.000000
0.280000	85.880000	25.620000	567.000000	0.000000	143.000000	57.000000	-50.000000	-31.000000
0.290000	85.280000	25.420000	560.000000	0.000000	142.000000	58.000000	-60.000000	-20.000000
0.300000	84.560000	25.300000	563.000000	0.000000	142.000000	58.000000	-72.000000	-12.000000
0.310000	83.770000	25.300000	563.000000	0.000000	140.000000	58.000000	-79.000000	0.000000
0.320000	83.040000	25.420000	566.000000	0.000000	140.000000	58.000000	-73.000000	12.000000
0.330000	82.560000	25.630000	567.000000	0.000000	140.000000	58.000000	-48.000000	21.000000
0.340000	82.240000	25.920000	543.000000	0.000000	142.000000	58.000000	-32.000000	29.000000
0.350000	82.100000	26.230000	420.000000	0.000000	142.000000	58.000000	-14.000000	31.000000
0.360000	82.200000	26.550000	131.000000	0.000000	142.000000	58.000000	10.000000	32.000000
0.370000	82.200000	26.550000	0.000000	1.000000	142.000000	58.000000	0.000000	0.000000
0.380000	82.960000	27.030000	0.000000	0.000000	142.000000	58.000000	76.000000	48.000000
0.390000	83.440000	27.170000	0.000000	0.000000	142.000000	58.000000	48.000000	14.000000
0.400000	83.910000	27.230000	0.000000	0.000000	143.000000	57.000000	47.000000	6.000000
0.410000	84.450000	27.230000	0.000000	0.000000	143.000000	57.000000	54.000000	0.000000
0.420000	85.110000	27.230000	0.000000	0.000000	144.000000	57.000000	66.000000	0.000000
0.430000	85.840000	27.230000	0.000000	0.000000	145.000000	56.000000	73.000000	0.000000
0.440000	86.560000	27.120000	0.000000	0.000000	146.000000	55.000000	72.000000	-11.000000
0.450000	87.250000	27.040000	0.000000	0.000000	149.000000	55.000000	69.000000	-8.000000
0.460000	87.910000	26.920000	0.000000	0.000000	150.000000	54.000000	66.000000	-12.000000
0.470000	88.470000	26.810000	0.000000	0.000000	152.000000	54.000000	56.000000	-11.000000
0.480000	88.860000	26.720000	0.000000	0.000000	152.000000	54.000000	39.000000	-9.000000
0.490000	89.130000	26.620000	0.000000	0.000000	153.000000	54.000000	27.000000	-10.000000
0.500000	89.130000	26.530000	0.000000	0.000000	155.000000	54.000000	0.000000	-9.000000
0.510000	88.990000	26.440000	0.000000	0.000000	154.000000	55.000000	-14.000000	-9.000000
0.520000	88.990000	26.440000	78.000000	1.000000	153.000000	56.000000	0.000000	0.000000
0.530000	88.400000	26.160000	273.000000	0.000000	152.000000	57.000000	-59.000000	-28.000000
0.540000	88.050000	26.210000	310.000000	0.000000	151.000000	58.000000	-35.000000	5.000000
0.550000	87.700000	26.420000	339.000000	0.000000	149.000000	58.000000	-35.000000	21.000000
0.560000	87.490000	26.530000	351.000000	0.000000	147.000000	59.000000	-21.000000	11.000000
0.570000	87.420000	26.620000	344.000000	0.000000	147.000000	59.000000	-7.000000	9.000000
0.580000	87.420000	26.680000	280.000000	0.000000	146.000000	58.000000	0.000000	6.000000
0.590000	87.470000	26.680000	81.000000	0.000000	146.000000	58.000000	5.000000	0.000000
0.600000	87.470000	26.680000	0.000000	1.000000	146.000000	58.000000	0.000000	0.000000
0.610000	87.980000	26.680000	0.000000	0.000000	146.000000	58.000000	51.000000	0.000000
0.620000	88.250000	26.570000	0.000000	0.000000	146.000000	58.000000	27.000000	-11.000000
0.630000	88.460000	26.400000	0.000000	0.000000	146.000000	58.000000	21.000000	-17.000000
0.640000	88.630000	26.150000	0.000000	0.000000	147.000000	59.000000	17.000000	-25.000000
0.650000	88.890000	25.850000	0.000000	0.000000	147.000000	59.000000	26.000000	-30.000000
0.660000	89.160000	25.540000	0.000000	0.000000	150.000000	58.000000	27.000000	-31.000000
0.670000	89.460000	25.250000	0.000000	0.000000	150.000000	58.000000	30.000000	-29.000000
0.680000	89.760000	24.970000	0.000000	0.000000	151.000000	58.000000	30.000000	-28.000000
0.690000	90.020000	24.740000	0.000000	0.000000	151.000000	58.000000	26.000000	-23.000000
0.700000	90.260000	24.550000	0.000000	0.000000	151.000000	58.000000	24.000000	-19.000000
0.710000	90.340000	24.480000	0.000000	0.000000	152.000000	57.000000	8.000000	-7.000000
0.720000	90.340000	24.360000	0.000000	0.000000	151.000000	58.000000	0.000000	-12.000000
0.730000	90.340000	24.360000	99.000000	1.000000	153.000000	58.000000	0.000000	0.000000
0.740000	90.340000	24.360000	122.000000	0.000000	153.000000	58.000000	0.000000	0.000000
0.750000	90.260000	24.880000	179.000000	0.000000	153.000000	59.000000	-8.000000	52.000000
0.760000	90.210000	25.140000	225.000000	0.000000	153.000000	59.000000	-5.000000	26.000000
0.770000	90.210000	25.650000	270.000000	0.000000	154.000000	60.000000	0.000000	51.000000
0.780000	90.300000	26.230000	270.000000	0.000000	154.000000	60.000000	9.000000	58.000000
0.790000	90.370000	26.860000	277.000000	0.000000	154.000000	60.000000	7.000000	63.000000
0.800000	90.420000	27.700000	289.000000	0.000000	154.000000	60.000000	5.000000	84.000000
0.810000	90.420000	28.670000	289.000000	0.000000	154.000000	60.000000	0.000000	97.000000
0.820000	90.310000	29.730000	319.000000	0.000000	153.000000	59.000000	-11.000000	106.000000
0.830000	90.220000	30.370000	339.000000	0.000000	153.000000	59.000000	-9.000000	64.000000
0.840000	90.120000	30.760000	373.000000	0.000000	153.000000	58.000000	-10.000000	39.000000
0.850000	90.020000	30.980000	400.000000	0.000000	154.000000	57.000000	-10.000000	22.000000
0.860000	89.970000	30.980000	388.000000	0.000000	153.000000	56.000000	-5.000000	0.000000
0.870000	89.970000	30.980000	388.000000	0.000000	154.000000	55.000000	0.000000	0.000000
0.880000	89.970000	30.870000	388.000000	0.000000	154.000000	55.000000	0.000000	-11.000000
0.890000	89.920000	30.560000	388.000000	0.000000	153.000000	55.000000	-5.000000	-31.000000
0.900000	89.990000	30.140000	388.000000	0.000000	153.000000	54.000000	7.000000	-42.000000
0.910000	90.070000	29.620000	388.000000	0.000000	153.000000	54.000000	8.000000	-52.000000
0.920000	90.190000	29.050000	388.000000	0.000000	153.000000	54.000000	12.000000	-57.000000
0.930000	90.340000	28.360000	396.000000	0.000000	153.000000	54.000000	15.000000	-69.000000
0.940000	90.520000	27.640000	398.000000	0.000000	154.000000	55.000000	18.000000	-72.000000
0.950000	90.730000	26.920000	399.000000	0.000000	154.000000	55.000000	21.000000	-72.000000
0.960000	91.000000	26.430000	388.000000	0.000000	154.000000	56.000000	27.000000	-49.000000
0.970000	91.280000	26.070000	404.000000	0.000000	154.000000	57.000000	28.000000	-36.000000
0.980000	91.610000	25.900000	415.000000	0.000000	154.000000	58.000000	33.000000	-17.000000
0.990000	92.000000	25.900000	430.000000	0.000000	153.000000	59.000000	39.000000	0.000000
1.000000	92.410000	25.960000	444.000000	0.000000	154.000000	60.000000	41.000000	6.000000
1.010000	92.820000	26.150000	441.000000	0.000000	154.000000	60.000000	41.000000	19.000000
1.020000	93.070000	26.420000	442.000000	0.000000	153.000000	61.000000	25.000000	27.000000
1.030000	93.220000	26.750000	456.000000	0.000000	153.000000	61.000000	15.000000	33.000000
1.040000	93.220000	27.050000	471.000000	0.000000	153.000000	61.000000	0.000000	30.000000
1.050000	93.010000	27.350000	469.000000	0.000000	153.000000	61.000000	-21.000000	30.000000
1.060000	92.690000	27.510000	465.000000	0.000000	154.000000	60.000000	-32.000000	16.000000
1.070000	92.200000	27.570000	460.000000	0.000000	154.000000	60.000000	-49.000000	6.000000
1.080000	91.680000	27.410000	468.000000	0.000000	152.000000	60.000000	-52.000000	-16.000000
1.090000	91.130000	27.220000	469.000000	0.000000	153.000000	59.000000	-55.000000	-19.000000
1.100000	90.710000	26.980000	466.000000	0.000000	153.000000	59.000000	-42.000000	-24.000000
1.110000	90.470000	26.720000	466.000000	0.000000	153.000000	59.000000	-24.000000	-26.000000
1.120000	90.340000	26.500000	465.000000	0.000000	155.000000	60.000000	-13.000000	-22.000000
1.130000	90.340000	26.310000	468.000000	0.000000	154.000000	60.000000	0.000000	-19.000000
1.140000	90.550000	26.170000	469.000000	0.000000	154.000000	60.000000	21.000000	-14.000000
1.150000	90.810000	26.040000	467.000000	0.000000	156.000000	61.000000	26.000000	-13.000000
1.160000	91.180000	25.930000	480.000000	0.000000	155.000000	62.000000	37.000000	-11.000000
1.170000	91.590000	25.930000	486.000000	0.000000	155.000000	62.000000	41.000000	0.000000
1.180000	92.060000	26.050000	493.000000	0.000000	155.000000	62.000000	47.000000	12.000000
1.190000	92.530000	26.170000	496.000000	0.000000	155.000000	62.000000	47.000000	12.000000
1.200000	93.020000	26.410000	496.000000	0.000000	155.000000	62.000000	49.000000	24.000000
1.210000	93.380000	26.720000	489.000000	0.000000	155.000000	62.000000	36.000000	31.000000
1.220000	93.650000	27.070000	492.000000	0.000000	153.000000	61.000000	27.000000	35.000000
1.230000	93.790000	27.380000	501.000000	0.000000	153.000000	61.000000	14.000000	31.000000
1.240000	93.790000	27.680000	509.000000	0.000000	152.000000	60.000000	0.000000	30.000000
1.250000	93.650000	27.950000	529.000000	0.000000	152.000000	60.000000	-14.000000	27.000000
1.260000	93.510000	28.150000	535.000000	0.000000	153.000000	59.000000	-14.000000	20.000000
1.270000	93.380000	28.290000	541.000000	0.000000	152.000000	59.000000	-13.000000	14.000000
1.280000	93.300000	28.380000	544.000000	0.000000	153.000000	58.000000	-8.000000	9.000000
1.290000	93.300000	28.380000	538.000000	0.000000	153.000000	58.000000	0.000000	0.000000
1.300000	93.300000	28.380000	521.000000	0.000000	151.000000	58.000000	0.000000	0.000000
1.310000	93.300000	28.320000	522.000000	0.000000	152.000000	57.000000	0.000000	-6.000000
1.320000	93.350000	28.190000	522.000000	0.000000	152.000000	57.000000	5.000000	-13.000000
1.330000	93.430000	27.920000	522.000000	0.000000	152.000000	57.000000	8.000000	-27.000000
1.340000	93.510000	27.560000	512.000000	0.000000	152.000000	57.000000	8.000000	-36.000000
1.350000	93.590000	27.200000	519.000000	0.000000	152.000000	57.000000	8.000000	-36.000000
1.360000	93.710000	26.940000	519.000000	0.000000	153.000000	58.000000	12.000000	-26.000000
1.370000	93.880000	26.760000	519.000000	0.000000	153.000000	58.000000	17.000000	-18.000000
1.380000	94.130000	26.620000	520.000000	0.000000	153.000000	58.000000	25.000000	-14.000000
1.390000	94.440000	26.620000	520.000000	0.000000	152.000000	59.000000	31.000000	0.000000
1.400000	94.780000	26.620000	522.000000	0.000000	153.000000	59.000000	34.000000	0.000000
1.410000	95.170000	26.830000	518.000000	0.000000	153.000000	59.000000	39.000000	21.000000
1.420000	95.520000	27.120000	518.000000	0.000000	153.000000	59.000000	35.000000	29.000000
1.430000	95.820000	27.480000	529.000000	0.000000	153.000000	59.000000	30.000000	36.000000
1.440000	95.920000	27.830000	529.000000	0.000000	153.000000	59.000000	10.000000	35.000000
1.450000	95.920000	28.150000	542.000000	0.000000	153.000000	59.000000	0.000000	32.000000
1.460000	95.870000	28.380000	542.000000	0.000000	152.000000	59.000000	-5.000000	23.000000
1.470000	95.660000	28.580000	564.000000	0.000000	153.000000	58.000000	-21.000000	20.000000
1.480000	95.480000	28.760000	562.000000	0.000000	153.000000	58.000000	-18.000000	18.000000
1.490000	95.370000	28.870000	567.000000	0.000000	151.000000	58.000000	-11.000000	11.000000
1.500000	95.300000	28.940000	567.000000	0.000000	152.000000	57.000000	-7.000000	7.000000
1.510000	95.300000	28.940000	553.000000	0.000000	152.000000	57.000000	0.000000	0.000000
1.520000	95.300000	28.940000	545.000000	0.000000	151.000000	56.000000	0.000000	0.000000
1.530000	95.300000	28.840000	545.000000	0.000000	151.000000	56.000000	0.000000	-10.000000
1.540000	95.370000	28.660000	542.000000	0.000000	151.000000	56.000000	7.000000	-18.000000
1.550000	95.500000	28.400000	542.000000	0.000000	151.000000	56.000000	13.000000	-26.000000
1.560000	95.500000	28.060000	537.000000	0.000000	151.000000	56.000000	0.000000	-34.000000
1.570000	95.580000	27.750000	539.000000	0.000000	151.000000	56.000000	8.000000	-31.000000
1.580000	95.670000	27.470000	546.000000	0.000000	151.000000	56.000000	9.000000	-28.000000
1.590000	95.810000	27.240000	530.000000	0.000000	151.000000	58.000000	14.000000	-23.000000
1.600000	96.110000	27.110000	492.000000	0.000000	151.000000	58.000000	30.000000	-13.000000
1.610000	96.520000	27.060000	440.000000	0.000000	151.000000	58.000000	41.000000	-5.000000
1.620000	97.020000	27.200000	356.000000	0.000000	153.000000	58.000000	50.000000	14.000000
1.630000	97.540000	27.450000	209.000000	0.000000	152.000000	59.000000	52.000000	25.000000
1.640000	98.060000	27.780000	134.000000	0.000000	153.000000	59.000000	52.000000	33.000000
1.650000	98.410000	28.120000	76.000000	0.000000	153.000000	59.000000	35.000000	34.000000
1.660000	98.660000	28.440000	1.000000	1.000000	155.000000	60.000000	0.000000	0.000000
1.670000	98.660000	28.440000	0.000000	0.000000	156.000000	59.000000	0.000000	0.000000
1.680000	98.660000	28.440000	15.000000	1.000000	156.000000	59.000000	0.000000	0.000000
1.690000	98.360000	29.180000	85.000000	0.000000	156.000000	59.000000	-30.000000	74.000000
1.700000	98.060000	29.290000	163.000000	0.000000	156.000000	59.000000	-30.000000	11.000000
1.710000	97.780000	29.290000	180.000000	0.000000	157.000000	58.000000	-28.000000	0.000000
1.720000	97.520000	29.290000	215.000000	0.000000	157.000000	58.000000	-26.000000	0.000000
1.730000	97.300000	29.290000	228.000000	0.000000	155.000000	58.000000	-22.000000	0.000000
1.740000	97.120000	29.230000	244.000000	0.000000	155.000000	58.000000	-18.000000	-6.000000
1.750000	96.960000	29.110000	253.000000	0.000000	155.000000	58.000000	-16.000000	-12.000000
1.760000	96.810000	28.940000	241.000000	0.000000	155.000000	58.000000	-15.000000	-17.000000
1.770000	96.680000	28.750000	269.000000	0.000000	154.000000	57.000000	-13.000000	-19.000000
1.780000	96.630000	28.540000	289.000000	0.000000	154.000000	57.000000	-5.000000	-21.000000
1.790000	96.630000	28.320000	309.000000	0.000000	154.000000	57.000000	0.000000	-22.000000
1.800000	96.750000	28.110000	320.000000	0.000000	154.000000	57.000000	12.000000	-21.000000
1.810000	96.860000	27.890000	334.000000	0.000000	154.000000	57.000000	11.000000	-22.000000
1.820000	97.130000	27.740000	359.000000	0.000000	154.000000	57.000000	27.000000	-15.000000
1.830000	97.520000	27.630000	368.000000	0.000000	153.000000	58.000000	39.000000	-11.000000
1.840000	97.920000	27.630000	369.000000	0.000000	153.000000	58.000000	40.000000	0.000000
1.850000	98.360000	27.770000	376.000000	0.000000	154.000000	58.000000	44.000000	14.000000
1.860000	98.770000	27.970000	376.000000	0.000000	154.000000	58.000000	41.000000	20.000000
1.870000	99.150000	28.200000	376.000000	0.000000	154.000000	58.000000	38.000000	23.000000
1.880000	99.310000	28.420000	379.000000	0.000000	156.000000	59.000000	16.000000	22.000000
1.890000	99.310000	28.610000	369.000000	0.000000	156.000000	59.000000	0.000000	19.000000
1.900000	99.310000	28.610000	361.000000	0.000000	156.000000	59.000000	0.000000	0.000000
1.910000	98.750000	28.850000	369.000000	0.000000	156.000000	59.000000	-56.000000	24.000000
1.920000	98.340000	28.850000	373.000000	0.000000	156.000000	59.000000	-41.000000	0.000000
1.930000	97.890000	28.850000	373.000000	0.000000	157.000000	58.000000	-45.000000	0.000000
1.940000	97.540000	28.720000	371.000000	0.000000	157.000000	58.000000	-35.000000	-13.000000
1.950000	97.360000	28.610000	371.000000	0.000000	157.000000	58.000000	-18.000000	-11.000000
1.960000	97.300000	28.510000	371.000000	0.000000	157.000000	58.000000	-6.000000	-10.000000
1.970000	97.300000	28.420000	367.000000	0.000000	157.000000	58.000000	0.000000	-9.000000
1.980000	97.400000	28.340000	374.000000	0.000000	155.000000	58.000000	10.000000	-8.000000
1.990000	97.610000	28.340000	381.000000	0.000000	155.000000	58.000000	21.000000	0.000000
2.000000	97.910000	28.280000	396.000000	0.000000	155.000000	58.000000	30.000000	-6.000000
2.010000	98.220000	28.370000	400.000000	0.000000	155.000000	58.000000	31.000000	9.000000
2.020000	98.550000	28.510000	407.000000	0.000000	155.000000	58.000000	33.000000	14.000000
2.030000	98.900000	28.690000	422.000000	0.000000	157.000000	58.000000	35.000000	18.000000
2.040000	99.250000	28.940000	418.000000	0.000000	157.000000	58.000000	35.000000	25.000000
2.050000	99.600000	29.220000	415.000000	0.000000	157.000000	58.000000	35.000000	28.000000
2.060000	99.790000	29.510000	423.000000	0.000000	158.000000	58.000000	19.000000	29.000000
2.070000	99.860000	29.610000	418.000000	0.000000	158.000000	58.000000	7.000000	10.000000
2.080000	99.810000	29.660000	422.000000	0.000000	158.000000	58.000000	-5.000000	5.000000
2.090000	99.750000	29.660000	420.000000	0.000000	161.000000	57.000000	-6.000000	0.000000
2.100000	99.700000	29.590000	413.000000	0.000000	161.000000	57.000000	-5.000000	-7.000000
2.110000	99.620000	29.450000	413.000000	0.000000	161.000000	57.000000	-8.000000	-14.000000
2.120000	99.530000	29.230000	409.000000	0.000000	161.000000	57.000000	-9.000000	-22.000000
2.130000	99.530000	29.010000	407.000000	0.000000	161.000000	57.000000	0.000000	-22.000000
2.140000	99.530000	28.810000	404.000000	0.000000	161.000000	57.000000	0.000000	-20.000000
2.150000	99.590000	28.620000	404.000000	0.000000	161.000000	57.000000	6.000000	-19.000000
2.160000	99.660000	28.420000	405.000000	0.000000	161.000000	57.000000	7.000000	-20.000000
2.170000	99.850000	28.290000	413.000000	0.000000	160.000000	58.000000	19.000000	-13.000000
2.180000	100.050000	28.210000	420.000000	0.000000	160.000000	58.000000	20.000000	-8.000000
2.190000	100.260000	28.270000	422.000000	0.000000	161.000000	59.000000	21.000000	6.000000
2.200000	100.540000	28.420000	422.000000	0.000000	161.000000	59.000000	28.000000	15.000000
