t	x	y	pressure	penup	azimuth	inclination	v_x	v_y
0.000000	49.930000	65.180000	105.000000	1.000000	154.000000	55.000000	0.000000	0.000000
0.010000	50.310000	64.900000	191.000000	0.000000	154.000000	55.000000	38.000000	-28.000000
0.020000	50.310000	65.350000	270.000000	0.000000	154.000000	55.000000	0.000000	45.000000
0.030000	50.310000	65.350000	335.000000	0.000000	154.000000	56.000000	0.000000	0.000000
0.040000	50.310000	65.350000	367.000000	0.000000	154.000000	56.000000	0.000000	0.000000
0.050000	50.310000	65.350000	413.000000	0.000000	156.000000	57.000000	0.000000	0.000000
0.060000	49.870000	65.350000	458.000000	0.000000	156.000000	57.000000	-44.000000	0.000000
0.070000	49.600000	65.260000	498.000000	0.000000	156.000000	57.000000	-27.000000	-9.000000
0.080000	49.240000	65.100000	497.000000	0.000000	156.000000	57.000000	-36.000000	-16.000000
0.090000	48.810000	64.860000	504.000000	0.000000	156.000000	57.000000	-43.000000	-24.000000
0.100000	48.140000	64.510000	512.000000	0.000000	156.000000	57.000000	-67.000000	-35.000000
0.110000	47.280000	64.050000	517.000000	0.000000	156.000000	57.000000	-86.000000	-46.000000
0.120000	46.290000	63.560000	516.000000	0.000000	156.000000	57.000000	-99.000000	-49.000000
0.130000	45.380000	63.050000	521.000000	0.000000	154.000000	56.000000	-91.000000	-51.000000
0.140000	44.510000	62.470000	530.000000	0.000000	153.000000	56.000000	-87.000000	-58.000000
0.150000	43.940000	61.960000	546.000000	0.000000	152.000000	56.000000	-57.000000	-51.000000
0.160000	43.560000	61.640000	546.000000	0.000000	150.000000	55.000000	-38.000000	-32.000000
0.170000	43.380000	61.440000	536.000000	0.000000	149.000000	55.000000	-18.000000	-20.000000
0.180000	43.380000	61.360000	537.000000	0.000000	147.000000	55.000000	0.000000	-8.000000
0.190000	43.380000	61.300000	542.000000	0.000000	147.000000	55.000000	0.000000	-6.000000
0.200000	43.470000	61.250000	570.000000	0.000000	146.000000	54.000000	9.000000	-5.000000
0.210000	43.760000	61.170000	591.000000	0.000000	146.000000	54.000000	29.000000	-8.000000
0.220000	44.190000	61.170000	605.000000	0.000000	146.000000	54.000000	43.000000	0.000000
0.230000	44.960000	61.310000	614.000000	0.000000	146.000000	54.000000	77.000000	14.000000
0.240000	45.970000	61.410000	616.000000	0.000000	147.000000	55.000000	101.000000	10.000000
0.250000	47.130000	61.500000	620.000000	0.000000	147.000000	55.000000	116.000000	9.000000
0.260000	48.080000	61.440000	620.000000	0.000000	149.000000	55.000000	95.000000	-6.000000
0.270000	48.760000	61.290000	619.000000	0.000000	150.000000	55.000000	68.000000	-15.000000
0.280000	49.250000	61.030000	610.000000	0.000000	152.000000	56.000000	49.000000	-26.000000
0.290000	49.390000	60.760000	620.000000	0.000000	152.000000	56.000000	14.000000	-27.000000
0.300000	49.330000	60.480000	611.000000	0.000000	152.000000	57.000000	-6.000000	-28.000000
0.310000	49.130000	60.190000	624.000000	0.000000	154.000000	57.000000	-20.000000	-29.000000
0.320000	48.690000	59.850000	641.000000	0.000000	155.000000	58.000000	-44.000000	-34.000000
0.330000	48.020000	59.380000	645.000000	0.000000	155.000000	58.000000	-67.000000	-47.000000
0.340000	47.190000	59.100000	645.000000	0.000000	154.000000	58.000000	-83.000000	-28.000000
0.350000	46.190000	58.950000	636.000000	0.000000	153.000000	58.000000	-100.000000	-15.000000
0.360000	45.390000	58.800000	641.000000	0.000000	151.000000	58.000000	-80.000000	-15.000000
0.370000	44.710000	58.850000	622.000000	0.000000	149.000000	58.000000	-68.000000	5.000000
0.380000	44.330000	59.040000	564.000000	0.000000	147.000000	58.000000	-38.000000	19.000000
0.390000	44.330000	59.280000	407.000000	0.000000	147.000000	58.000000	0.000000	24.000000
0.400000	44.560000	59.600000	53.000000	0.000000	146.000000	57.000000	23.000000	32.000000
0.410000	44.560000	59.600000	0.000000	1.000000	146.000000	57.000000	0.000000	0.000000
0.420000	45.730000	60.260000	0.000000	0.000000	144.000000	57.000000	117.000000	66.000000
0.430000	46.300000	60.530000	0.000000	0.000000	146.000000	57.000000	57.000000	27.000000
0.440000	46.810000	60.750000	0.000000	0.000000	146.000000	57.000000	51.000000	22.000000
0.450000	47.460000	60.930000	0.000000	0.000000	147.000000	58.000000	65.000000	18.000000
0.460000	48.140000	61.090000	0.000000	0.000000	147.000000	58.000000	68.000000	16.000000
0.470000	48.880000	61.230000	0.000000	0.000000	148.000000	57.000000	74.000000	14.000000
0.480000	49.670000	61.330000	0.000000	0.000000	148.000000	57.000000	79.000000	10.000000
0.490000	50.420000	61.330000	0.000000	0.000000	148.000000	57.000000	75.000000	0.000000
0.500000	50.970000	61.280000	0.000000	0.000000	148.000000	57.000000	55.000000	-5.000000
0.510000	51.410000	61.120000	0.000000	0.000000	148.000000	57.000000	44.000000	-16.000000
0.520000	51.660000	60.910000	0.000000	0.000000	147.000000	56.000000	25.000000	-21.000000
0.530000	51.660000	60.910000	155.000000	1.000000	148.000000	57.000000	0.000000	0.000000
0.540000	51.640000	60.580000	265.000000	0.000000	148.000000	57.000000	-2.000000	-33.000000
0.550000	51.440000	60.580000	348.000000	0.000000	149.000000	56.000000	-20.000000	0.000000
0.560000	51.260000	60.580000	448.000000	0.000000	151.000000	56.000000	-18.000000	0.000000
0.570000	51.130000	60.580000	465.000000	0.000000	152.000000	57.000000	-13.000000	0.000000
0.580000	51.010000	60.680000	467.000000	0.000000	152.000000	57.000000	-12.000000	10.000000
0.590000	50.920000	60.750000	436.000000	0.000000	154.000000	57.000000	-9.000000	7.000000
0.600000	50.850000	60.840000	228.000000	0.000000	154.000000	57.000000	-7.000000	9.000000
0.610000	50.850000	60.840000	0.000000	1.000000	154.000000	57.000000	0.000000	0.000000
0.620000	50.920000	60.910000	0.000000	0.000000	154.000000	57.000000	7.000000	7.000000
0.630000	51.040000	60.910000	0.000000	0.000000	154.000000	57.000000	12.000000	0.000000
0.640000	51.120000	60.810000	0.000000	0.000000	153.000000	58.000000	8.000000	-10.000000
0.650000	51.120000	60.510000	0.000000	0.000000	153.000000	58.000000	0.000000	-30.000000
0.660000	51.120000	60.110000	0.000000	0.000000	153.000000	58.000000	0.000000	-40.000000
0.670000	51.320000	59.720000	0.000000	0.000000	152.000000	59.000000	20.000000	-39.000000
0.680000	51.490000	59.330000	0.000000	0.000000	150.000000	58.000000	17.000000	-39.000000
0.690000	51.670000	58.940000	0.000000	0.000000	149.000000	59.000000	18.000000	-39.000000
0.700000	51.880000	58.560000	0.000000	0.000000	149.000000	59.000000	21.000000	-38.000000
0.710000	51.880000	58.560000	137.000000	1.000000	146.000000	60.000000	0.000000	0.000000
0.720000	52.370000	58.380000	212.000000	0.000000	146.000000	60.000000	49.000000	-18.000000
0.730000	52.480000	58.380000	249.000000	0.000000	148.000000	60.000000	11.000000	0.000000
0.740000	52.480000	58.510000	332.000000	0.000000	148.000000	60.000000	0.000000	13.000000
0.750000	52.670000	58.820000	356.000000	0.000000	148.000000	60.000000	19.000000	31.000000
0.760000	52.850000	59.260000	422.000000	0.000000	148.000000	60.000000	18.000000	44.000000
0.770000	53.050000	59.760000	448.000000	0.000000	149.000000	59.000000	20.000000	50.000000
0.780000	53.260000	60.420000	465.000000	0.000000	151.000000	60.000000	21.000000	66.000000
0.790000	53.480000	61.200000	477.000000	0.000000	152.000000	59.000000	22.000000	78.000000
0.800000	53.700000	62.100000	480.000000	0.000000	152.000000	59.000000	22.000000	90.000000
0.810000	53.930000	63.240000	481.000000	0.000000	152.000000	59.000000	23.000000	114.000000
0.820000	54.060000	64.530000	483.000000	0.000000	153.000000	58.000000	13.000000	129.000000
0.830000	54.140000	65.530000	502.000000	0.000000	153.000000	58.000000	8.000000	100.000000
0.840000	54.140000	66.090000	521.000000	0.000000	153.000000	58.000000	0.000000	56.000000
0.850000	54.090000	66.350000	544.000000	0.000000	154.000000	57.000000	-5.000000	26.000000
0.860000	53.970000	66.400000	536.000000	0.000000	154.000000	57.000000	-12.000000	5.000000
0.870000	53.970000	66.400000	544.000000	0.000000	154.000000	57.000000	0.000000	0.000000
0.880000	53.970000	66.400000	546.000000	0.000000	154.000000	57.000000	0.000000	0.000000
0.890000	53.830000	65.960000	541.000000	0.000000	152.000000	57.000000	-14.000000	-44.000000
0.900000	53.740000	65.340000	538.000000	0.000000	152.000000	57.000000	-9.000000	-62.000000
0.910000	53.740000	64.710000	537.000000	0.000000	152.000000	57.000000	0.000000	-63.000000
0.920000	53.890000	63.840000	521.000000	0.000000	152.000000	57.000000	15.000000	-87.000000
0.930000	53.990000	62.810000	518.000000	0.000000	152.000000	57.000000	10.000000	-103.000000
0.940000	54.110000	61.870000	516.000000	0.000000	154.000000	57.000000	12.000000	-94.000000
0.950000	54.270000	60.930000	519.000000	0.000000	154.000000	56.000000	16.000000	-94.000000
0.960000	54.440000	60.280000	521.000000	0.000000	154.000000	56.000000	17.000000	-65.000000
0.970000	54.640000	59.820000	521.000000	0.000000	154.000000	56.000000	20.000000	-46.000000
0.980000	54.850000	59.480000	530.000000	0.000000	155.000000	58.000000	21.000000	-34.000000
0.990000	55.050000	59.370000	537.000000	0.000000	155.000000	58.000000	20.000000	-11.000000
1.000000	55.200000	59.420000	536.000000	0.000000	155.000000	58.000000	15.000000	5.000000
1.010000	55.310000	59.560000	546.000000	0.000000	154.000000	58.000000	11.000000	14.000000
1.020000	55.410000	59.870000	533.000000	0.000000	154.000000	58.000000	10.000000	31.000000
1.030000	55.410000	60.290000	527.000000	0.000000	154.000000	58.000000	0.000000	42.000000
1.040000	55.320000	60.610000	518.000000	0.000000	154.000000	58.000000	-9.000000	32.000000
1.050000	55.110000	60.870000	515.000000	0.000000	154.000000	58.000000	-21.000000	26.000000
1.060000	54.720000	61.000000	513.000000	0.000000	154.000000	58.000000	-39.000000	13.000000
1.070000	54.280000	61.000000	512.000000	0.000000	154.000000	58.000000	-44.000000	0.000000
1.080000	53.810000	60.950000	522.000000	0.000000	155.000000	58.000000	-47.000000	-5.000000
1.090000	53.420000	60.780000	512.000000	0.000000	154.000000	57.000000	-39.000000	-17.000000
1.100000	53.230000	60.570000	522.000000	0.000000	154.000000	57.000000	-19.000000	-21.000000
1.110000	53.160000	60.370000	513.000000	0.000000	154.000000	57.000000	-7.000000	-20.000000
1.120000	53.290000	60.200000	518.000000	0.000000	154.000000	57.000000	13.000000	-17.000000
1.130000	53.470000	60.020000	524.000000	0.000000	154.000000	57.000000	18.000000	-18.000000
1.140000	53.730000	59.920000	538.000000	0.000000	155.000000	58.000000	26.000000	-10.000000
1.150000	54.030000	59.850000	544.000000	0.000000	155.000000	58.000000	30.000000	-7.000000
1.160000	54.370000	59.850000	546.000000	0.000000	155.000000	58.000000	34.000000	0.000000
1.170000	54.750000	59.980000	537.000000	0.000000	154.000000	58.000000	38.000000	13.000000
1.180000	55.160000	60.160000	537.000000	0.000000	154.000000	58.000000	41.000000	18.000000
1.190000	55.590000	60.460000	540.000000	0.000000	154.000000	58.000000	43.000000	30.000000
1.200000	55.940000	60.800000	542.000000	0.000000	156.000000	59.000000	35.000000	34.000000
1.210000	56.230000	61.180000	545.000000	0.000000	157.000000	58.000000	29.000000	38.000000
1.220000	56.390000	61.470000	548.000000	0.000000	157.000000	58.000000	16.000000	29.000000
1.230000	56.390000	61.710000	553.000000	0.000000	157.000000	58.000000	0.000000	24.000000
1.240000	56.330000	61.910000	565.000000	0.000000	157.000000	58.000000	-6.000000	20.000000
1.250000	56.250000	62.090000	569.000000	0.000000	157.000000	58.000000	-8.000000	18.000000
1.260000	56.190000	62.090000	561.000000	0.000000	157.000000	58.000000	-6.000000	0.000000
1.270000	56.140000	62.090000	561.000000	0.000000	157.000000	57.000000	-5.000000	0.000000
1.280000	56.090000	62.090000	570.000000	0.000000	157.000000	57.000000	-5.000000	0.000000
1.290000	56.020000	61.880000	561.000000	0.000000	157.000000	57.000000	-7.000000	-21.000000
1.300000	55.950000	61.590000	570.000000	0.000000	157.000000	57.000000	-7.000000	-29.000000
1.310000	55.950000	61.270000	560.000000	0.000000	157.000000	57.000000	0.000000	-32.000000
1.320000	56.010000	60.950000	570.000000	0.000000	157.000000	57.000000	6.000000	-32.000000
1.330000	56.140000	60.670000	560.000000	0.000000	157.000000	57.000000	13.000000	-28.000000
1.340000	56.330000	60.420000	561.000000	0.000000	158.000000	58.000000	19.000000	-25.000000
1.350000	56.580000	60.280000	563.000000	0.000000	158.000000	58.000000	25.000000	-14.000000
1.360000	56.830000	60.230000	570.000000	0.000000	158.000000	58.000000	25.000000	-5.000000
1.370000	57.070000	60.230000	592.000000	0.000000	158.000000	58.000000	24.000000	0.000000
1.380000	57.340000	60.410000	588.000000	0.000000	160.000000	58.000000	27.000000	18.000000
1.390000	57.620000	60.680000	599.000000	0.000000	160.000000	58.000000	28.000000	27.000000
1.400000	57.840000	61.030000	616.000000	0.000000	160.000000	58.000000	22.000000	35.000000
1.410000	57.840000	61.410000	636.000000	0.000000	161.000000	59.000000	0.000000	38.000000
1.420000	57.840000	61.790000	653.000000	0.000000	161.000000	59.000000	0.000000	38.000000
1.430000	57.840000	62.140000	678.000000	0.000000	161.000000	59.000000	0.000000	35.000000
1.440000	57.740000	62.470000	687.000000	0.000000	161.000000	59.000000	-10.000000	33.000000
1.450000	57.650000	62.690000	707.000000	0.000000	162.000000	58.000000	-9.000000	22.000000
1.460000	57.650000	62.760000	714.000000	0.000000	162.000000	58.000000	0.000000	7.000000
1.470000	57.650000	62.760000	710.000000	0.000000	162.000000	58.000000	0.000000	0.000000
1.480000	57.650000	62.760000	696.000000	0.000000	162.000000	58.000000	0.000000	0.000000
1.490000	57.650000	62.680000	697.000000	0.000000	163.000000	57.000000	0.000000	-8.000000
1.500000	57.720000	62.510000	699.000000	0.000000	163.000000	57.000000	7.000000	-17.000000
1.510000	57.820000	62.240000	697.000000	0.000000	163.000000	57.000000	10.000000	-27.000000
1.520000	57.940000	61.910000	697.000000	0.000000	163.000000	57.000000	12.000000	-33.000000
1.530000	58.100000	61.550000	699.000000	0.000000	163.000000	57.000000	16.000000	-36.000000
1.540000	58.330000	61.210000	699.000000	0.000000	164.000000	57.000000	23.000000	-34.000000
1.550000	58.590000	60.960000	693.000000	0.000000	164.000000	58.000000	26.000000	-25.000000
1.560000	58.850000	60.770000	691.000000	0.000000	164.000000	58.000000	26.000000	-19.000000
1.570000	59.240000	60.680000	663.000000	0.000000	165.000000	58.000000	39.000000	-9.000000
1.580000	59.660000	60.680000	619.000000	0.000000	165.000000	58.000000	42.000000	0.000000
1.590000	60.110000	60.830000	561.000000	0.000000	165.000000	58.000000	45.000000	15.000000
1.600000	60.540000	61.070000	456.000000	0.000000	165.000000	58.000000	43.000000	24.000000
1.610000	60.860000	61.370000	285.000000	0.000000	165.000000	58.000000	32.000000	30.000000
1.620000	61.100000	61.700000	61.000000	0.000000	165.000000	58.000000	24.000000	33.000000
1.630000	61.100000	61.700000	0.000000	1.000000	165.000000	58.000000	0.000000	0.000000
1.640000	61.220000	62.260000	0.000000	0.000000	165.000000	58.000000	12.000000	56.000000
1.650000	61.220000	62.510000	0.000000	0.000000	165.000000	58.000000	0.000000	25.000000
1.660000	61.220000	62.510000	51.000000	1.000000	165.000000	58.000000	0.000000	0.000000
1.670000	61.020000	62.830000	170.000000	0.000000	165.000000	58.000000	-20.000000	32.000000
1.680000	60.870000	62.910000	282.000000	0.000000	165.000000	58.000000	-15.000000	8.000000
1.690000	60.730000	62.910000	362.000000	0.000000	165.000000	58.000000	-14.000000	0.000000
1.700000	60.580000	62.910000	435.000000	0.000000	165.000000	58.000000	-15.000000	0.000000
1.710000	60.400000	62.820000	464.000000	0.000000	165.000000	58.000000	-18.000000	-9.000000
1.720000	60.210000	62.670000	491.000000	0.000000	167.000000	58.000000	-19.000000	-15.000000
1.730000	59.980000	62.460000	509.000000	0.000000	167.000000	57.000000	-23.000000	-21.000000
1.740000	59.780000	62.220000	522.000000	0.000000	167.000000	57.000000	-20.000000	-24.000000
1.750000	59.620000	61.980000	519.000000	0.000000	167.000000	57.000000	-16.000000	-24.000000
1.760000	59.620000	61.760000	533.000000	0.000000	167.000000	57.000000	0.000000	-22.000000
1.770000	59.620000	61.510000	543.000000	0.000000	167.000000	57.000000	0.000000	-25.000000
1.780000	59.700000	61.270000	548.000000	0.000000	167.000000	58.000000	8.000000	-24.000000
1.790000	59.920000	61.080000	567.000000	0.000000	167.000000	58.000000	22.000000	-19.000000
1.800000	60.250000	60.940000	560.000000	0.000000	167.000000	58.000000	33.000000	-14.000000
1.810000	60.640000	60.940000	569.000000	0.000000	167.000000	58.000000	39.000000	0.000000
1.820000	61.030000	61.000000	577.000000	0.000000	167.000000	58.000000	39.000000	6.000000
1.830000	61.370000	61.160000	586.000000	0.000000	167.000000	58.000000	34.000000	16.000000
1.840000	61.670000	61.390000	595.000000	0.000000	167.000000	58.000000	30.000000	23.000000
1.850000	61.890000	61.630000	595.000000	0.000000	167.000000	58.000000	22.000000	24.000000
1.860000	61.890000	61.870000	595.000000	0.000000	167.000000	58.000000	0.000000	24.000000
1.870000	61.840000	62.090000	586.000000	0.000000	165.000000	58.000000	-5.000000	22.000000
1.880000	61.670000	62.280000	588.000000	0.000000	165.000000	58.000000	-17.000000	19.000000
1.890000	61.370000	62.390000	586.000000	0.000000	165.000000	58.000000	-30.000000	11.000000
1.900000	60.970000	62.450000	586.000000	0.000000	165.000000	58.000000	-40.000000	6.000000
1.910000	60.660000	62.450000	586.000000	0.000000	165.000000	58.000000	-31.000000	0.000000
1.920000	60.380000	62.310000	585.000000	0.000000	165.000000	58.000000	-28.000000	-14.000000
1.930000	60.170000	62.160000	595.000000	0.000000	165.000000	58.000000	-21.000000	-15.000000
1.940000	60.090000	62.020000	595.000000	0.000000	167.000000	57.000000	-8.000000	-14.000000
1.950000	60.090000	61.890000	595.000000	0.000000	167.000000	57.000000	0.000000	-13.000000
1.960000	60.180000	61.740000	586.000000	0.000000	167.000000	57.000000	9.000000	-15.000000
1.970000	60.320000	61.610000	592.000000	0.000000	167.000000	57.000000	14.000000	-13.000000
1.980000	60.570000	61.560000	606.000000	0.000000	167.000000	57.000000	25.000000	-5.000000
1.990000	60.870000	61.560000	610.000000	0.000000	167.000000	57.000000	30.000000	0.000000
2.000000	61.190000	61.630000	620.000000	0.000000	167.000000	58.000000	32.000000	7.000000
2.010000	61.530000	61.800000	627.000000	0.000000	167.000000	58.000000	34.000000	17.000000
2.020000	61.900000	62.040000	638.000000	0.000000	167.000000	58.000000	37.000000	24.000000
2.030000	62.160000	62.320000	647.000000	0.000000	167.000000	58.000000	26.000000	28.000000
2.040000	62.350000	62.600000	640.000000	0.000000	165.000000	58.000000	19.000000	28.000000
2.050000	62.460000	62.860000	637.000000	0.000000	166.000000	57.000000	11.000000	26.000000
2.060000	62.460000	63.090000	658.000000	0.000000	166.000000	57.000000	0.000000	23.000000
2.070000	62.390000	63.260000	673.000000	0.000000	166.000000	57.000000	-7.000000	17.000000
2.080000	62.390000	63.260000	679.000000	0.000000	164.000000	57.000000	0.000000	0.000000
2.090000	62.340000	63.260000	675.000000	0.000000	164.000000	57.000000	-5.000000	0.000000
2.100000	62.340000	63.260000	673.000000	0.000000	164.000000	57.000000	0.000000	0.000000
2.110000	62.280000	63.130000	675.000000	0.000000	164.000000	57.000000	-6.000000	-13.000000
2.120000	62.280000	62.840000	675.000000	0.000000	164.000000	57.000000	0.000000	-29.000000
2.130000	62.230000	62.440000	673.000000	0.000000	164.000000	57.000000	-5.000000	-40.000000
2.140000	62.230000	62.160000	673.000000	0.000000	164.000000	57.000000	0.000000	-28.000000
2.150000	62.290000	61.880000	673.000000	0.000000	164.000000	57.000000	6.000000	-28.000000
2.160000	62.410000	61.600000	675.000000	0.000000	164.000000	57.000000	12.000000	-28.000000
2.170000	62.520000	61.410000	675.000000	0.000000	164.000000	58.000000	11.000000	-19.000000
2.180000	62.620000	61.280000	675.000000	0.000000	164.000000	58.000000	10.000000	-13.000000
2.190000	62.720000	61.200000	684.000000	0.000000	164.000000	58.000000	10.000000	-8.000000
2.200000	62.870000	61.200000	691.000000	0.000000	164.000000	58.000000	15.000000	0.000000
