t	x	y	pressure	penup	azimuth	inclination	v_x	v_y
0.000000	16.710000	45.960000	10.000000	1.000000	123.000000	52.000000	0.000000	0.000000
0.010000	16.640000	46.240000	48.000000	1.000000	123.000000	52.000000	0.000000	0.000000
0.020000	16.640000	46.340000	48.000000	0.000000	122.000000	51.000000	0.000000	10.000000
0.030000	16.640000	46.430000	91.000000	0.000000	122.000000	51.000000	0.000000	9.000000
0.040000	16.640000	46.510000	101.000000	0.000000	122.000000	51.000000	0.000000	8.000000
0.050000	16.690000	46.510000	107.000000	0.000000	122.000000	51.000000	5.000000	0.000000
0.060000	16.690000	46.560000	108.000000	0.000000	122.000000	51.000000	0.000000	5.000000
0.070000	16.690000	46.560000	112.000000	0.000000	122.000000	51.000000	0.000000	0.000000
0.080000	16.690000	46.270000	119.000000	0.000000	123.000000	51.000000	0.000000	-29.000000
0.090000	16.690000	45.820000	125.000000	0.000000	123.000000	51.000000	0.000000	-45.000000
0.100000	16.690000	44.880000	130.000000	0.000000	122.000000	51.000000	0.000000	-94.000000
0.110000	16.550000	43.880000	134.000000	0.000000	122.000000	51.000000	-14.000000	-100.000000
0.120000	16.370000	43.030000	137.000000	0.000000	122.000000	51.000000	-18.000000	-85.000000
0.130000	16.220000	42.300000	139.000000	0.000000	122.000000	51.000000	-15.000000	-73.000000
0.140000	16.150000	41.880000	139.000000	0.000000	122.000000	51.000000	-7.000000	-42.000000
0.150000	16.150000	41.650000	141.000000	0.000000	122.000000	51.000000	0.000000	-23.000000
0.160000	16.150000	41.560000	141.000000	0.000000	122.000000	50.000000	0.000000	-9.000000
0.170000	16.150000	41.560000	148.000000	0.000000	122.000000	50.000000	0.000000	0.000000
0.180000	16.150000	41.560000	132.000000	0.000000	122.000000	50.000000	0.000000	0.000000
0.190000	16.020000	41.680000	109.000000	0.000000	123.000000	51.000000	-13.000000	12.000000
0.200000	15.680000	41.780000	88.000000	0.000000	123.000000	51.000000	-34.000000	10.000000
0.210000	15.150000	41.850000	88.000000	0.000000	126.000000	51.000000	-53.000000	7.000000
0.220000	14.500000	41.850000	81.000000	0.000000	126.000000	51.000000	-65.000000	0.000000
0.230000	13.750000	41.710000	112.000000	0.000000	127.000000	52.000000	-75.000000	-14.000000
0.240000	13.020000	41.570000	134.000000	0.000000	127.000000	52.000000	-73.000000	-14.000000
0.250000	12.300000	41.430000	151.000000	0.000000	127.000000	52.000000	-72.000000	-14.000000
0.260000	11.940000	41.360000	179.000000	0.000000	127.000000	52.000000	-36.000000	-7.000000
0.270000	11.870000	41.360000	186.000000	0.000000	127.000000	52.000000	-7.000000	0.000000
0.280000	12.000000	41.490000	184.000000	0.000000	126.000000	51.000000	13.000000	13.000000
0.290000	12.290000	41.550000	183.000000	0.000000	126.000000	51.000000	29.000000	6.000000
0.300000	13.020000	41.910000	216.000000	0.000000	126.000000	51.000000	73.000000	36.000000
0.310000	14.030000	42.460000	274.000000	0.000000	125.000000	51.000000	101.000000	55.000000
0.320000	15.790000	43.380000	309.000000	0.000000	125.000000	51.000000	176.000000	92.000000
0.330000	18.170000	44.640000	349.000000	0.000000	123.000000	51.000000	238.000000	126.000000
0.340000	20.960000	46.120000	379.000000	0.000000	123.000000	51.000000	279.000000	148.000000
0.350000	23.610000	47.520000	391.000000	0.000000	123.000000	51.000000	265.000000	140.000000
0.360000	26.260000	48.970000	399.000000	0.000000	123.000000	51.000000	265.000000	145.000000
0.370000	28.270000	50.050000	396.000000	0.000000	126.000000	51.000000	201.000000	108.000000
0.380000	29.850000	50.870000	362.000000	0.000000	126.000000	51.000000	158.000000	82.000000
0.390000	30.770000	51.340000	309.000000	0.000000	127.000000	51.000000	92.000000	47.000000
0.400000	30.910000	51.480000	228.000000	0.000000	127.000000	51.000000	14.000000	14.000000
0.410000	30.530000	51.390000	8.000000	1.000000	129.000000	51.000000	0.000000	0.000000
0.420000	30.530000	51.390000	0.000000	0.000000	130.000000	51.000000	0.000000	0.000000
0.430000	28.690000	50.990000	0.000000	0.000000	130.000000	51.000000	-184.000000	-40.000000
0.440000	27.510000	50.690000	0.000000	0.000000	133.000000	51.000000	-118.000000	-30.000000
0.450000	26.200000	50.590000	0.000000	0.000000	133.000000	51.000000	-131.000000	-10.000000
0.460000	24.890000	50.480000	0.000000	0.000000	133.000000	51.000000	-131.000000	-11.000000
0.470000	23.790000	50.350000	0.000000	0.000000	132.000000	50.000000	-110.000000	-13.000000
0.480000	22.820000	50.190000	0.000000	0.000000	130.000000	51.000000	-97.000000	-16.000000
0.490000	21.800000	50.010000	0.000000	0.000000	129.000000	50.000000	-102.000000	-18.000000
0.500000	20.730000	49.730000	0.000000	0.000000	127.000000	50.000000	-107.000000	-28.000000
0.510000	19.630000	49.270000	0.000000	0.000000	125.000000	50.000000	-110.000000	-46.000000
0.520000	18.670000	48.700000	0.000000	0.000000	124.000000	49.000000	-96.000000	-57.000000
0.530000	17.760000	48.000000	0.000000	0.000000	122.000000	48.000000	-91.000000	-70.000000
0.540000	16.940000	47.370000	0.000000	0.000000	122.000000	48.000000	-82.000000	-63.000000
0.550000	16.150000	46.790000	0.000000	0.000000	121.000000	49.000000	-79.000000	-58.000000
0.560000	15.600000	46.460000	0.000000	0.000000	121.000000	49.000000	-55.000000	-33.000000
0.570000	15.210000	46.340000	0.000000	0.000000	122.000000	50.000000	-39.000000	-12.000000
0.580000	14.800000	46.340000	0.000000	0.000000	123.000000	51.000000	-41.000000	0.000000
0.590000	14.390000	46.340000	0.000000	0.000000	124.000000	52.000000	-41.000000	0.000000
0.600000	13.980000	46.270000	0.000000	0.000000	127.000000	53.000000	-41.000000	-7.000000
0.610000	13.560000	46.140000	0.000000	0.000000	128.000000	54.000000	-42.000000	-13.000000
0.620000	13.240000	45.910000	0.000000	0.000000	129.000000	55.000000	-32.000000	-23.000000
0.630000	12.960000	45.640000	0.000000	0.000000	130.000000	55.000000	-28.000000	-27.000000
0.640000	12.890000	45.450000	0.000000	0.000000	130.000000	55.000000	-7.000000	-19.000000
0.650000	12.940000	45.310000	0.000000	0.000000	130.000000	55.000000	5.000000	-14.000000
0.660000	13.200000	45.310000	0.000000	0.000000	130.000000	55.000000	26.000000	0.000000
0.670000	13.400000	45.360000	0.000000	0.000000	130.000000	55.000000	20.000000	5.000000
0.680000	13.560000	45.410000	0.000000	0.000000	130.000000	55.000000	16.000000	5.000000
0.690000	13.690000	45.410000	0.000000	0.000000	127.000000	55.000000	13.000000	0.000000
0.700000	13.750000	45.230000	0.000000	0.000000	127.000000	55.000000	6.000000	-18.000000
0.710000	13.750000	45.000000	0.000000	0.000000	127.000000	55.000000	0.000000	-23.000000
0.720000	13.670000	44.780000	0.000000	0.000000	126.000000	56.000000	-8.000000	-22.000000
0.730000	13.590000	44.670000	0.000000	0.000000	125.000000	55.000000	-8.000000	-11.000000
0.740000	13.500000	44.670000	0.000000	0.000000	125.000000	55.000000	-9.000000	0.000000
0.750000	13.450000	44.670000	0.000000	0.000000	125.000000	55.000000	-5.000000	0.000000
0.760000	13.390000	44.670000	0.000000	0.000000	124.000000	55.000000	-6.000000	0.000000
0.770000	13.320000	44.670000	0.000000	0.000000	124.000000	55.000000	-7.000000	0.000000
0.780000	13.230000	44.670000	0.000000	0.000000	124.000000	55.000000	-9.000000	0.000000
0.790000	13.140000	44.670000	0.000000	0.000000	124.000000	55.000000	-9.000000	0.000000
0.800000	13.060000	44.670000	0.000000	0.000000	124.000000	55.000000	-8.000000	0.000000
0.810000	13.000000	44.750000	0.000000	0.000000	124.000000	55.000000	-6.000000	8.000000
0.820000	12.950000	44.750000	0.000000	0.000000	124.000000	55.000000	-5.000000	0.000000
0.830000	12.890000	44.750000	0.000000	0.000000	124.000000	55.000000	-6.000000	0.000000
0.840000	12.820000	44.750000	0.000000	0.000000	124.000000	55.000000	-7.000000	0.000000
0.850000	12.750000	44.640000	0.000000	0.000000	124.000000	55.000000	-7.000000	-11.000000
0.860000	12.690000	44.490000	0.000000	0.000000	124.000000	55.000000	-6.000000	-15.000000
0.870000	12.630000	44.420000	0.000000	0.000000	124.000000	55.000000	-6.000000	-7.000000
0.880000	12.630000	44.420000	0.000000	0.000000	124.000000	55.000000	0.000000	0.000000
0.890000	12.630000	44.510000	0.000000	0.000000	122.000000	56.000000	0.000000	9.000000
0.900000	12.630000	44.510000	17.000000	1.000000	122.000000	56.000000	0.000000	0.000000
0.910000	12.700000	44.860000	53.000000	0.000000	122.000000	56.000000	7.000000	35.000000
0.920000	12.700000	45.120000	96.000000	0.000000	122.000000	56.000000	0.000000	26.000000
0.930000	12.770000	45.320000	125.000000	0.000000	121.000000	56.000000	7.000000	20.000000
0.940000	12.770000	45.490000	139.000000	0.000000	120.000000	55.000000	0.000000	17.000000
0.950000	12.770000	45.490000	153.000000	0.000000	119.000000	54.000000	0.000000	0.000000
0.960000	12.770000	45.490000	160.000000	0.000000	118.000000	54.000000	0.000000	0.000000
0.970000	12.770000	45.230000	161.000000	0.000000	117.000000	53.000000	0.000000	-26.000000
0.980000	12.680000	44.700000	161.000000	0.000000	117.000000	53.000000	-9.000000	-53.000000
0.990000	12.580000	43.980000	165.000000	0.000000	116.000000	52.000000	-10.000000	-72.000000
1.000000	12.510000	43.200000	167.000000	0.000000	116.000000	52.000000	-7.000000	-78.000000
1.010000	12.450000	42.620000	172.000000	0.000000	116.000000	52.000000	-6.000000	-58.000000
1.020000	12.450000	42.170000	172.000000	0.000000	117.000000	51.000000	0.000000	-45.000000
1.030000	12.450000	42.100000	172.000000	0.000000	117.000000	51.000000	0.000000	-7.000000
1.040000	12.450000	42.150000	184.000000	0.000000	118.000000	51.000000	0.000000	5.000000
1.050000	12.550000	42.290000	185.000000	0.000000	118.000000	51.000000	10.000000	14.000000
1.060000	12.550000	42.570000	186.000000	0.000000	118.000000	51.000000	0.000000	28.000000
1.070000	12.550000	43.020000	188.000000	0.000000	119.000000	50.000000	0.000000	45.000000
1.080000	12.550000	43.580000	190.000000	0.000000	119.000000	50.000000	0.000000	56.000000
1.090000	12.360000	44.020000	193.000000	0.000000	118.000000	51.000000	-19.000000	44.000000
1.100000	12.150000	44.430000	191.000000	0.000000	118.000000	51.000000	-21.000000	41.000000
1.110000	11.930000	44.780000	191.000000	0.000000	118.000000	51.000000	-22.000000	35.000000
1.120000	11.710000	45.000000	200.000000	0.000000	117.000000	51.000000	-22.000000	22.000000
1.130000	11.660000	45.130000	200.000000	0.000000	117.000000	51.000000	-5.000000	13.000000
1.140000	11.730000	45.260000	198.000000	0.000000	115.000000	51.000000	7.000000	13.000000
1.150000	11.910000	45.420000	202.000000	0.000000	115.000000	51.000000	18.000000	16.000000
1.160000	12.290000	45.590000	203.000000	0.000000	115.000000	51.000000	38.000000	17.000000
1.170000	12.790000	45.840000	205.000000	0.000000	115.000000	51.000000	50.000000	25.000000
1.180000	13.210000	46.060000	212.000000	0.000000	115.000000	51.000000	42.000000	22.000000
1.190000	13.630000	46.220000	212.000000	0.000000	115.000000	51.000000	42.000000	16.000000
1.200000	13.890000	46.300000	212.000000	0.000000	115.000000	50.000000	26.000000	8.000000
1.210000	14.050000	46.360000	205.000000	0.000000	116.000000	50.000000	16.000000	6.000000
1.220000	14.110000	46.420000	170.000000	0.000000	117.000000	51.000000	6.000000	6.000000
1.230000	14.110000	46.420000	25.000000	0.000000	117.000000	51.000000	0.000000	0.000000
1.240000	14.110000	46.420000	0.000000	1.000000	118.000000	51.000000	0.000000	0.000000
1.250000	13.700000	46.490000	0.000000	0.000000	119.000000	51.000000	-41.000000	7.000000
1.260000	13.310000	46.300000	0.000000	0.000000	119.000000	51.000000	-39.000000	-19.000000
1.270000	12.850000	46.050000	0.000000	0.000000	120.000000	52.000000	-46.000000	-25.000000
1.280000	12.550000	45.740000	0.000000	0.000000	121.000000	53.000000	-30.000000	-31.000000
1.290000	12.470000	45.450000	0.000000	0.000000	121.000000	53.000000	-8.000000	-29.000000
1.300000	12.530000	45.200000	0.000000	0.000000	122.000000	54.000000	6.000000	-25.000000
1.310000	12.660000	44.990000	0.000000	0.000000	122.000000	54.000000	13.000000	-21.000000
1.320000	12.820000	44.750000	0.000000	0.000000	123.000000	55.000000	16.000000	-24.000000
1.330000	12.880000	44.530000	0.000000	0.000000	123.000000	55.000000	6.000000	-22.000000
1.340000	12.880000	44.350000	0.000000	0.000000	123.000000	55.000000	0.000000	-18.000000
1.350000	12.750000	44.210000	0.000000	0.000000	122.000000	54.000000	-13.000000	-14.000000
1.360000	12.650000	44.150000	0.000000	0.000000	122.000000	54.000000	-10.000000	-6.000000
1.370000	12.540000	44.150000	0.000000	0.000000	122.000000	54.000000	-11.000000	0.000000
1.380000	12.430000	44.150000	0.000000	0.000000	123.000000	55.000000	-11.000000	0.000000
1.390000	12.270000	44.150000	0.000000	0.000000	123.000000	55.000000	-16.000000	0.000000
1.400000	12.080000	44.070000	0.000000	0.000000	123.000000	55.000000	-19.000000	-8.000000
1.410000	11.880000	43.960000	0.000000	0.000000	123.000000	55.000000	-20.000000	-11.000000
1.420000	11.750000	43.850000	0.000000	0.000000	123.000000	55.000000	-13.000000	-11.000000
1.430000	11.750000	43.850000	0.000000	0.000000	123.000000	55.000000	0.000000	0.000000
1.440000	11.750000	43.850000	0.000000	0.000000	123.000000	55.000000	0.000000	0.000000
1.450000	12.070000	43.850000	0.000000	0.000000	123.000000	55.000000	32.000000	0.000000
1.460000	12.070000	43.850000	1.000000	0.000000	123.000000	55.000000	0.000000	0.000000
1.470000	12.070000	43.850000	112.000000	1.000000	123.000000	55.000000	0.000000	0.000000
1.480000	12.070000	43.850000	176.000000	0.000000	121.000000	55.000000	0.000000	0.000000
1.490000	12.370000	44.000000	254.000000	0.000000	121.000000	55.000000	30.000000	15.000000
1.500000	12.370000	44.050000	297.000000	0.000000	120.000000	54.000000	0.000000	5.000000
1.510000	12.500000	44.160000	317.000000	0.000000	119.000000	53.000000	13.000000	11.000000
1.520000	12.660000	44.320000	304.000000	0.000000	118.000000	53.000000	16.000000	16.000000
1.530000	12.910000	44.490000	312.000000	0.000000	116.000000	52.000000	25.000000	17.000000
1.540000	13.150000	44.640000	223.000000	0.000000	115.000000	51.000000	24.000000	15.000000
1.550000	13.380000	44.720000	1.000000	1.000000	115.000000	51.000000	0.000000	0.000000
1.560000	13.380000	44.720000	0.000000	0.000000	115.000000	51.000000	0.000000	0.000000
1.570000	13.630000	44.720000	0.000000	0.000000	115.000000	51.000000	25.000000	0.000000
1.580000	13.570000	44.800000	0.000000	0.000000	116.000000	52.000000	-6.000000	8.000000
1.590000	13.400000	44.910000	0.000000	0.000000	117.000000	53.000000	-17.000000	11.000000
1.600000	13.270000	44.910000	0.000000	0.000000	119.000000	53.000000	-13.000000	0.000000
1.610000	13.350000	45.240000	0.000000	0.000000	120.000000	54.000000	8.000000	33.000000
1.620000	13.540000	45.730000	0.000000	0.000000	123.000000	55.000000	19.000000	49.000000
1.630000	13.860000	45.940000	0.000000	0.000000	125.000000	55.000000	32.000000	21.000000
1.640000	14.180000	46.080000	0.000000	0.000000	125.000000	55.000000	32.000000	14.000000
1.650000	14.520000	46.080000	0.000000	0.000000	125.000000	55.000000	34.000000	0.000000
1.660000	14.730000	46.080000	0.000000	0.000000	126.000000	54.000000	21.000000	0.000000
1.670000	14.860000	46.080000	0.000000	0.000000	126.000000	54.000000	13.000000	0.000000
1.680000	14.860000	46.080000	0.000000	0.000000	125.000000	55.000000	0.000000	0.000000
1.690000	14.790000	46.080000	0.000000	0.000000	125.000000	55.000000	-7.000000	0.000000
1.700000	14.690000	46.080000	0.000000	0.000000	124.000000	55.000000	-10.000000	0.000000
1.710000	14.560000	46.020000	0.000000	0.000000	124.000000	55.000000	-13.000000	-6.000000
1.720000	14.430000	46.020000	0.000000	0.000000	122.000000	56.000000	-13.000000	0.000000
1.730000	14.430000	45.970000	0.000000	0.000000	122.000000	56.000000	0.000000	-5.000000
1.740000	14.500000	45.970000	0.000000	0.000000	121.000000	56.000000	7.000000	0.000000
1.750000	14.700000	46.060000	0.000000	0.000000	121.000000	56.000000	20.000000	9.000000
1.760000	14.920000	46.170000	0.000000	0.000000	121.000000	56.000000	22.000000	11.000000
1.770000	15.170000	46.290000	0.000000	0.000000	121.000000	56.000000	25.000000	12.000000
1.780000	15.170000	46.290000	83.000000	1.000000	122.000000	56.000000	0.000000	0.000000
1.790000	15.170000	46.290000	143.000000	0.000000	122.000000	56.000000	0.000000	0.000000
1.800000	15.120000	46.570000	226.000000	0.000000	122.000000	56.000000	-5.000000	28.000000
1.810000	14.980000	46.570000	275.000000	0.000000	121.000000	55.000000	-14.000000	0.000000
1.820000	14.820000	46.630000	284.000000	0.000000	120.000000	54.000000	-16.000000	6.000000
1.830000	14.650000	46.630000	286.000000	0.000000	120.000000	54.000000	-17.000000	0.000000
1.840000	14.440000	46.530000	276.000000	0.000000	119.000000	53.000000	-21.000000	-10.000000
1.850000	14.210000	46.270000	259.000000	0.000000	119.000000	53.000000	-23.000000	-26.000000
1.860000	13.970000	45.900000	237.000000	0.000000	118.000000	53.000000	-24.000000	-37.000000
1.870000	13.820000	45.450000	212.000000	0.000000	118.000000	53.000000	-15.000000	-45.000000
1.880000	13.820000	45.040000	181.000000	0.000000	117.000000	52.000000	0.000000	-41.000000
1.890000	13.970000	44.810000	163.000000	0.000000	117.000000	52.000000	15.000000	-23.000000
1.900000	14.290000	44.680000	132.000000	0.000000	116.000000	52.000000	32.000000	-13.000000
1.910000	14.660000	44.870000	78.000000	0.000000	116.000000	52.000000	37.000000	19.000000
1.920000	14.660000	44.870000	0.000000	1.000000	116.000000	52.000000	0.000000	0.000000
1.930000	15.510000	45.680000	0.000000	0.000000	117.000000	53.000000	85.000000	81.000000
1.940000	15.730000	46.060000	0.000000	0.000000	117.000000	53.000000	22.000000	38.000000
1.950000	15.830000	46.390000	0.000000	0.000000	118.000000	54.000000	10.000000	33.000000
1.960000	15.830000	46.640000	0.000000	0.000000	119.000000	54.000000	0.000000	25.000000
1.970000	15.780000	46.790000	0.000000	0.000000	120.000000	55.000000	-5.000000	15.000000
1.980000	15.710000	46.790000	0.000000	0.000000	122.000000	56.000000	-7.000000	0.000000
1.990000	15.710000	46.790000	0.000000	0.000000	123.000000	56.000000	0.000000	0.000000
2.000000	15.710000	46.790000	0.000000	0.000000	123.000000	56.000000	0.000000	0.000000
2.010000	15.710000	46.790000	0.000000	0.000000	125.000000	56.000000	0.000000	0.000000
2.020000	15.710000	46.790000	0.000000	0.000000	125.000000	56.000000	0.000000	0.000000
2.030000	16.000000	46.680000	0.000000	0.000000	124.000000	55.000000	29.000000	-11.000000
2.040000	16.000000	46.680000	0.000000	0.000000	123.000000	55.000000	0.000000	0.000000
2.050000	16.000000	46.680000	46.000000	1.000000	122.000000	54.000000	0.000000	0.000000
2.060000	16.000000	46.680000	51.000000	0.000000	121.000000	53.000000	0.000000	0.000000
2.070000	16.000000	46.680000	81.000000	0.000000	120.000000	52.000000	0.000000	0.000000
2.080000	16.000000	46.680000	94.000000	0.000000	120.000000	52.000000	0.000000	0.000000
2.090000	15.710000	46.870000	99.000000	0.000000	120.000000	52.000000	-29.000000	19.000000
2.100000	15.650000	46.870000	78.000000	0.000000	120.000000	52.000000	-6.000000	0.000000
2.110000	15.650000	46.820000	54.000000	0.000000	121.000000	53.000000	0.000000	-5.000000
2.120000	15.650000	46.750000	24.000000	0.000000	121.000000	53.000000	0.000000	-7.000000
2.130000	15.650000	46.680000	1.000000	1.000000	122.000000	54.000000	0.000000	0.000000
2.140000	15.650000	46.680000	1.000000	0.000000	122.000000	54.000000	0.000000	0.000000
2.150000	15.700000	46.680000	1.000000	0.000000	122.000000	54.000000	5.000000	0.000000
2.160000	15.700000	46.680000	34.000000	1.000000	122.000000	54.000000	0.000000	0.000000
2.170000	15.620000	46.680000	53.000000	0.000000	122.000000	54.000000	-8.000000	0.000000
2.180000	15.530000	46.580000	98.000000	0.000000	122.000000	54.000000	-9.000000	-10.000000
2.190000	15.450000	46.440000	91.000000	0.000000	122.000000	54.000000	-8.000000	-14.000000
2.200000	15.370000	46.220000	125.000000	0.000000	122.000000	54.000000	-8.000000	-22.000000
2.210000	15.280000	45.960000	142.000000	0.000000	122.000000	54.000000	-9.000000	-26.000000
2.220000	15.280000	45.750000	137.000000	0.000000	122.000000	54.000000	0.000000	-21.000000
2.230000	15.470000	45.570000	144.000000	0.000000	120.000000	54.000000	19.000000	-18.000000
