t	x	y	pressure	penup	azimuth	inclination	v_x	v_y
0.000000	12.610000	81.810000	163.000000	1.000000	133.000000	67.000000	0.000000	0.000000
0.010000	12.360000	81.620000	210.000000	0.000000	133.000000	67.000000	-25.000000	-19.000000
0.020000	12.300000	81.620000	291.000000	0.000000	133.000000	66.000000	-6.000000	0.000000
0.030000	12.300000	81.620000	361.000000	0.000000	133.000000	66.000000	0.000000	0.000000
0.040000	12.370000	81.620000	400.000000	0.000000	132.000000	65.000000	7.000000	0.000000
0.050000	12.440000	81.620000	450.000000	0.000000	132.000000	65.000000	7.000000	0.000000
0.060000	12.540000	81.620000	515.000000	0.000000	133.000000	65.000000	10.000000	0.000000
0.070000	12.740000	81.700000	544.000000	0.000000	132.000000	64.000000	20.000000	8.000000
0.080000	13.020000	81.770000	570.000000	0.000000	132.000000	64.000000	28.000000	7.000000
0.090000	13.330000	81.890000	589.000000	0.000000	132.000000	64.000000	31.000000	12.000000
0.100000	13.680000	82.080000	600.000000	0.000000	132.000000	64.000000	35.000000	19.000000
0.110000	14.210000	82.320000	614.000000	0.000000	132.000000	64.000000	53.000000	24.000000
0.120000	14.840000	82.660000	610.000000	0.000000	133.000000	63.000000	63.000000	34.000000
0.130000	15.350000	82.970000	620.000000	0.000000	135.000000	64.000000	51.000000	31.000000
0.140000	15.760000	83.210000	620.000000	0.000000	135.000000	64.000000	41.000000	24.000000
0.150000	16.090000	83.390000	620.000000	0.000000	137.000000	65.000000	33.000000	18.000000
0.160000	16.280000	83.490000	619.000000	0.000000	138.000000	65.000000	19.000000	10.000000
0.170000	16.340000	83.540000	603.000000	0.000000	142.000000	65.000000	6.000000	5.000000
0.180000	16.340000	83.540000	520.000000	0.000000	144.000000	66.000000	0.000000	0.000000
0.190000	16.340000	83.540000	344.000000	0.000000	146.000000	66.000000	0.000000	0.000000
0.200000	16.340000	83.540000	17.000000	0.000000	146.000000	66.000000	0.000000	0.000000
0.210000	16.340000	83.540000	0.000000	1.000000	148.000000	67.000000	0.000000	0.000000
0.220000	15.620000	83.360000	0.000000	0.000000	148.000000	67.000000	-72.000000	-18.000000
0.230000	15.280000	83.270000	0.000000	0.000000	148.000000	67.000000	-34.000000	-9.000000
0.240000	14.900000	83.220000	0.000000	0.000000	148.000000	67.000000	-38.000000	-5.000000
0.250000	14.560000	83.100000	0.000000	0.000000	148.000000	67.000000	-34.000000	-12.000000
0.260000	14.240000	82.980000	0.000000	0.000000	148.000000	67.000000	-32.000000	-12.000000
0.270000	13.970000	82.840000	0.000000	0.000000	148.000000	67.000000	-27.000000	-14.000000
0.280000	13.760000	82.710000	0.000000	0.000000	144.000000	67.000000	-21.000000	-13.000000
0.290000	13.580000	82.590000	0.000000	0.000000	142.000000	66.000000	-18.000000	-12.000000
0.300000	13.460000	82.490000	0.000000	0.000000	142.000000	66.000000	-12.000000	-10.000000
0.310000	13.460000	82.490000	51.000000	1.000000	140.000000	66.000000	0.000000	0.000000
0.320000	13.460000	82.490000	107.000000	0.000000	140.000000	66.000000	0.000000	0.000000
0.330000	13.460000	82.490000	176.000000	0.000000	138.000000	65.000000	0.000000	0.000000
0.340000	13.270000	82.170000	277.000000	0.000000	137.000000	65.000000	-19.000000	-32.000000
0.350000	13.270000	82.060000	349.000000	0.000000	137.000000	65.000000	0.000000	-11.000000
0.360000	13.220000	81.900000	399.000000	0.000000	135.000000	64.000000	-5.000000	-16.000000
0.370000	13.220000	81.720000	453.000000	0.000000	135.000000	64.000000	0.000000	-18.000000
0.380000	13.120000	81.450000	516.000000	0.000000	135.000000	64.000000	-10.000000	-27.000000
0.390000	13.030000	81.080000	563.000000	0.000000	132.000000	64.000000	-9.000000	-37.000000
0.400000	12.940000	80.680000	588.000000	0.000000	132.000000	64.000000	-9.000000	-40.000000
0.410000	12.870000	80.300000	614.000000	0.000000	132.000000	64.000000	-7.000000	-38.000000
0.420000	12.790000	79.920000	641.000000	0.000000	132.000000	64.000000	-8.000000	-38.000000
0.430000	12.690000	79.500000	666.000000	0.000000	130.000000	63.000000	-10.000000	-42.000000
0.440000	12.590000	79.080000	690.000000	0.000000	130.000000	63.000000	-10.000000	-42.000000
0.450000	12.540000	78.640000	720.000000	0.000000	130.000000	63.000000	-5.000000	-44.000000
0.460000	12.470000	78.230000	740.000000	0.000000	130.000000	63.000000	-7.000000	-41.000000
0.470000	12.410000	77.860000	758.000000	0.000000	130.000000	63.000000	-6.000000	-37.000000
0.480000	12.340000	77.510000	767.000000	0.000000	130.000000	63.000000	-7.000000	-35.000000
0.490000	12.260000	77.160000	773.000000	0.000000	130.000000	63.000000	-8.000000	-35.000000
0.500000	12.170000	76.910000	777.000000	0.000000	129.000000	63.000000	-9.000000	-25.000000
0.510000	12.170000	76.740000	780.000000	0.000000	129.000000	63.000000	0.000000	-17.000000
0.520000	12.120000	76.630000	787.000000	0.000000	129.000000	63.000000	-5.000000	-11.000000
0.530000	12.120000	76.500000	790.000000	0.000000	129.000000	63.000000	0.000000	-13.000000
0.540000	12.070000	76.450000	794.000000	0.000000	129.000000	63.000000	-5.000000	-5.000000
0.550000	12.070000	76.450000	796.000000	0.000000	129.000000	63.000000	0.000000	0.000000
0.560000	12.070000	76.450000	796.000000	0.000000	127.000000	62.000000	0.000000	0.000000
0.570000	12.070000	76.500000	777.000000	0.000000	127.000000	62.000000	0.000000	5.000000
0.580000	12.070000	76.500000	724.000000	0.000000	127.000000	62.000000	0.000000	0.000000
0.590000	12.070000	76.500000	608.000000	0.000000	127.000000	62.000000	0.000000	0.000000
0.600000	12.070000	76.500000	391.000000	0.000000	127.000000	62.000000	0.000000	0.000000
0.610000	12.140000	76.560000	1.000000	1.000000	129.000000	63.000000	0.000000	0.000000
0.620000	12.140000	76.560000	0.000000	0.000000	127.000000	63.000000	0.000000	0.000000
0.630000	12.290000	76.850000	0.000000	0.000000	127.000000	63.000000	15.000000	29.000000
0.640000	12.390000	77.040000	0.000000	0.000000	127.000000	63.000000	10.000000	19.000000
0.650000	12.450000	77.170000	0.000000	0.000000	129.000000	64.000000	6.000000	13.000000
0.660000	12.450000	77.310000	0.000000	0.000000	130.000000	63.000000	0.000000	14.000000
0.670000	12.510000	77.430000	0.000000	0.000000	130.000000	63.000000	6.000000	12.000000
0.680000	12.510000	77.530000	0.000000	0.000000	130.000000	63.000000	0.000000	10.000000
0.690000	12.510000	77.600000	0.000000	0.000000	130.000000	63.000000	0.000000	7.000000
0.700000	12.450000	77.650000	0.000000	0.000000	130.000000	63.000000	-6.000000	5.000000
0.710000	12.400000	77.650000	0.000000	0.000000	130.000000	63.000000	-5.000000	0.000000
0.720000	12.400000	77.650000	120.000000	1.000000	130.000000	63.000000	0.000000	0.000000
0.730000	12.400000	77.650000	200.000000	0.000000	130.000000	63.000000	0.000000	0.000000
0.740000	12.400000	77.650000	284.000000	0.000000	129.000000	64.000000	0.000000	0.000000
0.750000	12.400000	77.650000	359.000000	0.000000	129.000000	64.000000	0.000000	0.000000
0.760000	12.400000	77.650000	405.000000	0.000000	129.000000	64.000000	0.000000	0.000000
0.770000	12.400000	77.650000	446.000000	0.000000	129.000000	64.000000	0.000000	0.000000
0.780000	12.400000	77.650000	467.000000	0.000000	129.000000	64.000000	0.000000	0.000000
0.790000	12.400000	77.650000	490.000000	0.000000	129.000000	64.000000	0.000000	0.000000
0.800000	12.500000	77.900000	519.000000	0.000000	129.000000	64.000000	10.000000	25.000000
0.810000	12.660000	78.040000	543.000000	0.000000	129.000000	64.000000	16.000000	14.000000
0.820000	12.850000	78.210000	566.000000	0.000000	129.000000	64.000000	19.000000	17.000000
0.830000	13.070000	78.410000	602.000000	0.000000	127.000000	63.000000	22.000000	20.000000
0.840000	13.300000	78.600000	610.000000	0.000000	127.000000	63.000000	23.000000	19.000000
0.850000	13.490000	78.750000	622.000000	0.000000	130.000000	63.000000	19.000000	15.000000
0.860000	13.670000	78.860000	624.000000	0.000000	130.000000	63.000000	18.000000	11.000000
0.870000	13.770000	78.960000	622.000000	0.000000	132.000000	63.000000	10.000000	10.000000
0.880000	13.770000	78.960000	622.000000	0.000000	132.000000	63.000000	0.000000	0.000000
0.890000	13.770000	78.960000	606.000000	0.000000	133.000000	62.000000	0.000000	0.000000
0.900000	13.770000	78.960000	538.000000	0.000000	133.000000	62.000000	0.000000	0.000000
0.910000	13.770000	78.960000	334.000000	0.000000	133.000000	62.000000	0.000000	0.000000
0.920000	13.770000	78.960000	0.000000	1.000000	135.000000	62.000000	0.000000	0.000000
0.930000	13.880000	79.030000	0.000000	0.000000	135.000000	62.000000	11.000000	7.000000
0.940000	13.990000	79.130000	0.000000	0.000000	135.000000	63.000000	11.000000	10.000000
0.950000	14.090000	79.230000	0.000000	0.000000	135.000000	63.000000	10.000000	10.000000
0.960000	14.160000	79.360000	0.000000	0.000000	133.000000	63.000000	7.000000	13.000000
0.970000	14.210000	79.520000	0.000000	0.000000	133.000000	65.000000	5.000000	16.000000
0.980000	14.320000	79.700000	0.000000	0.000000	130.000000	66.000000	11.000000	18.000000
0.990000	14.460000	79.870000	0.000000	0.000000	130.000000	67.000000	14.000000	17.000000
1.000000	14.670000	80.020000	0.000000	0.000000	128.000000	68.000000	21.000000	15.000000
1.010000	14.890000	80.190000	0.000000	0.000000	125.000000	70.000000	22.000000	17.000000
1.020000	15.090000	80.290000	0.000000	0.000000	124.000000	71.000000	20.000000	10.000000
1.030000	15.260000	80.290000	0.000000	0.000000	122.000000	71.000000	17.000000	0.000000
1.040000	15.430000	80.370000	0.000000	0.000000	121.000000	73.000000	17.000000	8.000000
1.050000	15.610000	80.370000	0.000000	0.000000	121.000000	73.000000	18.000000	0.000000
1.060000	15.770000	80.370000	0.000000	0.000000	118.000000	73.000000	16.000000	0.000000
1.070000	15.920000	80.370000	0.000000	0.000000	116.000000	72.000000	15.000000	0.000000
1.080000	16.000000	80.370000	0.000000	0.000000	112.000000	72.000000	8.000000	0.000000
1.090000	16.000000	80.370000	0.000000	0.000000	110.000000	70.000000	0.000000	0.000000
1.100000	16.120000	80.370000	0.000000	0.000000	105.000000	68.000000	12.000000	0.000000
1.110000	16.180000	80.290000	0.000000	0.000000	103.000000	65.000000	6.000000	-8.000000
1.120000	16.180000	80.290000	0.000000	0.000000	102.000000	63.000000	0.000000	0.000000
1.130000	16.180000	80.290000	0.000000	0.000000	99.000000	62.000000	0.000000	0.000000
1.140000	16.180000	80.290000	0.000000	0.000000	98.000000	59.000000	0.000000	0.000000
1.150000	16.020000	80.000000	0.000000	0.000000	98.000000	58.000000	-16.000000	-29.000000
1.160000	16.020000	79.930000	0.000000	0.000000	98.000000	57.000000	0.000000	-7.000000
1.170000	15.930000	79.880000	0.000000	0.000000	97.000000	56.000000	-9.000000	-5.000000
1.180000	15.930000	79.880000	0.000000	0.000000	97.000000	56.000000	0.000000	0.000000
1.190000	16.030000	79.880000	0.000000	0.000000	97.000000	56.000000	10.000000	0.000000
1.200000	16.080000	79.970000	0.000000	0.000000	97.000000	56.000000	5.000000	9.000000
1.210000	16.170000	80.040000	0.000000	0.000000	97.000000	56.000000	9.000000	7.000000
1.220000	16.260000	80.110000	0.000000	0.000000	97.000000	56.000000	9.000000	7.000000
1.230000	16.370000	80.170000	0.000000	0.000000	97.000000	56.000000	11.000000	6.000000
1.240000	16.430000	80.230000	0.000000	0.000000	97.000000	56.000000	6.000000	6.000000
1.250000	16.480000	80.280000	0.000000	0.000000	97.000000	56.000000	5.000000	5.000000
1.260000	16.570000	80.340000	0.000000	0.000000	97.000000	56.000000	9.000000	6.000000
1.270000	16.650000	80.420000	0.000000	0.000000	97.000000	56.000000	8.000000	8.000000
1.280000	16.710000	80.500000	0.000000	0.000000	97.000000	56.000000	6.000000	8.000000
1.290000	16.710000	80.570000	0.000000	0.000000	97.000000	56.000000	0.000000	7.000000
1.300000	16.710000	80.630000	0.000000	0.000000	97.000000	56.000000	0.000000	6.000000
1.310000	16.710000	80.630000	0.000000	0.000000	97.000000	56.000000	0.000000	0.000000
1.320000	16.710000	80.630000	0.000000	0.000000	99.000000	56.000000	0.000000	0.000000
1.330000	16.710000	80.630000	0.000000	0.000000	99.000000	56.000000	0.000000	0.000000
1.340000	16.710000	80.630000	0.000000	0.000000	99.000000	57.000000	0.000000	0.000000
1.350000	16.710000	80.630000	0.000000	0.000000	99.000000	57.000000	0.000000	0.000000
1.360000	16.710000	80.630000	0.000000	0.000000	99.000000	57.000000	0.000000	0.000000
1.370000	16.420000	80.850000	0.000000	0.000000	101.000000	57.000000	-29.000000	22.000000
1.380000	16.420000	80.850000	0.000000	0.000000	101.000000	57.000000	0.000000	0.000000
1.390000	16.350000	80.850000	0.000000	0.000000	101.000000	58.000000	-7.000000	0.000000
1.400000	16.300000	80.930000	0.000000	0.000000	101.000000	58.000000	-5.000000	8.000000
1.410000	16.240000	80.990000	0.000000	0.000000	103.000000	57.000000	-6.000000	6.000000
1.420000	16.240000	81.040000	0.000000	0.000000	103.000000	57.000000	0.000000	5.000000
1.430000	16.290000	81.110000	0.000000	0.000000	103.000000	57.000000	5.000000	7.000000
1.440000	16.290000	81.200000	0.000000	0.000000	103.000000	58.000000	0.000000	9.000000
1.450000	16.290000	81.290000	0.000000	0.000000	105.000000	58.000000	0.000000	9.000000
1.460000	16.290000	81.360000	0.000000	0.000000	105.000000	58.000000	0.000000	7.000000
1.470000	16.290000	81.420000	0.000000	0.000000	106.000000	58.000000	0.000000	6.000000
1.480000	16.340000	81.510000	0.000000	0.000000	107.000000	59.000000	5.000000	9.000000
1.490000	16.400000	81.580000	0.000000	0.000000	109.000000	59.000000	6.000000	7.000000
1.500000	16.460000	81.580000	0.000000	0.000000	109.000000	59.000000	6.000000	0.000000
1.510000	16.460000	81.580000	0.000000	0.000000	109.000000	60.000000	0.000000	0.000000
1.520000	16.460000	81.500000	0.000000	0.000000	111.000000	59.000000	0.000000	-8.000000
1.530000	16.460000	81.430000	0.000000	0.000000	111.000000	59.000000	0.000000	-7.000000
1.540000	16.520000	81.330000	0.000000	0.000000	112.000000	60.000000	6.000000	-10.000000
1.550000	16.630000	81.210000	0.000000	0.000000	112.000000	60.000000	11.000000	-12.000000
1.560000	16.750000	81.120000	0.000000	0.000000	113.000000	60.000000	12.000000	-9.000000
1.570000	16.860000	81.060000	0.000000	0.000000	113.000000	61.000000	11.000000	-6.000000
1.580000	16.970000	80.980000	0.000000	0.000000	113.000000	61.000000	11.000000	-8.000000
1.590000	16.970000	80.900000	0.000000	0.000000	114.000000	62.000000	0.000000	-8.000000
1.600000	16.970000	80.810000	0.000000	0.000000	114.000000	62.000000	0.000000	-9.000000
1.610000	16.970000	80.730000	0.000000	0.000000	114.000000	62.000000	0.000000	-8.000000
1.620000	16.920000	80.730000	0.000000	0.000000	116.000000	63.000000	-5.000000	0.000000
1.630000	16.920000	80.730000	0.000000	0.000000	116.000000	63.000000	0.000000	0.000000
1.640000	16.920000	80.730000	0.000000	0.000000	116.000000	63.000000	0.000000	0.000000
1.650000	16.860000	80.800000	0.000000	0.000000	116.000000	63.000000	-6.000000	7.000000
1.660000	16.860000	80.800000	0.000000	0.000000	117.000000	63.000000	0.000000	0.000000
1.670000	16.800000	80.870000	0.000000	0.000000	119.000000	63.000000	-6.000000	7.000000
1.680000	16.730000	80.870000	0.000000	0.000000	119.000000	63.000000	-7.000000	0.000000
1.690000	16.670000	80.820000	0.000000	0.000000	119.000000	63.000000	-6.000000	-5.000000
1.700000	16.580000	80.820000	0.000000	0.000000	119.000000	63.000000	-9.000000	0.000000
1.710000	16.470000	80.710000	0.000000	0.000000	120.000000	64.000000	-11.000000	-11.000000
1.720000	16.360000	80.590000	0.000000	0.000000	120.000000	64.000000	-11.000000	-12.000000
1.730000	16.270000	80.490000	0.000000	0.000000	120.000000	64.000000	-9.000000	-10.000000
1.740000	16.190000	80.420000	0.000000	0.000000	122.000000	65.000000	-8.000000	-7.000000
1.750000	16.120000	80.360000	0.000000	0.000000	123.000000	65.000000	-7.000000	-6.000000
1.760000	16.040000	80.290000	0.000000	0.000000	126.000000	67.000000	-8.000000	-7.000000
1.770000	15.980000	80.210000	0.000000	0.000000	128.000000	68.000000	-6.000000	-8.000000
1.780000	15.850000	80.080000	0.000000	0.000000	133.000000	69.000000	-13.000000	-13.000000
1.790000	15.690000	79.920000	0.000000	0.000000	135.000000	69.000000	-16.000000	-16.000000
1.800000	15.470000	79.710000	0.000000	0.000000	137.000000	70.000000	-22.000000	-21.000000
1.810000	15.260000	79.500000	0.000000	0.000000	139.000000	71.000000	-21.000000	-21.000000
1.820000	15.050000	79.370000	0.000000	0.000000	139.000000	71.000000	-21.000000	-13.000000
1.830000	15.050000	79.370000	0.000000	0.000000	139.000000	71.000000	0.000000	0.000000
1.840000	15.050000	79.370000	0.000000	0.000000	137.000000	71.000000	0.000000	0.000000
1.850000	15.050000	79.370000	0.000000	0.000000	135.000000	71.000000	0.000000	0.000000
1.860000	15.050000	79.370000	0.000000	0.000000	135.000000	71.000000	0.000000	0.000000
1.870000	15.050000	79.370000	0.000000	0.000000	135.000000	71.000000	0.000000	0.000000
1.880000	15.050000	79.370000	0.000000	0.000000	133.000000	70.000000	0.000000	0.000000
1.890000	15.050000	79.370000	0.000000	0.000000	133.000000	70.000000	0.000000	0.000000
1.900000	15.050000	79.370000	0.000000	0.000000	133.000000	70.000000	0.000000	0.000000
1.910000	15.050000	79.370000	0.000000	0.000000	133.000000	70.000000	0.000000	0.000000
1.920000	15.140000	79.650000	0.000000	0.000000	133.000000	70.000000	9.000000	28.000000
1.930000	15.260000	79.780000	0.000000	0.000000	133.000000	70.000000	12.000000	13.000000
1.940000	15.400000	79.910000	0.000000	0.000000	133.000000	70.000000	14.000000	13.000000
1.950000	15.550000	80.090000	0.000000	0.000000	135.000000	71.000000	15.000000	18.000000
1.960000	15.690000	80.310000	0.000000	0.000000	135.000000	71.000000	14.000000	22.000000
1.970000	15.830000	80.440000	0.000000	0.000000	137.000000	70.000000	14.000000	13.000000
1.980000	15.930000	80.640000	0.000000	0.000000	139.000000	71.000000	10.000000	20.000000
1.990000	16.000000	80.750000	0.000000	0.000000	139.000000	71.000000	7.000000	11.000000
2.000000	16.000000	80.750000	103.000000	1.000000	141.000000	70.000000	0.000000	0.000000
2.010000	16.000000	80.750000	175.000000	0.000000	141.000000	70.000000	0.000000	0.000000
2.020000	16.000000	80.750000	252.000000	0.000000	141.000000	70.000000	0.000000	0.000000
2.030000	15.720000	80.890000	348.000000	0.000000	143.000000	69.000000	-28.000000	14.000000
2.040000	15.570000	80.820000	404.000000	0.000000	143.000000	69.000000	-15.000000	-7.000000
2.050000	15.380000	80.680000	448.000000	0.000000	143.000000	69.000000	-19.000000	-14.000000
2.060000	15.180000	80.460000	475.000000	0.000000	145.000000	68.000000	-20.000000	-22.000000
2.070000	14.970000	80.180000	514.000000	0.000000	142.000000	68.000000	-21.000000	-28.000000
2.080000	14.750000	79.870000	524.000000	0.000000	142.000000	68.000000	-22.000000	-31.000000
2.090000	14.600000	79.550000	544.000000	0.000000	140.000000	67.000000	-15.000000	-32.000000
2.100000	14.480000	79.200000	550.000000	0.000000	140.000000	67.000000	-12.000000	-35.000000
2.110000	14.430000	78.850000	567.000000	0.000000	139.000000	67.000000	-5.000000	-35.000000
2.120000	14.430000	78.560000	566.000000	0.000000	139.000000	67.000000	0.000000	-29.000000
2.130000	14.540000	78.320000	580.000000	0.000000	139.000000	67.000000	11.000000	-24.000000
2.140000	14.710000	78.180000	589.000000	0.000000	137.000000	66.000000	17.000000	-14.000000
2.150000	14.970000	78.130000	611.000000	0.000000	137.000000	66.000000	26.000000	-5.000000
2.160000	15.290000	78.130000	614.000000	0.000000	138.000000	65.000000	32.000000	0.000000
2.170000	15.690000	78.340000	611.000000	0.000000	138.000000	65.000000	40.000000	21.000000
2.180000	16.120000	78.590000	613.000000	0.000000	138.000000	65.000000	43.000000	25.000000
2.190000	16.550000	78.870000	611.000000	0.000000	142.000000	65.000000	43.000000	28.000000
2.200000	16.900000	79.120000	610.000000	0.000000	142.000000	65.000000	35.000000	25.000000
2.210000	17.160000	79.360000	617.000000	0.000000	142.000000	65.000000	26.000000	24.000000
2.220000	17.360000	79.590000	610.000000	0.000000	142.000000	65.000000	20.000000	23.000000
2.230000	17.520000	79.780000	617.000000	0.000000	142.000000	65.000000	16.000000	19.000000
2.240000	17.580000	79.920000	638.000000	0.000000	140.000000	66.000000	6.000000	14.000000
2.250000	17.580000	80.020000	642.000000	0.000000	140.000000	66.000000	0.000000	10.000000
