t	x	y	pressure	penup	azimuth	inclination	v_x	v_y
0.000000	54.020000	47.780000	70.000000	1.000000	180.000000	69.000000	0.000000	0.000000
0.010000	54.020000	47.780000	139.000000	0.000000	180.000000	69.000000	0.000000	0.000000
0.020000	54.070000	48.140000	215.000000	0.000000	180.000000	69.000000	5.000000	36.000000
0.030000	54.070000	48.300000	307.000000	0.000000	180.000000	69.000000	0.000000	16.000000
0.040000	54.070000	48.470000	388.000000	0.000000	180.000000	68.000000	0.000000	17.000000
0.050000	54.130000	48.470000	448.000000	0.000000	180.000000	68.000000	6.000000	0.000000
0.060000	54.130000	48.470000	498.000000	0.000000	180.000000	69.000000	0.000000	0.000000
0.070000	54.130000	48.470000	546.000000	0.000000	180.000000	69.000000	0.000000	0.000000
0.080000	54.240000	48.260000	591.000000	0.000000	180.000000	69.000000	11.000000	-21.000000
0.090000	54.350000	47.890000	644.000000	0.000000	180.000000	69.000000	11.000000	-37.000000
0.100000	54.480000	47.290000	691.000000	0.000000	180.000000	69.000000	13.000000	-60.000000
0.110000	54.660000	46.490000	725.000000	0.000000	180.000000	69.000000	18.000000	-80.000000
0.120000	54.890000	45.560000	754.000000	0.000000	180.000000	69.000000	23.000000	-93.000000
0.130000	55.130000	44.570000	776.000000	0.000000	180.000000	69.000000	24.000000	-99.000000
0.140000	55.380000	43.640000	822.000000	0.000000	180.000000	70.000000	25.000000	-93.000000
0.150000	55.750000	42.740000	851.000000	0.000000	180.000000	70.000000	37.000000	-90.000000
0.160000	56.160000	42.680000	878.000000	0.000000	180.000000	71.000000	41.000000	-6.000000
0.170000	56.160000	42.680000	903.000000	0.000000	183.000000	71.000000	0.000000	0.000000
0.180000	56.160000	42.680000	908.000000	0.000000	183.000000	71.000000	0.000000	0.000000
0.190000	56.230000	43.010000	906.000000	0.000000	183.000000	71.000000	7.000000	33.000000
0.200000	56.290000	43.750000	860.000000	0.000000	183.000000	71.000000	6.000000	74.000000
0.210000	56.240000	44.770000	799.000000	0.000000	183.000000	71.000000	-5.000000	102.000000
0.220000	55.880000	46.110000	759.000000	0.000000	183.000000	71.000000	-36.000000	134.000000
0.230000	55.360000	47.410000	776.000000	0.000000	183.000000	71.000000	-52.000000	130.000000
0.240000	54.830000	48.690000	780.000000	0.000000	183.000000	70.000000	-53.000000	128.000000
0.250000	54.400000	49.370000	787.000000	0.000000	183.000000	70.000000	-43.000000	68.000000
0.260000	54.040000	49.770000	797.000000	0.000000	183.000000	69.000000	-36.000000	40.000000
0.270000	53.780000	49.990000	799.000000	0.000000	182.000000	68.000000	-26.000000	22.000000
0.280000	53.700000	49.990000	802.000000	0.000000	182.000000	67.000000	-8.000000	0.000000
0.290000	53.750000	49.990000	803.000000	0.000000	182.000000	66.000000	5.000000	0.000000
0.300000	53.750000	49.990000	809.000000	0.000000	182.000000	66.000000	0.000000	0.000000
0.310000	53.860000	49.940000	821.000000	0.000000	182.000000	65.000000	11.000000	-5.000000
0.320000	54.000000	49.800000	854.000000	0.000000	182.000000	65.000000	14.000000	-14.000000
0.330000	54.250000	49.600000	887.000000	0.000000	182.000000	65.000000	25.000000	-20.000000
0.340000	54.620000	49.420000	903.000000	0.000000	182.000000	65.000000	37.000000	-18.000000
0.350000	55.070000	49.420000	947.000000	0.000000	182.000000	65.000000	45.000000	0.000000
0.360000	55.700000	49.500000	956.000000	0.000000	182.000000	65.000000	63.000000	8.000000
0.370000	56.360000	49.700000	964.000000	0.000000	182.000000	65.000000	66.000000	20.000000
0.380000	57.030000	49.960000	956.000000	0.000000	182.000000	65.000000	67.000000	26.000000
0.390000	57.670000	50.270000	935.000000	0.000000	182.000000	65.000000	64.000000	31.000000
0.400000	58.040000	50.390000	860.000000	0.000000	184.000000	65.000000	37.000000	12.000000
0.410000	58.230000	50.460000	676.000000	0.000000	184.000000	65.000000	19.000000	7.000000
0.420000	58.150000	50.460000	242.000000	0.000000	186.000000	65.000000	-8.000000	0.000000
0.430000	58.150000	50.460000	0.000000	1.000000	186.000000	65.000000	0.000000	0.000000
0.440000	57.740000	50.180000	0.000000	0.000000	186.000000	65.000000	-41.000000	-28.000000
0.450000	57.330000	50.040000	0.000000	0.000000	189.000000	65.000000	-41.000000	-14.000000
0.460000	57.080000	49.940000	0.000000	0.000000	189.000000	65.000000	-25.000000	-10.000000
0.470000	56.930000	49.760000	0.000000	0.000000	189.000000	66.000000	-15.000000	-18.000000
0.480000	56.800000	49.540000	0.000000	0.000000	189.000000	66.000000	-13.000000	-22.000000
0.490000	56.640000	49.170000	0.000000	0.000000	189.000000	66.000000	-16.000000	-37.000000
0.500000	56.460000	48.710000	0.000000	0.000000	189.000000	67.000000	-18.000000	-46.000000
0.510000	56.160000	48.270000	0.000000	0.000000	190.000000	68.000000	-30.000000	-44.000000
0.520000	55.840000	47.830000	0.000000	0.000000	187.000000	68.000000	-32.000000	-44.000000
0.530000	55.510000	47.440000	0.000000	0.000000	188.000000	69.000000	-33.000000	-39.000000
0.540000	55.250000	47.100000	0.000000	0.000000	188.000000	69.000000	-26.000000	-34.000000
0.550000	55.250000	47.100000	198.000000	1.000000	185.000000	69.000000	0.000000	0.000000
0.560000	55.020000	46.680000	334.000000	0.000000	185.000000	69.000000	-23.000000	-42.000000
0.570000	55.020000	46.680000	402.000000	0.000000	183.000000	69.000000	0.000000	0.000000
0.580000	55.070000	46.680000	578.000000	0.000000	183.000000	69.000000	5.000000	0.000000
0.590000	55.230000	46.680000	690.000000	0.000000	183.000000	70.000000	16.000000	0.000000
0.600000	55.500000	46.680000	790.000000	0.000000	183.000000	70.000000	27.000000	0.000000
0.610000	55.930000	46.780000	822.000000	0.000000	183.000000	70.000000	43.000000	10.000000
0.620000	56.460000	46.950000	845.000000	0.000000	183.000000	70.000000	53.000000	17.000000
0.630000	56.750000	47.000000	829.000000	0.000000	183.000000	70.000000	29.000000	5.000000
0.640000	56.970000	47.050000	767.000000	0.000000	183.000000	70.000000	22.000000	5.000000
0.650000	57.080000	47.050000	592.000000	0.000000	183.000000	70.000000	11.000000	0.000000
0.660000	57.080000	47.110000	68.000000	0.000000	183.000000	70.000000	0.000000	6.000000
0.670000	57.080000	47.110000	0.000000	1.000000	183.000000	70.000000	0.000000	0.000000
0.680000	56.950000	47.210000	0.000000	0.000000	183.000000	70.000000	-13.000000	10.000000
0.690000	56.950000	47.210000	0.000000	0.000000	183.000000	70.000000	0.000000	0.000000
0.700000	56.890000	47.480000	0.000000	0.000000	185.000000	69.000000	-6.000000	27.000000
0.710000	56.940000	47.550000	0.000000	0.000000	185.000000	69.000000	5.000000	7.000000
0.720000	57.170000	47.550000	0.000000	0.000000	187.000000	68.000000	23.000000	0.000000
0.730000	57.520000	47.550000	0.000000	0.000000	187.000000	67.000000	35.000000	0.000000
0.740000	57.860000	47.400000	0.000000	0.000000	189.000000	66.000000	34.000000	-15.000000
0.750000	58.200000	47.210000	0.000000	0.000000	189.000000	65.000000	34.000000	-19.000000
0.760000	58.490000	47.020000	0.000000	0.000000	188.000000	64.000000	29.000000	-19.000000
0.770000	58.740000	46.820000	0.000000	0.000000	188.000000	64.000000	25.000000	-20.000000
0.780000	58.990000	46.640000	0.000000	0.000000	186.000000	64.000000	25.000000	-18.000000
0.790000	59.240000	46.470000	0.000000	0.000000	184.000000	63.000000	25.000000	-17.000000
0.800000	59.490000	46.320000	0.000000	0.000000	182.000000	64.000000	25.000000	-15.000000
0.810000	59.730000	46.180000	0.000000	0.000000	182.000000	64.000000	24.000000	-14.000000
0.820000	59.970000	46.090000	0.000000	0.000000	180.000000	64.000000	24.000000	-9.000000
0.830000	60.180000	45.990000	0.000000	0.000000	180.000000	65.000000	21.000000	-10.000000
0.840000	60.310000	45.940000	0.000000	0.000000	180.000000	65.000000	13.000000	-5.000000
0.850000	60.400000	45.940000	0.000000	0.000000	180.000000	66.000000	9.000000	0.000000
0.860000	60.400000	45.940000	0.000000	0.000000	180.000000	66.000000	0.000000	0.000000
0.870000	60.240000	45.940000	0.000000	0.000000	180.000000	66.000000	-16.000000	0.000000
0.880000	60.030000	46.020000	0.000000	0.000000	180.000000	66.000000	-21.000000	8.000000
0.890000	59.840000	46.120000	0.000000	0.000000	180.000000	66.000000	-19.000000	10.000000
0.900000	59.660000	46.180000	0.000000	0.000000	180.000000	65.000000	-18.000000	6.000000
0.910000	59.500000	46.180000	0.000000	0.000000	180.000000	65.000000	-16.000000	0.000000
0.920000	59.360000	46.180000	0.000000	0.000000	180.000000	65.000000	-14.000000	0.000000
0.930000	59.240000	46.180000	0.000000	0.000000	180.000000	65.000000	-12.000000	0.000000
0.940000	59.140000	46.100000	0.000000	0.000000	180.000000	65.000000	-10.000000	-8.000000
0.950000	59.070000	46.100000	0.000000	0.000000	178.000000	65.000000	-7.000000	0.000000
0.960000	59.070000	46.100000	0.000000	0.000000	178.000000	66.000000	0.000000	0.000000
0.970000	59.020000	46.100000	0.000000	0.000000	178.000000	66.000000	-5.000000	0.000000
0.980000	59.020000	46.170000	0.000000	0.000000	178.000000	66.000000	0.000000	7.000000
0.990000	58.970000	46.170000	0.000000	0.000000	178.000000	66.000000	-5.000000	0.000000
1.000000	58.970000	46.170000	0.000000	0.000000	178.000000	66.000000	0.000000	0.000000
1.010000	58.880000	46.220000	0.000000	0.000000	178.000000	66.000000	-9.000000	5.000000
1.020000	58.880000	46.220000	0.000000	0.000000	178.000000	66.000000	0.000000	0.000000
1.030000	58.800000	46.220000	0.000000	0.000000	178.000000	66.000000	-8.000000	0.000000
1.040000	58.750000	46.220000	0.000000	0.000000	178.000000	66.000000	-5.000000	0.000000
1.050000	58.750000	46.160000	0.000000	0.000000	178.000000	66.000000	0.000000	-6.000000
1.060000	58.750000	46.160000	0.000000	0.000000	178.000000	66.000000	0.000000	0.000000
1.070000	58.750000	46.160000	0.000000	0.000000	178.000000	66.000000	0.000000	0.000000
1.080000	58.750000	46.160000	0.000000	0.000000	178.000000	66.000000	0.000000	0.000000
1.090000	58.820000	46.160000	0.000000	0.000000	180.000000	67.000000	7.000000	0.000000
1.100000	58.820000	46.160000	0.000000	0.000000	180.000000	67.000000	0.000000	0.000000
1.110000	58.820000	46.160000	0.000000	0.000000	180.000000	67.000000	0.000000	0.000000
1.120000	58.820000	46.160000	0.000000	0.000000	180.000000	67.000000	0.000000	0.000000
1.130000	58.770000	46.160000	0.000000	0.000000	180.000000	67.000000	-5.000000	0.000000
1.140000	58.770000	46.160000	0.000000	0.000000	180.000000	67.000000	0.000000	0.000000
1.150000	58.770000	46.160000	0.000000	0.000000	180.000000	67.000000	0.000000	0.000000
1.160000	58.770000	46.160000	0.000000	0.000000	180.000000	67.000000	0.000000	0.000000
1.170000	58.840000	46.230000	0.000000	0.000000	180.000000	66.000000	7.000000	7.000000
1.180000	58.840000	46.230000	0.000000	0.000000	180.000000	66.000000	0.000000	0.000000
1.190000	58.840000	46.230000	0.000000	0.000000	180.000000	66.000000	0.000000	0.000000
1.200000	58.840000	46.230000	0.000000	0.000000	180.000000	66.000000	0.000000	0.000000
1.210000	58.840000	46.230000	0.000000	0.000000	180.000000	66.000000	0.000000	0.000000
1.220000	58.840000	46.230000	0.000000	0.000000	180.000000	66.000000	0.000000	0.000000
1.230000	58.840000	46.230000	0.000000	0.000000	180.000000	66.000000	0.000000	0.000000
1.240000	58.760000	46.230000	0.000000	0.000000	180.000000	66.000000	-8.000000	0.000000
1.250000	58.760000	46.230000	0.000000	0.000000	180.000000	66.000000	0.000000	0.000000
1.260000	58.760000	46.280000	0.000000	0.000000	180.000000	66.000000	0.000000	5.000000
1.270000	58.760000	46.280000	0.000000	0.000000	180.000000	66.000000	0.000000	0.000000
1.280000	58.760000	46.280000	0.000000	0.000000	180.000000	66.000000	0.000000	0.000000
1.290000	58.760000	46.280000	0.000000	0.000000	180.000000	66.000000	0.000000	0.000000
1.300000	58.760000	46.340000	0.000000	0.000000	180.000000	66.000000	0.000000	6.000000
1.310000	58.760000	46.340000	0.000000	0.000000	180.000000	66.000000	0.000000	0.000000
1.320000	58.760000	46.410000	0.000000	0.000000	180.000000	66.000000	0.000000	7.000000
1.330000	58.760000	46.410000	0.000000	0.000000	180.000000	67.000000	0.000000	0.000000
1.340000	58.760000	46.490000	0.000000	0.000000	180.000000	67.000000	0.000000	8.000000
1.350000	58.850000	46.490000	0.000000	0.000000	180.000000	67.000000	9.000000	0.000000
1.360000	58.970000	46.490000	0.000000	0.000000	180.000000	67.000000	12.000000	0.000000
1.370000	59.110000	46.540000	0.000000	0.000000	180.000000	67.000000	14.000000	5.000000
1.380000	59.110000	46.540000	103.000000	1.000000	180.000000	68.000000	0.000000	0.000000
1.390000	59.400000	46.540000	353.000000	0.000000	180.000000	68.000000	29.000000	0.000000
1.400000	59.400000	46.590000	412.000000	0.000000	180.000000	68.000000	0.000000	5.000000
1.410000	59.400000	46.640000	512.000000	0.000000	183.000000	69.000000	0.000000	5.000000
1.420000	59.400000	46.640000	570.000000	0.000000	183.000000	69.000000	0.000000	0.000000
1.430000	59.400000	46.700000	591.000000	0.000000	185.000000	70.000000	0.000000	6.000000
1.440000	59.250000	46.700000	585.000000	0.000000	185.000000	70.000000	-15.000000	0.000000
1.450000	59.080000	46.700000	600.000000	0.000000	185.000000	70.000000	-17.000000	0.000000
1.460000	58.830000	46.620000	620.000000	0.000000	188.000000	70.000000	-25.000000	-8.000000
1.470000	58.520000	46.390000	663.000000	0.000000	188.000000	70.000000	-31.000000	-23.000000
1.480000	58.130000	46.060000	707.000000	0.000000	185.000000	70.000000	-39.000000	-33.000000
1.490000	57.890000	45.790000	755.000000	0.000000	185.000000	70.000000	-24.000000	-27.000000
1.500000	57.750000	45.510000	787.000000	0.000000	185.000000	70.000000	-14.000000	-28.000000
1.510000	57.750000	45.240000	830.000000	0.000000	185.000000	70.000000	0.000000	-27.000000
1.520000	57.900000	45.050000	867.000000	0.000000	183.000000	70.000000	15.000000	-19.000000
1.530000	58.080000	44.890000	890.000000	0.000000	183.000000	70.000000	18.000000	-16.000000
1.540000	58.510000	44.760000	896.000000	0.000000	183.000000	70.000000	43.000000	-13.000000
1.550000	59.060000	44.810000	878.000000	0.000000	183.000000	70.000000	55.000000	5.000000
1.560000	59.700000	44.980000	827.000000	0.000000	183.000000	70.000000	64.000000	17.000000
1.570000	60.290000	45.240000	700.000000	0.000000	183.000000	70.000000	59.000000	26.000000
1.580000	60.890000	45.550000	405.000000	0.000000	185.000000	70.000000	60.000000	31.000000
1.590000	61.490000	45.900000	61.000000	0.000000	185.000000	70.000000	60.000000	35.000000
1.600000	61.490000	45.900000	0.000000	1.000000	188.000000	70.000000	0.000000	0.000000
1.610000	62.200000	46.540000	0.000000	0.000000	188.000000	70.000000	71.000000	64.000000
1.620000	62.250000	46.810000	0.000000	0.000000	191.000000	70.000000	5.000000	27.000000
1.630000	62.250000	46.810000	132.000000	1.000000	194.000000	69.000000	0.000000	0.000000
1.640000	61.860000	47.160000	251.000000	0.000000	194.000000	69.000000	-39.000000	35.000000
1.650000	61.490000	47.230000	353.000000	0.000000	194.000000	69.000000	-37.000000	7.000000
1.660000	61.030000	47.230000	450.000000	0.000000	196.000000	69.000000	-46.000000	0.000000
1.670000	60.670000	47.050000	541.000000	0.000000	196.000000	69.000000	-36.000000	-18.000000
1.680000	60.370000	46.770000	622.000000	0.000000	193.000000	69.000000	-30.000000	-28.000000
1.690000	60.110000	46.360000	687.000000	0.000000	193.000000	69.000000	-26.000000	-41.000000
1.700000	59.990000	45.940000	737.000000	0.000000	193.000000	69.000000	-12.000000	-42.000000
1.710000	59.990000	45.510000	794.000000	0.000000	191.000000	70.000000	0.000000	-43.000000
1.720000	60.130000	45.280000	824.000000	0.000000	191.000000	70.000000	14.000000	-23.000000
1.730000	60.430000	45.190000	861.000000	0.000000	191.000000	70.000000	30.000000	-9.000000
1.740000	60.850000	45.270000	873.000000	0.000000	191.000000	70.000000	42.000000	8.000000
1.750000	61.340000	45.510000	885.000000	0.000000	191.000000	70.000000	49.000000	24.000000
1.760000	61.760000	45.870000	869.000000	0.000000	191.000000	70.000000	42.000000	36.000000
1.770000	62.000000	46.210000	815.000000	0.000000	191.000000	70.000000	24.000000	34.000000
1.780000	62.130000	46.530000	711.000000	0.000000	191.000000	70.000000	13.000000	32.000000
1.790000	62.130000	46.820000	472.000000	0.000000	191.000000	70.000000	0.000000	29.000000
1.800000	62.130000	46.820000	0.000000	1.000000	191.000000	70.000000	0.000000	0.000000
1.810000	61.970000	46.960000	0.000000	0.000000	191.000000	70.000000	-16.000000	14.000000
1.820000	61.770000	46.960000	0.000000	0.000000	194.000000	69.000000	-20.000000	0.000000
1.830000	61.670000	46.850000	0.000000	0.000000	194.000000	69.000000	-10.000000	-11.000000
1.840000	61.670000	46.760000	0.000000	0.000000	194.000000	69.000000	0.000000	-9.000000
1.850000	61.670000	46.760000	0.000000	0.000000	191.000000	70.000000	0.000000	0.000000
1.860000	61.890000	46.760000	0.000000	0.000000	190.000000	69.000000	22.000000	0.000000
1.870000	62.350000	46.760000	0.000000	0.000000	190.000000	69.000000	46.000000	0.000000
1.880000	62.960000	46.760000	0.000000	0.000000	188.000000	69.000000	61.000000	0.000000
1.890000	63.570000	46.760000	0.000000	0.000000	187.000000	68.000000	61.000000	0.000000
1.900000	63.970000	46.860000	0.000000	0.000000	187.000000	68.000000	40.000000	10.000000
1.910000	64.220000	46.950000	0.000000	0.000000	187.000000	68.000000	25.000000	9.000000
1.920000	64.220000	47.050000	0.000000	0.000000	187.000000	68.000000	0.000000	10.000000
1.930000	64.110000	47.150000	0.000000	0.000000	187.000000	68.000000	-11.000000	10.000000
1.940000	63.960000	47.310000	0.000000	0.000000	187.000000	68.000000	-15.000000	16.000000
1.950000	63.800000	47.560000	0.000000	0.000000	187.000000	68.000000	-16.000000	25.000000
1.960000	63.610000	47.880000	0.000000	0.000000	187.000000	68.000000	-19.000000	32.000000
1.970000	63.400000	48.280000	0.000000	0.000000	190.000000	68.000000	-21.000000	40.000000
1.980000	63.150000	48.860000	0.000000	0.000000	190.000000	68.000000	-25.000000	58.000000
1.990000	63.150000	48.860000	193.000000	1.000000	190.000000	68.000000	0.000000	0.000000
2.000000	62.610000	50.030000	359.000000	0.000000	190.000000	68.000000	-54.000000	117.000000
2.010000	62.440000	50.280000	442.000000	0.000000	189.000000	67.000000	-17.000000	25.000000
2.020000	62.320000	50.400000	515.000000	0.000000	192.000000	67.000000	-12.000000	12.000000
2.030000	62.320000	50.340000	567.000000	0.000000	192.000000	67.000000	0.000000	-6.000000
2.040000	62.450000	50.230000	642.000000	0.000000	191.000000	66.000000	13.000000	-11.000000
2.050000	62.600000	49.770000	702.000000	0.000000	191.000000	66.000000	15.000000	-46.000000
2.060000	62.840000	49.100000	720.000000	0.000000	191.000000	66.000000	24.000000	-67.000000
2.070000	63.360000	47.980000	751.000000	0.000000	191.000000	66.000000	52.000000	-112.000000
2.080000	64.070000	46.650000	773.000000	0.000000	191.000000	66.000000	71.000000	-133.000000
2.090000	64.590000	45.190000	790.000000	0.000000	192.000000	67.000000	52.000000	-146.000000
2.100000	65.240000	44.170000	829.000000	0.000000	190.000000	68.000000	65.000000	-102.000000
2.110000	65.970000	43.460000	825.000000	0.000000	190.000000	68.000000	73.000000	-71.000000
2.120000	66.590000	42.950000	825.000000	0.000000	190.000000	69.000000	62.000000	-51.000000
2.130000	67.150000	42.620000	827.000000	0.000000	191.000000	70.000000	56.000000	-33.000000
2.140000	67.300000	42.500000	824.000000	0.000000	191.000000	70.000000	15.000000	-12.000000
2.150000	67.200000	42.500000	834.000000	0.000000	191.000000	71.000000	-10.000000	0.000000
2.160000	67.060000	42.500000	832.000000	0.000000	191.000000	71.000000	-14.000000	0.000000
2.170000	66.190000	42.500000	809.000000	0.000000	191.000000	71.000000	-87.000000	0.000000
2.180000	64.840000	42.750000	799.000000	0.000000	191.000000	71.000000	-135.000000	25.000000
2.190000	63.300000	43.100000	796.000000	0.000000	191.000000	71.000000	-154.000000	35.000000
2.200000	61.600000	43.470000	796.000000	0.000000	191.000000	71.000000	-170.000000	37.000000
2.210000	59.790000	43.470000	806.000000	0.000000	191.000000	71.000000	-181.000000	0.000000
2.220000	58.090000	43.320000	820.000000	0.000000	188.000000	70.000000	-170.000000	-15.000000
2.230000	56.870000	43.000000	827.000000	0.000000	188.000000	70.000000	-122.000000	-32.000000
