t	x	y	pressure	penup	azimuth	inclination	v_x	v_y
0.000000	49.040000	77.380000	12.000000	1.000000	134.000000	61.000000	0.000000	0.000000
0.010000	49.040000	77.380000	58.000000	1.000000	134.000000	61.000000	0.000000	0.000000
0.020000	48.940000	77.740000	100.000000	0.000000	134.000000	61.000000	-10.000000	36.000000
0.030000	48.850000	77.860000	148.000000	0.000000	134.000000	61.000000	-9.000000	12.000000
0.040000	48.790000	77.960000	205.000000	0.000000	134.000000	61.000000	-6.000000	10.000000
0.050000	48.790000	77.960000	216.000000	0.000000	134.000000	61.000000	0.000000	0.000000
0.060000	48.790000	77.960000	233.000000	0.000000	134.000000	61.000000	0.000000	0.000000
0.070000	48.790000	77.960000	279.000000	0.000000	134.000000	61.000000	0.000000	0.000000
0.080000	48.840000	77.630000	334.000000	0.000000	135.000000	60.000000	5.000000	-33.000000
0.090000	48.840000	77.140000	366.000000	0.000000	135.000000	60.000000	0.000000	-49.000000
0.100000	48.930000	76.450000	402.000000	0.000000	135.000000	60.000000	9.000000	-69.000000
0.110000	49.030000	75.720000	447.000000	0.000000	135.000000	60.000000	10.000000	-73.000000
0.120000	49.200000	74.920000	468.000000	0.000000	135.000000	60.000000	17.000000	-80.000000
0.130000	49.450000	74.150000	488.000000	0.000000	135.000000	60.000000	25.000000	-77.000000
0.140000	49.750000	73.690000	517.000000	0.000000	135.000000	60.000000	30.000000	-46.000000
0.150000	50.050000	73.410000	533.000000	0.000000	134.000000	60.000000	30.000000	-28.000000
0.160000	50.300000	73.290000	546.000000	0.000000	134.000000	60.000000	25.000000	-12.000000
0.170000	50.510000	73.290000	548.000000	0.000000	134.000000	60.000000	21.000000	0.000000
0.180000	50.640000	73.290000	551.000000	0.000000	134.000000	60.000000	13.000000	0.000000
0.190000	50.750000	73.390000	550.000000	0.000000	134.000000	60.000000	11.000000	10.000000
0.200000	50.850000	73.580000	538.000000	0.000000	134.000000	60.000000	10.000000	19.000000
0.210000	50.850000	73.820000	518.000000	0.000000	134.000000	60.000000	0.000000	24.000000
0.220000	50.620000	74.160000	509.000000	0.000000	134.000000	60.000000	-23.000000	34.000000
0.230000	50.340000	74.500000	492.000000	0.000000	134.000000	60.000000	-28.000000	34.000000
0.240000	49.860000	74.850000	488.000000	0.000000	134.000000	60.000000	-48.000000	35.000000
0.250000	49.210000	75.200000	495.000000	0.000000	134.000000	60.000000	-65.000000	35.000000
0.260000	48.440000	75.490000	491.000000	0.000000	134.000000	60.000000	-77.000000	29.000000
0.270000	47.510000	75.750000	504.000000	0.000000	134.000000	60.000000	-93.000000	26.000000
0.280000	46.610000	75.930000	512.000000	0.000000	134.000000	60.000000	-90.000000	18.000000
0.290000	45.720000	75.930000	526.000000	0.000000	132.000000	59.000000	-89.000000	0.000000
0.300000	45.160000	75.930000	540.000000	0.000000	132.000000	59.000000	-56.000000	0.000000
0.310000	44.940000	75.930000	543.000000	0.000000	131.000000	58.000000	-22.000000	0.000000
0.320000	44.940000	75.930000	543.000000	0.000000	130.000000	58.000000	0.000000	0.000000
0.330000	45.160000	75.930000	550.000000	0.000000	128.000000	57.000000	22.000000	0.000000
0.340000	45.720000	76.080000	554.000000	0.000000	128.000000	57.000000	56.000000	15.000000
0.350000	46.510000	76.310000	564.000000	0.000000	128.000000	57.000000	79.000000	23.000000
0.360000	47.610000	76.780000	586.000000	0.000000	128.000000	57.000000	110.000000	47.000000
0.370000	48.670000	77.350000	591.000000	0.000000	128.000000	57.000000	106.000000	57.000000
0.380000	49.710000	77.980000	588.000000	0.000000	130.000000	58.000000	104.000000	63.000000
0.390000	50.690000	78.550000	588.000000	0.000000	130.000000	58.000000	98.000000	57.000000
0.400000	51.560000	79.100000	594.000000	0.000000	131.000000	58.000000	87.000000	55.000000
0.410000	52.350000	79.640000	592.000000	0.000000	131.000000	58.000000	79.000000	54.000000
0.420000	52.740000	79.850000	591.000000	0.000000	132.000000	59.000000	39.000000	21.000000
0.430000	52.840000	79.910000	591.000000	0.000000	132.000000	59.000000	10.000000	6.000000
0.440000	52.750000	79.910000	606.000000	0.000000	132.000000	59.000000	-9.000000	0.000000
0.450000	52.620000	79.840000	611.000000	0.000000	134.000000	58.000000	-13.000000	-7.000000
0.460000	52.480000	79.840000	619.000000	0.000000	134.000000	58.000000	-14.000000	0.000000
0.470000	52.480000	79.840000	583.000000	0.000000	134.000000	58.000000	0.000000	0.000000
0.480000	52.480000	79.840000	404.000000	0.000000	134.000000	58.000000	0.000000	0.000000
0.490000	52.480000	79.840000	0.000000	1.000000	131.000000	58.000000	0.000000	0.000000
0.500000	52.030000	79.550000	0.000000	0.000000	132.000000	59.000000	-45.000000	-29.000000
0.510000	51.710000	79.190000	0.000000	0.000000	132.000000	59.000000	-32.000000	-36.000000
0.520000	51.280000	78.990000	0.000000	0.000000	132.000000	59.000000	-43.000000	-20.000000
0.530000	50.940000	78.770000	0.000000	0.000000	132.000000	59.000000	-34.000000	-22.000000
0.540000	50.610000	78.510000	0.000000	0.000000	131.000000	58.000000	-33.000000	-26.000000
0.550000	50.310000	78.250000	0.000000	0.000000	131.000000	58.000000	-30.000000	-26.000000
0.560000	50.040000	77.940000	0.000000	0.000000	131.000000	57.000000	-27.000000	-31.000000
0.570000	49.790000	77.600000	0.000000	0.000000	131.000000	57.000000	-25.000000	-34.000000
0.580000	49.540000	77.220000	0.000000	0.000000	131.000000	56.000000	-25.000000	-38.000000
0.590000	49.290000	76.820000	0.000000	0.000000	131.000000	56.000000	-25.000000	-40.000000
0.600000	49.030000	76.410000	0.000000	0.000000	131.000000	56.000000	-26.000000	-41.000000
0.610000	49.030000	76.410000	200.000000	1.000000	131.000000	56.000000	0.000000	0.000000
0.620000	48.920000	75.520000	337.000000	0.000000	131.000000	56.000000	-11.000000	-89.000000
0.630000	48.920000	75.770000	334.000000	0.000000	131.000000	57.000000	0.000000	25.000000
0.640000	48.970000	75.860000	376.000000	0.000000	132.000000	58.000000	5.000000	9.000000
0.650000	48.970000	75.860000	438.000000	0.000000	131.000000	58.000000	0.000000	0.000000
0.660000	49.260000	76.000000	463.000000	0.000000	132.000000	59.000000	29.000000	14.000000
0.670000	49.620000	76.210000	469.000000	0.000000	134.000000	60.000000	36.000000	21.000000
0.680000	50.080000	76.450000	465.000000	0.000000	132.000000	60.000000	46.000000	24.000000
0.690000	50.360000	76.630000	430.000000	0.000000	132.000000	60.000000	28.000000	18.000000
0.700000	50.590000	76.770000	353.000000	0.000000	132.000000	60.000000	23.000000	14.000000
0.710000	50.780000	76.840000	160.000000	0.000000	132.000000	60.000000	19.000000	7.000000
0.720000	50.780000	76.840000	0.000000	1.000000	132.000000	60.000000	0.000000	0.000000
0.730000	50.830000	76.890000	0.000000	0.000000	132.000000	60.000000	5.000000	5.000000
0.740000	50.760000	76.890000	0.000000	0.000000	132.000000	60.000000	-7.000000	0.000000
0.750000	50.690000	76.890000	0.000000	0.000000	131.000000	60.000000	-7.000000	0.000000
0.760000	50.690000	76.970000	0.000000	0.000000	131.000000	60.000000	0.000000	8.000000
0.770000	50.800000	77.040000	0.000000	0.000000	131.000000	60.000000	11.000000	7.000000
0.780000	50.920000	77.040000	0.000000	0.000000	132.000000	59.000000	12.000000	0.000000
0.790000	51.040000	77.110000	0.000000	0.000000	132.000000	59.000000	12.000000	7.000000
0.800000	51.260000	77.110000	0.000000	0.000000	131.000000	58.000000	22.000000	0.000000
0.810000	51.470000	77.220000	0.000000	0.000000	131.000000	58.000000	21.000000	11.000000
0.820000	51.670000	77.270000	0.000000	0.000000	132.000000	58.000000	20.000000	5.000000
0.830000	51.870000	77.270000	0.000000	0.000000	132.000000	58.000000	20.000000	0.000000
0.840000	52.030000	77.270000	0.000000	0.000000	132.000000	58.000000	16.000000	0.000000
0.850000	52.030000	77.270000	66.000000	1.000000	131.000000	58.000000	0.000000	0.000000
0.860000	52.030000	77.270000	93.000000	0.000000	131.000000	58.000000	0.000000	0.000000
0.870000	52.030000	77.270000	168.000000	0.000000	131.000000	58.000000	0.000000	0.000000
0.880000	51.770000	77.050000	239.000000	0.000000	129.000000	59.000000	-26.000000	-22.000000
0.890000	51.620000	76.920000	289.000000	0.000000	131.000000	60.000000	-15.000000	-13.000000
0.900000	51.470000	76.730000	334.000000	0.000000	131.000000	60.000000	-15.000000	-19.000000
0.910000	51.380000	76.470000	358.000000	0.000000	131.000000	60.000000	-9.000000	-26.000000
0.920000	51.380000	76.170000	377.000000	0.000000	131.000000	60.000000	0.000000	-30.000000
0.930000	51.470000	75.890000	399.000000	0.000000	131.000000	60.000000	9.000000	-28.000000
0.940000	51.630000	75.710000	422.000000	0.000000	131.000000	60.000000	16.000000	-18.000000
0.950000	51.860000	75.590000	441.000000	0.000000	131.000000	60.000000	23.000000	-12.000000
0.960000	52.140000	75.590000	455.000000	0.000000	131.000000	60.000000	28.000000	0.000000
0.970000	52.450000	75.670000	463.000000	0.000000	131.000000	60.000000	31.000000	8.000000
0.980000	52.760000	75.860000	469.000000	0.000000	132.000000	59.000000	31.000000	19.000000
0.990000	53.020000	76.100000	468.000000	0.000000	132.000000	59.000000	26.000000	24.000000
1.000000	53.270000	76.370000	458.000000	0.000000	132.000000	59.000000	25.000000	27.000000
1.010000	53.400000	76.670000	456.000000	0.000000	132.000000	59.000000	13.000000	30.000000
1.020000	53.400000	76.890000	450.000000	0.000000	132.000000	59.000000	0.000000	22.000000
1.030000	53.350000	77.080000	452.000000	0.000000	132.000000	59.000000	-5.000000	19.000000
1.040000	53.240000	77.210000	448.000000	0.000000	132.000000	59.000000	-11.000000	13.000000
1.050000	53.150000	77.210000	460.000000	0.000000	131.000000	60.000000	-9.000000	0.000000
1.060000	53.080000	77.210000	460.000000	0.000000	131.000000	60.000000	-7.000000	0.000000
1.070000	53.080000	77.210000	461.000000	0.000000	131.000000	60.000000	0.000000	0.000000
1.080000	53.080000	77.000000	469.000000	0.000000	131.000000	60.000000	0.000000	-21.000000
1.090000	53.140000	76.700000	471.000000	0.000000	131.000000	60.000000	6.000000	-30.000000
1.100000	53.360000	76.470000	473.000000	0.000000	131.000000	60.000000	22.000000	-23.000000
1.110000	53.670000	76.310000	470.000000	0.000000	131.000000	60.000000	31.000000	-16.000000
1.120000	53.970000	76.210000	477.000000	0.000000	132.000000	59.000000	30.000000	-10.000000
1.130000	54.280000	76.210000	493.000000	0.000000	132.000000	59.000000	31.000000	0.000000
1.140000	54.610000	76.320000	488.000000	0.000000	132.000000	59.000000	33.000000	11.000000
1.150000	54.860000	76.470000	494.000000	0.000000	132.000000	59.000000	25.000000	15.000000
1.160000	55.060000	76.710000	492.000000	0.000000	132.000000	59.000000	20.000000	24.000000
1.170000	55.150000	76.950000	496.000000	0.000000	132.000000	59.000000	9.000000	24.000000
1.180000	55.080000	77.200000	497.000000	0.000000	134.000000	60.000000	-7.000000	25.000000
1.190000	54.890000	77.400000	499.000000	0.000000	134.000000	60.000000	-19.000000	20.000000
1.200000	54.620000	77.580000	519.000000	0.000000	134.000000	60.000000	-27.000000	18.000000
1.210000	54.270000	77.720000	521.000000	0.000000	134.000000	60.000000	-35.000000	14.000000
1.220000	53.860000	77.790000	543.000000	0.000000	134.000000	60.000000	-41.000000	7.000000
1.230000	53.490000	77.790000	543.000000	0.000000	134.000000	60.000000	-37.000000	0.000000
1.240000	53.190000	77.790000	546.000000	0.000000	134.000000	60.000000	-30.000000	0.000000
1.250000	53.010000	77.700000	544.000000	0.000000	134.000000	60.000000	-18.000000	-9.000000
1.260000	52.940000	77.580000	491.000000	0.000000	132.000000	59.000000	-7.000000	-12.000000
1.270000	52.940000	77.420000	387.000000	0.000000	132.000000	59.000000	0.000000	-16.000000
1.280000	53.100000	77.250000	108.000000	0.000000	132.000000	59.000000	16.000000	-17.000000
1.290000	53.100000	77.250000	0.000000	1.000000	132.000000	59.000000	0.000000	0.000000
1.300000	53.810000	77.180000	0.000000	0.000000	132.000000	59.000000	71.000000	-7.000000
1.310000	54.040000	77.180000	0.000000	0.000000	132.000000	59.000000	23.000000	0.000000
1.320000	54.270000	77.250000	0.000000	0.000000	132.000000	59.000000	23.000000	7.000000
1.330000	54.490000	77.250000	0.000000	0.000000	132.000000	59.000000	22.000000	0.000000
1.340000	54.830000	77.250000	0.000000	0.000000	134.000000	60.000000	34.000000	0.000000
1.350000	55.270000	77.330000	0.000000	0.000000	135.000000	59.000000	44.000000	8.000000
1.360000	55.780000	77.400000	0.000000	0.000000	135.000000	59.000000	51.000000	7.000000
1.370000	56.290000	77.500000	0.000000	0.000000	136.000000	60.000000	51.000000	10.000000
1.380000	56.790000	77.570000	0.000000	0.000000	139.000000	60.000000	50.000000	7.000000
1.390000	57.090000	77.570000	0.000000	0.000000	139.000000	60.000000	30.000000	0.000000
1.400000	57.250000	77.570000	0.000000	0.000000	141.000000	60.000000	16.000000	0.000000
1.410000	57.250000	77.570000	0.000000	0.000000	142.000000	59.000000	0.000000	0.000000
1.420000	57.250000	77.570000	0.000000	0.000000	142.000000	61.000000	0.000000	0.000000
1.430000	57.250000	77.640000	0.000000	0.000000	142.000000	61.000000	0.000000	7.000000
1.440000	57.200000	77.640000	0.000000	0.000000	144.000000	61.000000	-5.000000	0.000000
1.450000	57.200000	77.640000	0.000000	0.000000	144.000000	61.000000	0.000000	0.000000
1.460000	57.200000	77.640000	0.000000	0.000000	143.000000	62.000000	0.000000	0.000000
1.470000	57.200000	77.640000	0.000000	0.000000	143.000000	62.000000	0.000000	0.000000
1.480000	57.200000	77.640000	0.000000	0.000000	141.000000	61.000000	0.000000	0.000000
1.490000	57.200000	77.580000	0.000000	0.000000	141.000000	61.000000	0.000000	-6.000000
1.500000	57.200000	77.580000	0.000000	0.000000	141.000000	61.000000	0.000000	0.000000
1.510000	57.200000	77.580000	0.000000	0.000000	141.000000	61.000000	0.000000	0.000000
1.520000	57.280000	77.580000	0.000000	0.000000	141.000000	61.000000	8.000000	0.000000
1.530000	57.340000	77.580000	0.000000	0.000000	141.000000	61.000000	6.000000	0.000000
1.540000	57.400000	77.580000	0.000000	0.000000	141.000000	61.000000	6.000000	0.000000
1.550000	57.450000	77.530000	0.000000	0.000000	141.000000	61.000000	5.000000	-5.000000
1.560000	57.450000	77.480000	0.000000	0.000000	141.000000	61.000000	0.000000	-5.000000
1.570000	57.510000	77.420000	0.000000	0.000000	141.000000	61.000000	6.000000	-6.000000
1.580000	57.510000	77.370000	0.000000	0.000000	141.000000	61.000000	0.000000	-5.000000
1.590000	57.570000	77.370000	0.000000	0.000000	141.000000	61.000000	6.000000	0.000000
1.600000	57.570000	77.370000	0.000000	0.000000	141.000000	61.000000	0.000000	0.000000
1.610000	57.570000	77.370000	0.000000	0.000000	141.000000	61.000000	0.000000	0.000000
1.620000	57.570000	77.370000	0.000000	0.000000	141.000000	61.000000	0.000000	0.000000
1.630000	57.570000	77.370000	0.000000	0.000000	141.000000	61.000000	0.000000	0.000000
1.640000	57.570000	77.370000	0.000000	0.000000	143.000000	62.000000	0.000000	0.000000
1.650000	57.570000	77.370000	0.000000	0.000000	143.000000	62.000000	0.000000	0.000000
1.660000	57.570000	77.370000	0.000000	0.000000	141.000000	63.000000	0.000000	0.000000
1.670000	57.570000	77.370000	0.000000	0.000000	141.000000	63.000000	0.000000	0.000000
1.680000	57.570000	77.370000	0.000000	0.000000	141.000000	63.000000	0.000000	0.000000
1.690000	57.570000	77.370000	0.000000	0.000000	141.000000	63.000000	0.000000	0.000000
1.700000	57.570000	77.370000	0.000000	0.000000	141.000000	63.000000	0.000000	0.000000
1.710000	57.570000	77.370000	0.000000	0.000000	141.000000	63.000000	0.000000	0.000000
1.720000	57.570000	77.370000	8.000000	0.000000	141.000000	63.000000	0.000000	0.000000
1.730000	57.750000	77.120000	58.000000	1.000000	141.000000	63.000000	0.000000	0.000000
1.740000	57.750000	77.120000	106.000000	0.000000	141.000000	63.000000	0.000000	0.000000
1.750000	57.820000	77.060000	144.000000	0.000000	141.000000	63.000000	7.000000	-6.000000
1.760000	57.900000	77.060000	158.000000	0.000000	141.000000	63.000000	8.000000	0.000000
1.770000	58.000000	77.060000	171.000000	0.000000	140.000000	62.000000	10.000000	0.000000
1.780000	58.110000	77.110000	195.000000	0.000000	140.000000	62.000000	11.000000	5.000000
1.790000	58.300000	77.230000	212.000000	0.000000	140.000000	62.000000	19.000000	12.000000
1.800000	58.470000	77.400000	223.000000	0.000000	138.000000	61.000000	17.000000	17.000000
1.810000	58.610000	77.560000	228.000000	0.000000	138.000000	61.000000	14.000000	16.000000
1.820000	58.720000	77.780000	239.000000	0.000000	138.000000	61.000000	11.000000	22.000000
1.830000	58.810000	78.050000	251.000000	0.000000	138.000000	61.000000	9.000000	27.000000
1.840000	58.870000	78.300000	242.000000	0.000000	138.000000	61.000000	6.000000	25.000000
1.850000	58.870000	78.570000	245.000000	0.000000	138.000000	61.000000	0.000000	27.000000
1.860000	58.870000	78.850000	245.000000	0.000000	138.000000	61.000000	0.000000	28.000000
1.870000	58.790000	79.230000	247.000000	0.000000	138.000000	61.000000	-8.000000	38.000000
1.880000	58.710000	79.590000	257.000000	0.000000	139.000000	61.000000	-8.000000	36.000000
1.890000	58.660000	79.800000	267.000000	0.000000	139.000000	61.000000	-5.000000	21.000000
1.900000	58.660000	79.930000	284.000000	0.000000	139.000000	61.000000	0.000000	13.000000
1.910000	58.660000	79.930000	277.000000	0.000000	139.000000	61.000000	0.000000	0.000000
1.920000	58.660000	79.990000	277.000000	0.000000	139.000000	61.000000	0.000000	6.000000
1.930000	58.660000	79.930000	286.000000	0.000000	139.000000	61.000000	0.000000	-6.000000
1.940000	58.660000	79.790000	294.000000	0.000000	138.000000	61.000000	0.000000	-14.000000
1.950000	58.710000	79.580000	297.000000	0.000000	138.000000	61.000000	5.000000	-21.000000
1.960000	58.760000	79.310000	314.000000	0.000000	138.000000	61.000000	5.000000	-27.000000
1.970000	58.830000	79.000000	309.000000	0.000000	138.000000	61.000000	7.000000	-31.000000
1.980000	58.890000	78.680000	312.000000	0.000000	138.000000	61.000000	6.000000	-32.000000
1.990000	58.970000	78.450000	319.000000	0.000000	139.000000	61.000000	8.000000	-23.000000
2.000000	59.090000	78.290000	337.000000	0.000000	141.000000	61.000000	12.000000	-16.000000
2.010000	59.240000	78.150000	349.000000	0.000000	141.000000	61.000000	15.000000	-14.000000
2.020000	59.450000	78.150000	366.000000	0.000000	141.000000	61.000000	21.000000	0.000000
2.030000	59.690000	78.150000	361.000000	0.000000	141.000000	61.000000	24.000000	0.000000
2.040000	59.950000	78.150000	382.000000	0.000000	141.000000	61.000000	26.000000	0.000000
2.050000	60.210000	78.300000	398.000000	0.000000	141.000000	61.000000	26.000000	15.000000
2.060000	60.510000	78.450000	396.000000	0.000000	141.000000	61.000000	30.000000	15.000000
2.070000	60.750000	78.640000	394.000000	0.000000	141.000000	61.000000	24.000000	19.000000
2.080000	60.960000	78.900000	384.000000	0.000000	141.000000	61.000000	21.000000	26.000000
2.090000	61.140000	79.200000	377.000000	0.000000	141.000000	61.000000	18.000000	30.000000
2.100000	61.230000	79.500000	367.000000	0.000000	141.000000	61.000000	9.000000	30.000000
2.110000	61.230000	79.780000	367.000000	0.000000	141.000000	61.000000	0.000000	28.000000
2.120000	61.230000	80.060000	366.000000	0.000000	141.000000	61.000000	0.000000	28.000000
2.130000	61.070000	80.320000	369.000000	0.000000	139.000000	61.000000	-16.000000	26.000000
2.140000	60.900000	80.520000	377.000000	0.000000	139.000000	61.000000	-17.000000	20.000000
2.150000	60.720000	80.620000	379.000000	0.000000	138.000000	61.000000	-18.000000	10.000000
2.160000	60.550000	80.620000	379.000000	0.000000	138.000000	61.000000	-17.000000	0.000000
2.170000	60.410000	80.620000	379.000000	0.000000	138.000000	61.000000	-14.000000	0.000000
2.180000	60.290000	80.450000	377.000000	0.000000	138.000000	61.000000	-12.000000	-17.000000
2.190000	60.180000	80.190000	382.000000	0.000000	138.000000	61.000000	-11.000000	-26.000000
2.200000	60.120000	79.850000	384.000000	0.000000	138.000000	61.000000	-6.000000	-34.000000
2.210000	60.120000	79.470000	386.000000	0.000000	138.000000	61.000000	0.000000	-38.000000
2.220000	60.120000	79.080000	387.000000	0.000000	138.000000	61.000000	0.000000	-39.000000
2.230000	60.240000	78.690000	387.000000	0.000000	138.000000	61.000000	12.000000	-39.000000
