t	x	y	pressure	penup	azimuth	inclination	v_x	v_y
0.000000	54.060000	83.040000	42.000000	1.000000	137.000000	50.000000	0.000000	0.000000
0.010000	54.060000	83.040000	51.000000	0.000000	138.000000	49.000000	0.000000	0.000000
0.020000	54.060000	83.040000	80.000000	0.000000	138.000000	49.000000	0.000000	0.000000
0.030000	54.060000	83.040000	90.000000	0.000000	138.000000	49.000000	0.000000	0.000000
0.040000	54.060000	83.040000	101.000000	0.000000	138.000000	49.000000	0.000000	0.000000
0.050000	53.910000	82.710000	119.000000	0.000000	138.000000	49.000000	-15.000000	-33.000000
0.060000	53.750000	82.080000	149.000000	0.000000	141.000000	49.000000	-16.000000	-63.000000
0.070000	53.540000	81.030000	146.000000	0.000000	141.000000	49.000000	-21.000000	-105.000000
0.080000	53.340000	79.950000	131.000000	0.000000	140.000000	50.000000	-20.000000	-108.000000
0.090000	53.140000	78.870000	137.000000	0.000000	140.000000	50.000000	-20.000000	-108.000000
0.100000	53.140000	78.160000	137.000000	0.000000	140.000000	50.000000	0.000000	-71.000000
0.110000	53.140000	77.690000	139.000000	0.000000	138.000000	50.000000	0.000000	-47.000000
0.120000	53.140000	77.320000	149.000000	0.000000	138.000000	50.000000	0.000000	-37.000000
0.130000	53.140000	77.160000	137.000000	0.000000	137.000000	51.000000	0.000000	-16.000000
0.140000	53.230000	77.160000	146.000000	0.000000	137.000000	51.000000	9.000000	0.000000
0.150000	53.160000	77.160000	115.000000	0.000000	137.000000	51.000000	-7.000000	0.000000
0.160000	53.000000	77.380000	91.000000	0.000000	137.000000	51.000000	-16.000000	22.000000
0.170000	52.530000	77.680000	67.000000	0.000000	137.000000	51.000000	-47.000000	30.000000
0.180000	51.690000	77.930000	41.000000	0.000000	138.000000	51.000000	-84.000000	25.000000
0.190000	50.610000	77.930000	51.000000	0.000000	138.000000	51.000000	-108.000000	0.000000
0.200000	49.320000	77.820000	108.000000	0.000000	138.000000	51.000000	-129.000000	-11.000000
0.210000	47.910000	77.370000	183.000000	0.000000	138.000000	51.000000	-141.000000	-45.000000
0.220000	46.410000	76.920000	254.000000	0.000000	138.000000	51.000000	-150.000000	-45.000000
0.230000	45.490000	76.610000	254.000000	0.000000	138.000000	51.000000	-92.000000	-31.000000
0.240000	45.080000	76.390000	259.000000	0.000000	137.000000	51.000000	-41.000000	-22.000000
0.250000	45.020000	76.330000	259.000000	0.000000	137.000000	51.000000	-6.000000	-6.000000
0.260000	45.220000	76.330000	264.000000	0.000000	135.000000	51.000000	20.000000	0.000000
0.270000	45.940000	76.380000	262.000000	0.000000	135.000000	51.000000	72.000000	5.000000
0.280000	47.010000	76.560000	265.000000	0.000000	134.000000	50.000000	107.000000	18.000000
0.290000	48.580000	76.990000	267.000000	0.000000	134.000000	50.000000	157.000000	43.000000
0.300000	50.590000	77.600000	279.000000	0.000000	134.000000	50.000000	201.000000	61.000000
0.310000	52.880000	78.390000	284.000000	0.000000	134.000000	50.000000	229.000000	79.000000
0.320000	55.140000	79.310000	304.000000	0.000000	135.000000	51.000000	226.000000	92.000000
0.330000	57.240000	80.330000	314.000000	0.000000	136.000000	50.000000	210.000000	102.000000
0.340000	59.240000	81.110000	305.000000	0.000000	137.000000	51.000000	200.000000	78.000000
0.350000	60.750000	81.680000	294.000000	0.000000	138.000000	51.000000	151.000000	57.000000
0.360000	61.770000	82.120000	251.000000	0.000000	140.000000	52.000000	102.000000	44.000000
0.370000	62.450000	82.320000	108.000000	0.000000	141.000000	51.000000	68.000000	20.000000
0.380000	62.450000	82.320000	0.000000	1.000000	142.000000	52.000000	0.000000	0.000000
0.390000	61.730000	82.220000	0.000000	0.000000	143.000000	52.000000	-72.000000	-10.000000
0.400000	60.500000	82.000000	0.000000	0.000000	144.000000	51.000000	-123.000000	-22.000000
0.410000	58.950000	81.830000	0.000000	0.000000	146.000000	52.000000	-155.000000	-17.000000
0.420000	57.360000	81.690000	0.000000	0.000000	146.000000	52.000000	-159.000000	-14.000000
0.430000	55.730000	81.690000	0.000000	0.000000	146.000000	52.000000	-163.000000	0.000000
0.440000	54.700000	81.690000	0.000000	0.000000	145.000000	53.000000	-103.000000	0.000000
0.450000	54.210000	81.760000	0.000000	0.000000	145.000000	53.000000	-49.000000	7.000000
0.460000	54.090000	81.900000	0.000000	0.000000	143.000000	52.000000	-12.000000	14.000000
0.470000	53.480000	81.980000	0.000000	0.000000	143.000000	52.000000	-61.000000	8.000000
0.480000	53.140000	81.980000	0.000000	0.000000	141.000000	52.000000	-34.000000	0.000000
0.490000	52.990000	81.730000	0.000000	0.000000	141.000000	52.000000	-15.000000	-25.000000
0.500000	52.580000	81.360000	0.000000	0.000000	140.000000	52.000000	-41.000000	-37.000000
0.510000	51.960000	80.840000	0.000000	0.000000	139.000000	52.000000	-62.000000	-52.000000
0.520000	51.200000	80.330000	0.000000	0.000000	139.000000	52.000000	-76.000000	-51.000000
0.530000	50.390000	79.830000	0.000000	0.000000	137.000000	52.000000	-81.000000	-50.000000
0.540000	49.580000	79.520000	0.000000	0.000000	137.000000	52.000000	-81.000000	-31.000000
0.550000	48.770000	79.320000	0.000000	0.000000	136.000000	51.000000	-81.000000	-20.000000
0.560000	48.340000	79.430000	0.000000	0.000000	136.000000	51.000000	-43.000000	11.000000
0.570000	48.230000	79.840000	0.000000	0.000000	136.000000	51.000000	-11.000000	41.000000
0.580000	48.340000	80.440000	0.000000	0.000000	135.000000	51.000000	11.000000	60.000000
0.590000	48.340000	80.980000	0.000000	0.000000	135.000000	51.000000	0.000000	54.000000
0.600000	48.220000	81.170000	0.000000	0.000000	135.000000	51.000000	-12.000000	19.000000
0.610000	47.960000	81.120000	0.000000	0.000000	135.000000	51.000000	-26.000000	-5.000000
0.620000	47.710000	80.880000	0.000000	0.000000	135.000000	51.000000	-25.000000	-24.000000
0.630000	47.560000	80.790000	0.000000	0.000000	135.000000	52.000000	-15.000000	-9.000000
0.640000	47.740000	80.790000	0.000000	0.000000	135.000000	52.000000	18.000000	0.000000
0.650000	48.100000	80.890000	0.000000	0.000000	135.000000	52.000000	36.000000	10.000000
0.660000	48.540000	80.980000	0.000000	0.000000	135.000000	52.000000	44.000000	9.000000
0.670000	48.960000	81.040000	0.000000	0.000000	135.000000	52.000000	42.000000	6.000000
0.680000	49.170000	81.040000	0.000000	0.000000	137.000000	52.000000	21.000000	0.000000
0.690000	49.250000	80.830000	0.000000	0.000000	137.000000	52.000000	8.000000	-21.000000
0.700000	49.250000	80.530000	0.000000	0.000000	137.000000	52.000000	0.000000	-30.000000
0.710000	49.190000	80.250000	0.000000	0.000000	137.000000	52.000000	-6.000000	-28.000000
0.720000	49.020000	79.970000	0.000000	0.000000	137.000000	52.000000	-17.000000	-28.000000
0.730000	48.780000	79.700000	0.000000	0.000000	136.000000	52.000000	-24.000000	-27.000000
0.740000	48.530000	79.520000	0.000000	0.000000	136.000000	52.000000	-25.000000	-18.000000
0.750000	48.300000	79.400000	0.000000	0.000000	136.000000	52.000000	-23.000000	-12.000000
0.760000	48.140000	79.330000	0.000000	0.000000	136.000000	52.000000	-16.000000	-7.000000
0.770000	48.000000	79.330000	0.000000	0.000000	137.000000	52.000000	-14.000000	0.000000
0.780000	48.000000	79.330000	0.000000	0.000000	137.000000	52.000000	0.000000	0.000000
0.790000	47.720000	79.530000	0.000000	0.000000	137.000000	52.000000	-28.000000	20.000000
0.800000	47.570000	79.530000	0.000000	0.000000	136.000000	52.000000	-15.000000	0.000000
0.810000	47.430000	79.530000	0.000000	0.000000	135.000000	52.000000	-14.000000	0.000000
0.820000	47.340000	79.530000	0.000000	0.000000	135.000000	52.000000	-9.000000	0.000000
0.830000	47.390000	79.530000	0.000000	0.000000	134.000000	52.000000	5.000000	0.000000
0.840000	47.520000	79.620000	0.000000	0.000000	133.000000	52.000000	13.000000	9.000000
0.850000	47.720000	79.780000	0.000000	0.000000	133.000000	52.000000	20.000000	16.000000
0.860000	47.880000	79.990000	0.000000	0.000000	131.000000	52.000000	16.000000	21.000000
0.870000	48.000000	80.210000	0.000000	0.000000	133.000000	52.000000	12.000000	22.000000
0.880000	48.000000	80.450000	0.000000	0.000000	133.000000	52.000000	0.000000	24.000000
0.890000	48.000000	80.650000	0.000000	0.000000	135.000000	52.000000	0.000000	20.000000
0.900000	48.000000	80.840000	0.000000	0.000000	135.000000	52.000000	0.000000	19.000000
0.910000	48.000000	80.840000	8.000000	0.000000	135.000000	52.000000	0.000000	0.000000
0.920000	48.000000	80.840000	20.000000	1.000000	136.000000	51.000000	0.000000	0.000000
0.930000	48.000000	80.840000	29.000000	0.000000	136.000000	51.000000	0.000000	0.000000
0.940000	47.750000	80.930000	41.000000	0.000000	136.000000	51.000000	-25.000000	9.000000
0.950000	47.560000	80.590000	54.000000	0.000000	136.000000	51.000000	-19.000000	-34.000000
0.960000	47.400000	80.110000	55.000000	0.000000	136.000000	51.000000	-16.000000	-48.000000
0.970000	47.240000	79.400000	85.000000	0.000000	136.000000	51.000000	-16.000000	-71.000000
0.980000	47.120000	78.840000	101.000000	0.000000	135.000000	51.000000	-12.000000	-56.000000
0.990000	47.040000	78.380000	107.000000	0.000000	135.000000	51.000000	-8.000000	-46.000000
1.000000	47.040000	78.140000	134.000000	0.000000	135.000000	51.000000	0.000000	-24.000000
1.010000	47.130000	78.060000	167.000000	0.000000	134.000000	50.000000	9.000000	-8.000000
1.020000	47.180000	78.060000	200.000000	0.000000	134.000000	50.000000	5.000000	0.000000
1.030000	47.180000	78.180000	218.000000	0.000000	134.000000	50.000000	0.000000	12.000000
1.040000	47.240000	78.450000	218.000000	0.000000	133.000000	50.000000	6.000000	27.000000
1.050000	47.300000	78.840000	203.000000	0.000000	133.000000	50.000000	6.000000	39.000000
1.060000	47.300000	79.450000	161.000000	0.000000	133.000000	50.000000	0.000000	61.000000
1.070000	47.300000	80.200000	151.000000	0.000000	134.000000	50.000000	0.000000	75.000000
1.080000	47.370000	81.050000	146.000000	0.000000	134.000000	50.000000	7.000000	85.000000
1.090000	47.370000	81.820000	153.000000	0.000000	134.000000	50.000000	0.000000	77.000000
1.100000	47.370000	82.360000	181.000000	0.000000	134.000000	50.000000	0.000000	54.000000
1.110000	47.420000	82.740000	181.000000	0.000000	134.000000	50.000000	5.000000	38.000000
1.120000	47.550000	82.820000	185.000000	0.000000	136.000000	50.000000	13.000000	8.000000
1.130000	47.740000	82.870000	212.000000	0.000000	136.000000	50.000000	19.000000	5.000000
1.140000	47.970000	82.870000	207.000000	0.000000	136.000000	50.000000	23.000000	0.000000
1.150000	48.210000	82.750000	212.000000	0.000000	136.000000	50.000000	24.000000	-12.000000
1.160000	48.560000	82.660000	211.000000	0.000000	137.000000	51.000000	35.000000	-9.000000
1.170000	48.910000	82.590000	210.000000	0.000000	138.000000	50.000000	35.000000	-7.000000
1.180000	49.260000	82.590000	141.000000	0.000000	138.000000	50.000000	35.000000	0.000000
1.190000	49.520000	82.590000	63.000000	0.000000	140.000000	51.000000	26.000000	0.000000
1.200000	49.520000	82.590000	0.000000	1.000000	140.000000	51.000000	0.000000	0.000000
1.210000	49.850000	82.860000	0.000000	0.000000	140.000000	51.000000	33.000000	27.000000
1.220000	49.770000	82.860000	0.000000	0.000000	141.000000	51.000000	-8.000000	0.000000
1.230000	49.350000	82.730000	0.000000	0.000000	141.000000	51.000000	-42.000000	-13.000000
1.240000	48.800000	82.490000	0.000000	0.000000	141.000000	51.000000	-55.000000	-24.000000
1.250000	48.170000	82.190000	0.000000	0.000000	140.000000	52.000000	-63.000000	-30.000000
1.260000	47.610000	81.800000	0.000000	0.000000	140.000000	52.000000	-56.000000	-39.000000
1.270000	47.320000	81.360000	0.000000	0.000000	138.000000	51.000000	-29.000000	-44.000000
1.280000	47.220000	81.060000	0.000000	0.000000	137.000000	52.000000	-10.000000	-30.000000
1.290000	47.340000	80.860000	0.000000	0.000000	136.000000	51.000000	12.000000	-20.000000
1.300000	47.480000	80.710000	0.000000	0.000000	135.000000	51.000000	14.000000	-15.000000
1.310000	47.650000	80.610000	0.000000	0.000000	133.000000	51.000000	17.000000	-10.000000
1.320000	47.820000	80.550000	0.000000	0.000000	133.000000	51.000000	17.000000	-6.000000
1.330000	47.820000	80.550000	0.000000	0.000000	133.000000	51.000000	0.000000	0.000000
1.340000	47.820000	80.550000	0.000000	0.000000	132.000000	50.000000	0.000000	0.000000
1.350000	47.760000	80.550000	0.000000	0.000000	132.000000	50.000000	-6.000000	0.000000
1.360000	47.690000	80.490000	0.000000	0.000000	133.000000	51.000000	-7.000000	-6.000000
1.370000	47.530000	80.490000	0.000000	0.000000	133.000000	51.000000	-16.000000	0.000000
1.380000	47.310000	80.350000	0.000000	0.000000	133.000000	51.000000	-22.000000	-14.000000
1.390000	46.910000	80.190000	0.000000	0.000000	133.000000	51.000000	-40.000000	-16.000000
1.400000	46.560000	80.050000	0.000000	0.000000	133.000000	51.000000	-35.000000	-14.000000
1.410000	46.420000	79.940000	0.000000	0.000000	133.000000	51.000000	-14.000000	-11.000000
1.420000	46.420000	79.940000	0.000000	0.000000	133.000000	51.000000	0.000000	0.000000
1.430000	46.500000	79.890000	0.000000	0.000000	133.000000	51.000000	8.000000	-5.000000
1.440000	46.620000	79.890000	0.000000	0.000000	133.000000	51.000000	12.000000	0.000000
1.450000	46.790000	79.970000	0.000000	0.000000	133.000000	51.000000	17.000000	8.000000
1.460000	46.790000	79.970000	68.000000	1.000000	132.000000	50.000000	0.000000	0.000000
1.470000	46.790000	79.970000	122.000000	0.000000	132.000000	50.000000	0.000000	0.000000
1.480000	46.980000	80.280000	214.000000	0.000000	132.000000	50.000000	19.000000	31.000000
1.490000	47.050000	80.370000	254.000000	0.000000	132.000000	50.000000	7.000000	9.000000
1.500000	47.130000	80.450000	275.000000	0.000000	132.000000	50.000000	8.000000	8.000000
1.510000	47.210000	80.450000	285.000000	0.000000	130.000000	50.000000	8.000000	0.000000
1.520000	47.320000	80.450000	273.000000	0.000000	132.000000	49.000000	11.000000	0.000000
1.530000	47.520000	80.450000	279.000000	0.000000	133.000000	50.000000	20.000000	0.000000
1.540000	47.820000	80.450000	181.000000	0.000000	133.000000	50.000000	30.000000	0.000000
1.550000	48.170000	80.450000	42.000000	0.000000	133.000000	50.000000	35.000000	0.000000
1.560000	48.170000	80.450000	0.000000	1.000000	134.000000	50.000000	0.000000	0.000000
1.570000	48.880000	80.690000	0.000000	0.000000	134.000000	50.000000	71.000000	24.000000
1.580000	49.030000	80.940000	0.000000	0.000000	135.000000	51.000000	15.000000	25.000000
1.590000	49.030000	81.230000	0.000000	0.000000	135.000000	51.000000	0.000000	29.000000
1.600000	49.030000	81.580000	0.000000	0.000000	135.000000	51.000000	0.000000	35.000000
1.610000	49.030000	81.970000	0.000000	0.000000	135.000000	51.000000	0.000000	39.000000
1.620000	48.930000	82.160000	0.000000	0.000000	135.000000	51.000000	-10.000000	19.000000
1.630000	49.060000	82.300000	0.000000	0.000000	135.000000	51.000000	13.000000	14.000000
1.640000	49.370000	82.370000	0.000000	0.000000	134.000000	50.000000	31.000000	7.000000
1.650000	49.620000	82.270000	0.000000	0.000000	133.000000	50.000000	25.000000	-10.000000
1.660000	49.830000	82.070000	0.000000	0.000000	133.000000	48.000000	21.000000	-20.000000
1.670000	50.000000	81.870000	0.000000	0.000000	133.000000	48.000000	17.000000	-20.000000
1.680000	50.000000	81.730000	0.000000	0.000000	133.000000	48.000000	0.000000	-14.000000
1.690000	50.000000	81.660000	0.000000	0.000000	133.000000	48.000000	0.000000	-7.000000
1.700000	49.950000	81.660000	0.000000	0.000000	134.000000	49.000000	-5.000000	0.000000
1.710000	49.900000	81.660000	0.000000	0.000000	135.000000	50.000000	-5.000000	0.000000
1.720000	49.850000	81.660000	0.000000	0.000000	136.000000	50.000000	-5.000000	0.000000
1.730000	49.850000	81.660000	0.000000	0.000000	137.000000	51.000000	0.000000	0.000000
1.740000	49.850000	81.660000	0.000000	0.000000	137.000000	51.000000	0.000000	0.000000
1.750000	49.850000	81.660000	0.000000	0.000000	138.000000	51.000000	0.000000	0.000000
1.760000	49.850000	81.660000	0.000000	0.000000	138.000000	51.000000	0.000000	0.000000
1.770000	50.110000	81.910000	0.000000	0.000000	138.000000	51.000000	26.000000	25.000000
1.780000	50.300000	82.010000	0.000000	0.000000	138.000000	51.000000	19.000000	10.000000
1.790000	50.480000	82.100000	0.000000	0.000000	137.000000	51.000000	18.000000	9.000000
1.800000	50.480000	82.100000	22.000000	1.000000	137.000000	51.000000	0.000000	0.000000
1.810000	50.480000	82.100000	71.000000	0.000000	137.000000	51.000000	0.000000	0.000000
1.820000	50.480000	82.100000	120.000000	0.000000	137.000000	51.000000	0.000000	0.000000
1.830000	50.460000	82.350000	139.000000	0.000000	137.000000	51.000000	-2.000000	25.000000
1.840000	50.460000	82.350000	163.000000	0.000000	137.000000	51.000000	0.000000	0.000000
1.850000	50.370000	82.350000	173.000000	0.000000	137.000000	51.000000	-9.000000	0.000000
1.860000	50.370000	82.420000	195.000000	0.000000	138.000000	51.000000	0.000000	7.000000
1.870000	50.320000	82.420000	176.000000	0.000000	138.000000	51.000000	-5.000000	0.000000
1.880000	50.200000	82.420000	158.000000	0.000000	138.000000	51.000000	-12.000000	0.000000
1.890000	50.000000	82.230000	136.000000	0.000000	140.000000	51.000000	-20.000000	-19.000000
1.900000	49.760000	81.980000	127.000000	0.000000	140.000000	51.000000	-24.000000	-25.000000
1.910000	49.560000	81.740000	122.000000	0.000000	140.000000	51.000000	-20.000000	-24.000000
1.920000	49.420000	81.510000	122.000000	0.000000	140.000000	51.000000	-14.000000	-23.000000
1.930000	49.420000	81.290000	124.000000	0.000000	140.000000	51.000000	0.000000	-22.000000
1.940000	49.420000	81.130000	137.000000	0.000000	138.000000	51.000000	0.000000	-16.000000
1.950000	49.570000	81.000000	132.000000	0.000000	138.000000	51.000000	15.000000	-13.000000
1.960000	49.730000	80.930000	134.000000	0.000000	138.000000	51.000000	16.000000	-7.000000
1.970000	49.960000	80.980000	134.000000	0.000000	138.000000	51.000000	23.000000	5.000000
1.980000	50.230000	81.110000	10.000000	1.000000	138.000000	51.000000	0.000000	0.000000
1.990000	50.230000	81.110000	0.000000	0.000000	138.000000	51.000000	0.000000	0.000000
2.000000	50.910000	81.590000	0.000000	0.000000	138.000000	51.000000	68.000000	48.000000
2.010000	51.080000	81.820000	0.000000	0.000000	138.000000	51.000000	17.000000	23.000000
2.020000	51.130000	81.920000	0.000000	0.000000	138.000000	51.000000	5.000000	10.000000
2.030000	51.190000	82.020000	0.000000	0.000000	137.000000	51.000000	6.000000	10.000000
2.040000	51.260000	82.090000	0.000000	0.000000	137.000000	51.000000	7.000000	7.000000
2.050000	51.330000	82.090000	0.000000	0.000000	136.000000	50.000000	7.000000	0.000000
2.060000	51.400000	82.090000	0.000000	0.000000	136.000000	50.000000	7.000000	0.000000
2.070000	51.480000	82.040000	0.000000	0.000000	135.000000	50.000000	8.000000	-5.000000
2.080000	51.550000	81.990000	0.000000	0.000000	135.000000	50.000000	7.000000	-5.000000
2.090000	51.620000	81.990000	0.000000	0.000000	135.000000	50.000000	7.000000	0.000000
2.100000	51.620000	81.990000	0.000000	0.000000	134.000000	49.000000	0.000000	0.000000
2.110000	51.620000	82.050000	0.000000	0.000000	135.000000	50.000000	0.000000	6.000000
2.120000	51.620000	82.050000	54.000000	1.000000	135.000000	50.000000	0.000000	0.000000
2.130000	51.620000	82.050000	48.000000	0.000000	135.000000	50.000000	0.000000	0.000000
2.140000	51.560000	82.320000	53.000000	0.000000	136.000000	50.000000	-6.000000	27.000000
2.150000	51.560000	82.380000	55.000000	0.000000	136.000000	50.000000	0.000000	6.000000
2.160000	51.560000	82.430000	53.000000	0.000000	136.000000	50.000000	0.000000	5.000000
2.170000	51.560000	82.430000	54.000000	0.000000	136.000000	50.000000	0.000000	0.000000
2.180000	51.560000	82.430000	41.000000	0.000000	136.000000	50.000000	0.000000	0.000000
2.190000	51.560000	82.480000	27.000000	0.000000	136.000000	50.000000	0.000000	5.000000
2.200000	51.560000	82.480000	27.000000	0.000000	136.000000	50.000000	0.000000	0.000000
2.210000	51.500000	82.480000	29.000000	0.000000	136.000000	50.000000	-6.000000	0.000000
2.220000	51.380000	82.350000	36.000000	0.000000	136.000000	50.000000	-12.000000	-13.000000
2.230000	51.230000	82.200000	48.000000	0.000000	138.000000	50.000000	-15.000000	-15.000000
