t	x	y	pressure	penup	azimuth	inclination	v_x	v_y
0.000000	51.940000	12.850000	53.000000	1.000000	130.000000	65.000000	0.000000	0.000000
0.010000	51.940000	12.850000	316.000000	0.000000	128.000000	65.000000	0.000000	0.000000
0.020000	51.940000	12.850000	446.000000	0.000000	130.000000	66.000000	0.000000	0.000000
0.030000	51.770000	12.440000	620.000000	0.000000	130.000000	66.000000	-17.000000	-41.000000
0.040000	51.590000	11.930000	690.000000	0.000000	130.000000	67.000000	-18.000000	-51.000000
0.050000	51.330000	11.340000	759.000000	0.000000	128.000000	68.000000	-26.000000	-59.000000
0.060000	51.040000	10.690000	815.000000	0.000000	129.000000	68.000000	-29.000000	-65.000000
0.070000	50.750000	10.030000	851.000000	0.000000	127.000000	69.000000	-29.000000	-66.000000
0.080000	50.510000	9.390000	861.000000	0.000000	127.000000	69.000000	-24.000000	-64.000000
0.090000	50.320000	8.830000	870.000000	0.000000	127.000000	69.000000	-19.000000	-56.000000
0.100000	50.190000	8.320000	872.000000	0.000000	127.000000	69.000000	-13.000000	-51.000000
0.110000	50.080000	7.910000	855.000000	0.000000	127.000000	69.000000	-11.000000	-41.000000
0.120000	49.990000	7.680000	809.000000	0.000000	127.000000	69.000000	-9.000000	-23.000000
0.130000	49.940000	7.570000	670.000000	0.000000	127.000000	69.000000	-5.000000	-11.000000
0.140000	49.890000	7.570000	337.000000	0.000000	129.000000	68.000000	-5.000000	0.000000
0.150000	49.890000	7.570000	0.000000	1.000000	128.000000	68.000000	0.000000	0.000000
0.160000	49.890000	7.870000	0.000000	0.000000	128.000000	68.000000	0.000000	30.000000
0.170000	50.020000	8.170000	0.000000	0.000000	130.000000	67.000000	13.000000	30.000000
0.180000	50.190000	8.510000	0.000000	0.000000	130.000000	67.000000	17.000000	34.000000
0.190000	50.350000	8.870000	0.000000	0.000000	130.000000	67.000000	16.000000	36.000000
0.200000	50.510000	9.250000	0.000000	0.000000	128.000000	66.000000	16.000000	38.000000
0.210000	50.660000	9.620000	0.000000	0.000000	128.000000	66.000000	15.000000	37.000000
0.220000	50.760000	9.990000	0.000000	0.000000	128.000000	66.000000	10.000000	37.000000
0.230000	50.840000	10.320000	0.000000	0.000000	126.000000	66.000000	8.000000	33.000000
0.240000	50.840000	10.510000	0.000000	0.000000	124.000000	66.000000	0.000000	19.000000
0.250000	50.840000	10.620000	0.000000	0.000000	124.000000	66.000000	0.000000	11.000000
0.260000	50.700000	10.720000	0.000000	0.000000	123.000000	65.000000	-14.000000	10.000000
0.270000	50.700000	10.720000	107.000000	1.000000	122.000000	67.000000	0.000000	0.000000
0.280000	50.700000	10.980000	137.000000	0.000000	122.000000	67.000000	0.000000	26.000000
0.290000	50.890000	11.210000	223.000000	0.000000	122.000000	67.000000	19.000000	23.000000
0.300000	51.180000	11.570000	287.000000	0.000000	124.000000	67.000000	29.000000	36.000000
0.310000	51.630000	12.010000	336.000000	0.000000	124.000000	67.000000	45.000000	44.000000
0.320000	52.170000	12.500000	388.000000	0.000000	124.000000	67.000000	54.000000	49.000000
0.330000	52.690000	12.860000	455.000000	0.000000	124.000000	67.000000	52.000000	36.000000
0.340000	53.020000	13.180000	519.000000	0.000000	125.000000	68.000000	33.000000	32.000000
0.350000	53.210000	13.280000	570.000000	0.000000	125.000000	68.000000	19.000000	10.000000
0.360000	53.210000	13.280000	644.000000	0.000000	125.000000	68.000000	0.000000	0.000000
0.370000	53.260000	13.120000	727.000000	0.000000	125.000000	68.000000	5.000000	-16.000000
0.380000	53.160000	12.740000	774.000000	0.000000	128.000000	68.000000	-10.000000	-38.000000
0.390000	52.970000	12.190000	814.000000	0.000000	128.000000	68.000000	-19.000000	-55.000000
0.400000	52.650000	11.480000	831.000000	0.000000	128.000000	68.000000	-32.000000	-71.000000
0.410000	52.330000	10.850000	863.000000	0.000000	128.000000	68.000000	-32.000000	-63.000000
0.420000	52.000000	10.280000	854.000000	0.000000	128.000000	68.000000	-33.000000	-57.000000
0.430000	51.750000	9.800000	858.000000	0.000000	128.000000	68.000000	-25.000000	-48.000000
0.440000	51.520000	9.510000	861.000000	0.000000	128.000000	68.000000	-23.000000	-29.000000
0.450000	51.430000	9.360000	857.000000	0.000000	128.000000	68.000000	-9.000000	-15.000000
0.460000	51.430000	9.360000	858.000000	0.000000	125.000000	68.000000	0.000000	0.000000
0.470000	51.430000	9.410000	843.000000	0.000000	125.000000	68.000000	0.000000	5.000000
0.480000	51.540000	9.500000	831.000000	0.000000	125.000000	68.000000	11.000000	9.000000
0.490000	51.770000	9.760000	839.000000	0.000000	125.000000	68.000000	23.000000	26.000000
0.500000	52.100000	10.000000	842.000000	0.000000	125.000000	68.000000	33.000000	24.000000
0.510000	52.320000	10.070000	843.000000	0.000000	125.000000	68.000000	22.000000	7.000000
0.520000	52.390000	10.070000	864.000000	0.000000	125.000000	68.000000	7.000000	0.000000
0.530000	52.390000	10.070000	882.000000	0.000000	125.000000	68.000000	0.000000	0.000000
0.540000	52.190000	9.440000	900.000000	0.000000	127.000000	69.000000	-20.000000	-63.000000
0.550000	51.930000	8.880000	918.000000	0.000000	127.000000	69.000000	-26.000000	-56.000000
0.560000	51.600000	8.270000	936.000000	0.000000	129.000000	68.000000	-33.000000	-61.000000
0.570000	51.370000	7.700000	944.000000	0.000000	129.000000	68.000000	-23.000000	-57.000000
0.580000	51.150000	7.230000	950.000000	0.000000	129.000000	68.000000	-22.000000	-47.000000
0.590000	50.930000	6.820000	950.000000	0.000000	131.000000	68.000000	-22.000000	-41.000000
0.600000	50.730000	6.470000	923.000000	0.000000	133.000000	67.000000	-20.000000	-35.000000
0.610000	50.560000	6.310000	824.000000	0.000000	135.000000	67.000000	-17.000000	-16.000000
0.620000	50.560000	6.310000	560.000000	0.000000	135.000000	67.000000	0.000000	0.000000
0.630000	50.560000	6.310000	56.000000	0.000000	137.000000	66.000000	0.000000	0.000000
0.640000	50.560000	6.310000	0.000000	1.000000	137.000000	66.000000	0.000000	0.000000
0.650000	51.000000	7.060000	0.000000	0.000000	137.000000	66.000000	44.000000	75.000000
0.660000	51.320000	7.470000	0.000000	0.000000	137.000000	65.000000	32.000000	41.000000
0.670000	51.630000	7.830000	0.000000	0.000000	137.000000	65.000000	31.000000	36.000000
0.680000	51.850000	8.110000	0.000000	0.000000	135.000000	65.000000	22.000000	28.000000
0.690000	52.020000	8.220000	0.000000	0.000000	135.000000	65.000000	17.000000	11.000000
0.700000	52.020000	8.220000	66.000000	1.000000	135.000000	65.000000	0.000000	0.000000
0.710000	52.020000	8.220000	312.000000	0.000000	135.000000	65.000000	0.000000	0.000000
0.720000	52.020000	8.220000	396.000000	0.000000	133.000000	66.000000	0.000000	0.000000
0.730000	52.020000	8.220000	475.000000	0.000000	133.000000	66.000000	0.000000	0.000000
0.740000	52.020000	8.220000	526.000000	0.000000	133.000000	66.000000	0.000000	0.000000
0.750000	52.020000	8.220000	562.000000	0.000000	133.000000	66.000000	0.000000	0.000000
0.760000	52.350000	8.350000	577.000000	0.000000	131.000000	67.000000	33.000000	13.000000
0.770000	52.750000	8.660000	617.000000	0.000000	131.000000	67.000000	40.000000	31.000000
0.780000	53.230000	9.000000	642.000000	0.000000	133.000000	67.000000	48.000000	34.000000
0.790000	53.680000	9.330000	636.000000	0.000000	131.000000	68.000000	45.000000	33.000000
0.800000	54.030000	9.700000	662.000000	0.000000	131.000000	68.000000	35.000000	37.000000
0.810000	54.330000	10.110000	664.000000	0.000000	131.000000	68.000000	30.000000	41.000000
0.820000	54.550000	10.480000	672.000000	0.000000	129.000000	68.000000	22.000000	37.000000
0.830000	54.700000	10.870000	691.000000	0.000000	131.000000	69.000000	15.000000	39.000000
0.840000	54.790000	11.280000	710.000000	0.000000	131.000000	69.000000	9.000000	41.000000
0.850000	54.790000	11.600000	791.000000	0.000000	131.000000	69.000000	0.000000	32.000000
0.860000	54.790000	11.690000	825.000000	0.000000	133.000000	70.000000	0.000000	9.000000
0.870000	54.730000	11.640000	842.000000	0.000000	133.000000	70.000000	-6.000000	-5.000000
0.880000	54.540000	11.580000	855.000000	0.000000	133.000000	70.000000	-19.000000	-6.000000
0.890000	54.220000	11.280000	860.000000	0.000000	133.000000	70.000000	-32.000000	-30.000000
0.900000	53.810000	10.830000	870.000000	0.000000	133.000000	70.000000	-41.000000	-45.000000
0.910000	53.550000	10.350000	876.000000	0.000000	133.000000	70.000000	-26.000000	-48.000000
0.920000	53.310000	9.870000	879.000000	0.000000	131.000000	69.000000	-24.000000	-48.000000
0.930000	53.130000	9.370000	887.000000	0.000000	131.000000	69.000000	-18.000000	-50.000000
0.940000	53.040000	8.970000	882.000000	0.000000	131.000000	69.000000	-9.000000	-40.000000
0.950000	53.040000	8.630000	881.000000	0.000000	131.000000	69.000000	0.000000	-34.000000
0.960000	53.090000	8.380000	884.000000	0.000000	129.000000	68.000000	5.000000	-25.000000
0.970000	53.260000	8.240000	890.000000	0.000000	131.000000	68.000000	17.000000	-14.000000
0.980000	53.560000	8.180000	890.000000	0.000000	131.000000	68.000000	30.000000	-6.000000
0.990000	53.900000	8.260000	887.000000	0.000000	131.000000	68.000000	34.000000	8.000000
1.000000	54.310000	8.430000	882.000000	0.000000	131.000000	68.000000	41.000000	17.000000
1.010000	54.720000	8.650000	876.000000	0.000000	133.000000	69.000000	41.000000	22.000000
1.020000	55.140000	9.040000	858.000000	0.000000	133.000000	69.000000	42.000000	39.000000
1.030000	55.560000	9.470000	843.000000	0.000000	133.000000	69.000000	42.000000	43.000000
1.040000	55.880000	9.930000	833.000000	0.000000	135.000000	69.000000	32.000000	46.000000
1.050000	56.120000	10.480000	819.000000	0.000000	133.000000	70.000000	24.000000	55.000000
1.060000	56.310000	11.010000	828.000000	0.000000	133.000000	70.000000	19.000000	53.000000
1.070000	56.310000	11.270000	864.000000	0.000000	135.000000	71.000000	0.000000	26.000000
1.080000	56.260000	11.360000	857.000000	0.000000	135.000000	71.000000	-5.000000	9.000000
1.090000	56.020000	11.360000	869.000000	0.000000	135.000000	71.000000	-24.000000	0.000000
1.100000	55.710000	11.130000	881.000000	0.000000	135.000000	71.000000	-31.000000	-23.000000
1.110000	55.350000	10.760000	885.000000	0.000000	135.000000	71.000000	-36.000000	-37.000000
1.120000	55.080000	10.330000	890.000000	0.000000	135.000000	71.000000	-27.000000	-43.000000
1.130000	54.830000	9.790000	888.000000	0.000000	135.000000	71.000000	-25.000000	-54.000000
1.140000	54.630000	9.180000	887.000000	0.000000	135.000000	71.000000	-20.000000	-61.000000
1.150000	54.540000	8.710000	888.000000	0.000000	135.000000	71.000000	-9.000000	-47.000000
1.160000	54.540000	8.480000	882.000000	0.000000	133.000000	70.000000	0.000000	-23.000000
1.170000	54.610000	8.420000	879.000000	0.000000	133.000000	70.000000	7.000000	-6.000000
1.180000	54.610000	8.420000	882.000000	0.000000	135.000000	69.000000	0.000000	0.000000
1.190000	54.880000	8.640000	861.000000	0.000000	135.000000	69.000000	27.000000	22.000000
1.200000	55.240000	9.010000	864.000000	0.000000	135.000000	69.000000	36.000000	37.000000
1.210000	55.570000	9.440000	852.000000	0.000000	133.000000	70.000000	33.000000	43.000000
1.220000	55.850000	9.900000	824.000000	0.000000	133.000000	70.000000	28.000000	46.000000
1.230000	56.100000	10.380000	788.000000	0.000000	135.000000	71.000000	25.000000	48.000000
1.240000	56.290000	10.770000	784.000000	0.000000	135.000000	71.000000	19.000000	39.000000
1.250000	56.290000	10.930000	794.000000	0.000000	135.000000	71.000000	0.000000	16.000000
1.260000	56.290000	10.930000	783.000000	0.000000	135.000000	71.000000	0.000000	0.000000
1.270000	56.180000	10.720000	797.000000	0.000000	135.000000	71.000000	-11.000000	-21.000000
1.280000	56.020000	10.310000	805.000000	0.000000	135.000000	71.000000	-16.000000	-41.000000
1.290000	55.810000	9.780000	805.000000	0.000000	135.000000	71.000000	-21.000000	-53.000000
1.300000	55.610000	9.340000	818.000000	0.000000	135.000000	71.000000	-20.000000	-44.000000
1.310000	55.610000	9.020000	817.000000	0.000000	135.000000	71.000000	0.000000	-32.000000
1.320000	55.740000	8.780000	831.000000	0.000000	135.000000	71.000000	13.000000	-24.000000
1.330000	55.820000	8.730000	863.000000	0.000000	137.000000	70.000000	8.000000	-5.000000
1.340000	55.940000	8.810000	866.000000	0.000000	137.000000	70.000000	12.000000	8.000000
1.350000	56.080000	8.990000	876.000000	0.000000	137.000000	70.000000	14.000000	18.000000
1.360000	56.360000	9.330000	882.000000	0.000000	137.000000	70.000000	28.000000	34.000000
1.370000	56.600000	9.660000	882.000000	0.000000	135.000000	71.000000	24.000000	33.000000
1.380000	56.800000	10.100000	882.000000	0.000000	135.000000	71.000000	20.000000	44.000000
1.390000	57.090000	10.620000	869.000000	0.000000	137.000000	71.000000	29.000000	52.000000
1.400000	57.320000	11.260000	833.000000	0.000000	137.000000	71.000000	23.000000	64.000000
1.410000	57.500000	12.180000	832.000000	0.000000	137.000000	71.000000	18.000000	92.000000
1.420000	57.730000	13.300000	815.000000	0.000000	140.000000	72.000000	23.000000	112.000000
1.430000	57.970000	14.100000	818.000000	0.000000	140.000000	72.000000	24.000000	80.000000
1.440000	58.050000	14.540000	824.000000	0.000000	142.000000	71.000000	8.000000	44.000000
1.450000	58.050000	14.750000	854.000000	0.000000	139.000000	71.000000	0.000000	21.000000
1.460000	58.050000	14.750000	853.000000	0.000000	141.000000	70.000000	0.000000	0.000000
1.470000	58.000000	14.750000	853.000000	0.000000	143.000000	69.000000	-5.000000	0.000000
1.480000	58.000000	14.750000	855.000000	0.000000	142.000000	68.000000	0.000000	0.000000
1.490000	57.890000	14.460000	870.000000	0.000000	142.000000	68.000000	-11.000000	-29.000000
1.500000	57.740000	14.060000	884.000000	0.000000	142.000000	68.000000	-15.000000	-40.000000
1.510000	57.500000	13.380000	906.000000	0.000000	142.000000	68.000000	-24.000000	-68.000000
1.520000	57.280000	12.670000	906.000000	0.000000	142.000000	68.000000	-22.000000	-71.000000
1.530000	57.110000	11.910000	920.000000	0.000000	141.000000	68.000000	-17.000000	-76.000000
1.540000	56.910000	11.200000	930.000000	0.000000	139.000000	69.000000	-20.000000	-71.000000
1.550000	56.690000	10.540000	935.000000	0.000000	141.000000	70.000000	-22.000000	-66.000000
1.560000	56.580000	10.010000	936.000000	0.000000	139.000000	71.000000	-11.000000	-53.000000
1.570000	56.470000	9.590000	930.000000	0.000000	137.000000	71.000000	-11.000000	-42.000000
1.580000	56.380000	9.250000	890.000000	0.000000	137.000000	71.000000	-9.000000	-34.000000
1.590000	56.380000	9.100000	768.000000	0.000000	135.000000	71.000000	0.000000	-15.000000
1.600000	56.380000	9.040000	496.000000	0.000000	135.000000	71.000000	0.000000	-6.000000
1.610000	56.380000	9.040000	1.000000	1.000000	135.000000	71.000000	0.000000	0.000000
1.620000	56.380000	9.040000	0.000000	0.000000	135.000000	71.000000	0.000000	0.000000
1.630000	56.510000	9.320000	0.000000	0.000000	135.000000	71.000000	13.000000	28.000000
1.640000	56.660000	9.570000	0.000000	0.000000	137.000000	71.000000	15.000000	25.000000
1.650000	56.830000	9.920000	0.000000	0.000000	139.000000	71.000000	17.000000	35.000000
1.660000	57.050000	10.360000	0.000000	0.000000	139.000000	71.000000	22.000000	44.000000
1.670000	57.280000	10.860000	0.000000	0.000000	142.000000	71.000000	23.000000	50.000000
1.680000	57.350000	11.290000	0.000000	0.000000	142.000000	71.000000	7.000000	43.000000
1.690000	57.350000	11.680000	0.000000	0.000000	142.000000	71.000000	0.000000	39.000000
1.700000	57.140000	12.010000	0.000000	0.000000	143.000000	70.000000	-21.000000	33.000000
1.710000	57.140000	12.010000	206.000000	1.000000	142.000000	71.000000	0.000000	0.000000
1.720000	56.600000	12.040000	349.000000	0.000000	142.000000	71.000000	-54.000000	3.000000
1.730000	56.400000	12.040000	474.000000	0.000000	142.000000	71.000000	-20.000000	0.000000
1.740000	56.350000	12.090000	542.000000	0.000000	139.000000	71.000000	-5.000000	5.000000
1.750000	56.410000	12.090000	585.000000	0.000000	137.000000	71.000000	6.000000	0.000000
1.760000	56.460000	12.090000	663.000000	0.000000	135.000000	71.000000	5.000000	0.000000
1.770000	56.740000	12.090000	745.000000	0.000000	135.000000	71.000000	28.000000	0.000000
1.780000	57.160000	12.160000	790.000000	0.000000	131.000000	71.000000	42.000000	7.000000
1.790000	57.500000	12.290000	790.000000	0.000000	131.000000	71.000000	34.000000	13.000000
1.800000	57.840000	12.420000	799.000000	0.000000	131.000000	71.000000	34.000000	13.000000
1.810000	58.200000	12.560000	779.000000	0.000000	131.000000	71.000000	36.000000	14.000000
1.820000	58.490000	12.710000	656.000000	0.000000	131.000000	71.000000	29.000000	15.000000
1.830000	58.730000	12.770000	361.000000	0.000000	131.000000	71.000000	24.000000	6.000000
1.840000	58.730000	12.770000	0.000000	1.000000	131.000000	71.000000	0.000000	0.000000
1.850000	58.840000	12.720000	0.000000	0.000000	133.000000	70.000000	11.000000	-5.000000
1.860000	58.750000	12.550000	0.000000	0.000000	133.000000	70.000000	-9.000000	-17.000000
1.870000	58.580000	12.360000	0.000000	0.000000	133.000000	70.000000	-17.000000	-19.000000
1.880000	58.410000	12.120000	0.000000	0.000000	133.000000	70.000000	-17.000000	-24.000000
1.890000	58.410000	12.120000	107.000000	1.000000	133.000000	69.000000	0.000000	0.000000
1.900000	57.970000	11.370000	181.000000	0.000000	131.000000	69.000000	-44.000000	-75.000000
1.910000	57.900000	11.100000	301.000000	0.000000	131.000000	69.000000	-7.000000	-27.000000
1.920000	57.980000	10.900000	396.000000	0.000000	129.000000	68.000000	8.000000	-20.000000
1.930000	58.160000	10.780000	481.000000	0.000000	129.000000	68.000000	18.000000	-12.000000
1.940000	58.430000	10.780000	538.000000	0.000000	127.000000	69.000000	27.000000	0.000000
1.950000	58.730000	10.850000	570.000000	0.000000	125.000000	68.000000	30.000000	7.000000
1.960000	59.110000	11.050000	597.000000	0.000000	125.000000	68.000000	38.000000	20.000000
1.970000	59.530000	11.320000	609.000000	0.000000	127.000000	69.000000	42.000000	27.000000
1.980000	59.940000	11.630000	616.000000	0.000000	127.000000	69.000000	41.000000	31.000000
1.990000	60.160000	11.900000	617.000000	0.000000	127.000000	69.000000	22.000000	27.000000
2.000000	60.260000	12.160000	630.000000	0.000000	129.000000	70.000000	10.000000	26.000000
2.010000	60.260000	12.410000	669.000000	0.000000	129.000000	70.000000	0.000000	25.000000
2.020000	60.140000	12.520000	710.000000	0.000000	129.000000	70.000000	-12.000000	11.000000
2.030000	59.930000	12.520000	728.000000	0.000000	129.000000	70.000000	-21.000000	0.000000
2.040000	59.600000	12.390000	760.000000	0.000000	131.000000	69.000000	-33.000000	-13.000000
2.050000	59.170000	11.990000	788.000000	0.000000	131.000000	69.000000	-43.000000	-40.000000
2.060000	58.680000	11.430000	783.000000	0.000000	131.000000	69.000000	-49.000000	-56.000000
2.070000	58.350000	10.820000	791.000000	0.000000	131.000000	69.000000	-33.000000	-61.000000
2.080000	58.020000	10.160000	802.000000	0.000000	131.000000	69.000000	-33.000000	-66.000000
2.090000	57.890000	9.530000	830.000000	0.000000	131.000000	69.000000	-13.000000	-63.000000
2.100000	57.890000	8.930000	834.000000	0.000000	131.000000	69.000000	0.000000	-60.000000
2.110000	57.990000	8.620000	852.000000	0.000000	131.000000	69.000000	10.000000	-31.000000
2.120000	58.130000	8.470000	863.000000	0.000000	131.000000	69.000000	14.000000	-15.000000
2.130000	58.330000	8.470000	861.000000	0.000000	131.000000	69.000000	20.000000	0.000000
2.140000	58.550000	8.470000	864.000000	0.000000	131.000000	69.000000	22.000000	0.000000
2.150000	58.910000	8.740000	863.000000	0.000000	131.000000	69.000000	36.000000	27.000000
2.160000	59.370000	9.140000	855.000000	0.000000	131.000000	69.000000	46.000000	40.000000
2.170000	59.720000	9.580000	848.000000	0.000000	131.000000	69.000000	35.000000	44.000000
2.180000	60.060000	10.170000	806.000000	0.000000	131.000000	69.000000	34.000000	59.000000
2.190000	60.400000	10.860000	788.000000	0.000000	131.000000	69.000000	34.000000	69.000000
2.200000	60.680000	11.490000	785.000000	0.000000	131.000000	69.000000	28.000000	63.000000
2.210000	60.770000	11.790000	785.000000	0.000000	133.000000	70.000000	9.000000	30.000000
2.220000	60.720000	11.870000	791.000000	0.000000	133.000000	70.000000	-5.000000	8.000000
