t	x	y	pressure	penup	azimuth	inclination	v_x	v_y
0.000000	19.440000	14.920000	89.000000	1.000000	148.000000	57.000000	0.000000	0.000000
0.010000	19.440000	14.920000	251.000000	0.000000	150.000000	57.000000	0.000000	0.000000
0.020000	19.440000	14.920000	304.000000	0.000000	150.000000	57.000000	0.000000	0.000000
0.030000	19.440000	14.920000	396.000000	0.000000	151.000000	58.000000	0.000000	0.000000
0.040000	19.330000	14.890000	464.000000	0.000000	152.000000	59.000000	-11.000000	-3.000000
0.050000	19.170000	14.590000	524.000000	0.000000	152.000000	59.000000	-16.000000	-30.000000
0.060000	18.930000	14.150000	565.000000	0.000000	152.000000	60.000000	-24.000000	-44.000000
0.070000	18.720000	13.720000	588.000000	0.000000	151.000000	61.000000	-21.000000	-43.000000
0.080000	18.470000	13.120000	606.000000	0.000000	150.000000	62.000000	-25.000000	-60.000000
0.090000	18.150000	12.420000	620.000000	0.000000	150.000000	62.000000	-32.000000	-70.000000
0.100000	17.790000	11.650000	647.000000	0.000000	149.000000	63.000000	-36.000000	-77.000000
0.110000	17.520000	11.060000	649.000000	0.000000	148.000000	63.000000	-27.000000	-59.000000
0.120000	17.260000	10.600000	652.000000	0.000000	146.000000	64.000000	-26.000000	-46.000000
0.130000	17.050000	10.170000	653.000000	0.000000	146.000000	64.000000	-21.000000	-43.000000
0.140000	16.840000	9.940000	662.000000	0.000000	145.000000	65.000000	-21.000000	-23.000000
0.150000	16.770000	9.840000	667.000000	0.000000	145.000000	65.000000	-7.000000	-10.000000
0.160000	16.770000	9.840000	673.000000	0.000000	145.000000	65.000000	0.000000	0.000000
0.170000	16.770000	9.840000	667.000000	0.000000	145.000000	65.000000	0.000000	0.000000
0.180000	16.770000	10.000000	667.000000	0.000000	145.000000	65.000000	0.000000	16.000000
0.190000	16.990000	10.240000	656.000000	0.000000	145.000000	65.000000	22.000000	24.000000
0.200000	17.270000	10.690000	630.000000	0.000000	145.000000	65.000000	28.000000	45.000000
0.210000	17.610000	11.280000	610.000000	0.000000	145.000000	65.000000	34.000000	59.000000
0.220000	17.950000	11.970000	606.000000	0.000000	145.000000	65.000000	34.000000	69.000000
0.230000	18.320000	12.690000	589.000000	0.000000	145.000000	65.000000	37.000000	72.000000
0.240000	18.750000	13.370000	586.000000	0.000000	145.000000	65.000000	43.000000	68.000000
0.250000	19.190000	13.970000	584.000000	0.000000	145.000000	65.000000	44.000000	60.000000
0.260000	19.610000	14.420000	586.000000	0.000000	145.000000	65.000000	42.000000	45.000000
0.270000	19.900000	14.780000	586.000000	0.000000	146.000000	64.000000	29.000000	36.000000
0.280000	20.130000	14.980000	588.000000	0.000000	148.000000	63.000000	23.000000	20.000000
0.290000	20.290000	15.120000	589.000000	0.000000	148.000000	63.000000	16.000000	14.000000
0.300000	20.370000	15.120000	588.000000	0.000000	149.000000	63.000000	8.000000	0.000000
0.310000	20.370000	15.120000	585.000000	0.000000	152.000000	62.000000	0.000000	0.000000
0.320000	20.370000	14.990000	592.000000	0.000000	153.000000	61.000000	0.000000	-13.000000
0.330000	20.280000	14.670000	605.000000	0.000000	153.000000	61.000000	-9.000000	-32.000000
0.340000	20.110000	14.230000	627.000000	0.000000	153.000000	61.000000	-17.000000	-44.000000
0.350000	19.800000	13.610000	633.000000	0.000000	153.000000	61.000000	-31.000000	-62.000000
0.360000	19.440000	12.970000	631.000000	0.000000	152.000000	62.000000	-36.000000	-64.000000
0.370000	19.050000	12.270000	633.000000	0.000000	151.000000	63.000000	-39.000000	-70.000000
0.380000	18.690000	11.670000	638.000000	0.000000	148.000000	63.000000	-36.000000	-60.000000
0.390000	18.380000	11.160000	636.000000	0.000000	146.000000	64.000000	-31.000000	-51.000000
0.400000	18.160000	10.880000	638.000000	0.000000	146.000000	64.000000	-22.000000	-28.000000
0.410000	17.980000	10.730000	638.000000	0.000000	145.000000	65.000000	-18.000000	-15.000000
0.420000	17.980000	10.680000	622.000000	0.000000	145.000000	65.000000	0.000000	-5.000000
0.430000	17.980000	10.680000	620.000000	0.000000	144.000000	66.000000	0.000000	0.000000
0.440000	17.980000	10.780000	614.000000	0.000000	144.000000	66.000000	0.000000	10.000000
0.450000	18.250000	10.930000	611.000000	0.000000	144.000000	66.000000	27.000000	15.000000
0.460000	18.600000	11.190000	609.000000	0.000000	144.000000	66.000000	35.000000	26.000000
0.470000	18.920000	11.300000	616.000000	0.000000	144.000000	66.000000	32.000000	11.000000
0.480000	19.070000	11.300000	622.000000	0.000000	144.000000	66.000000	15.000000	0.000000
0.490000	19.070000	11.220000	644.000000	0.000000	146.000000	66.000000	0.000000	-8.000000
0.500000	19.070000	11.110000	661.000000	0.000000	146.000000	66.000000	0.000000	-11.000000
0.510000	18.980000	10.820000	666.000000	0.000000	146.000000	66.000000	-9.000000	-29.000000
0.520000	18.790000	10.430000	672.000000	0.000000	146.000000	66.000000	-19.000000	-39.000000
0.530000	18.520000	10.050000	687.000000	0.000000	146.000000	66.000000	-27.000000	-38.000000
0.540000	18.270000	9.760000	690.000000	0.000000	146.000000	66.000000	-25.000000	-29.000000
0.550000	18.050000	9.540000	687.000000	0.000000	146.000000	66.000000	-22.000000	-22.000000
0.560000	17.850000	9.360000	690.000000	0.000000	146.000000	66.000000	-20.000000	-18.000000
0.570000	17.690000	9.250000	676.000000	0.000000	146.000000	66.000000	-16.000000	-11.000000
0.580000	17.610000	9.200000	643.000000	0.000000	146.000000	66.000000	-8.000000	-5.000000
0.590000	17.610000	9.200000	545.000000	0.000000	147.000000	65.000000	0.000000	0.000000
0.600000	17.610000	9.200000	344.000000	0.000000	147.000000	65.000000	0.000000	0.000000
0.610000	17.610000	9.300000	144.000000	0.000000	147.000000	65.000000	0.000000	10.000000
0.620000	17.610000	9.300000	0.000000	1.000000	147.000000	65.000000	0.000000	0.000000
0.630000	18.030000	9.610000	0.000000	0.000000	145.000000	65.000000	42.000000	31.000000
0.640000	18.030000	9.610000	22.000000	1.000000	145.000000	65.000000	0.000000	0.000000
0.650000	18.350000	9.780000	141.000000	0.000000	145.000000	65.000000	32.000000	17.000000
0.660000	18.440000	9.780000	249.000000	0.000000	144.000000	66.000000	9.000000	0.000000
0.670000	18.540000	9.870000	334.000000	0.000000	144.000000	66.000000	10.000000	9.000000
0.680000	18.690000	9.990000	404.000000	0.000000	144.000000	66.000000	15.000000	12.000000
0.690000	18.890000	10.140000	438.000000	0.000000	144.000000	67.000000	20.000000	15.000000
0.700000	19.140000	10.400000	456.000000	0.000000	144.000000	67.000000	25.000000	26.000000
0.710000	19.540000	10.740000	495.000000	0.000000	144.000000	67.000000	40.000000	34.000000
0.720000	20.030000	11.130000	495.000000	0.000000	142.000000	68.000000	49.000000	39.000000
0.730000	20.460000	11.600000	501.000000	0.000000	142.000000	68.000000	43.000000	47.000000
0.740000	20.840000	12.060000	504.000000	0.000000	142.000000	68.000000	38.000000	46.000000
0.750000	21.180000	12.520000	510.000000	0.000000	142.000000	68.000000	34.000000	46.000000
0.760000	21.370000	12.970000	512.000000	0.000000	142.000000	68.000000	19.000000	45.000000
0.770000	21.470000	13.340000	526.000000	0.000000	142.000000	68.000000	10.000000	37.000000
0.780000	21.470000	13.600000	610.000000	0.000000	142.000000	68.000000	0.000000	26.000000
0.790000	21.470000	13.670000	650.000000	0.000000	142.000000	68.000000	0.000000	7.000000
0.800000	21.360000	13.620000	655.000000	0.000000	142.000000	68.000000	-11.000000	-5.000000
0.810000	21.170000	13.620000	670.000000	0.000000	142.000000	68.000000	-19.000000	0.000000
0.820000	20.920000	13.510000	678.000000	0.000000	144.000000	67.000000	-25.000000	-11.000000
0.830000	20.670000	13.290000	685.000000	0.000000	144.000000	67.000000	-25.000000	-22.000000
0.840000	20.410000	12.960000	694.000000	0.000000	144.000000	67.000000	-26.000000	-33.000000
0.850000	20.110000	12.530000	690.000000	0.000000	146.000000	66.000000	-30.000000	-43.000000
0.860000	19.810000	11.970000	696.000000	0.000000	146.000000	66.000000	-30.000000	-56.000000
0.870000	19.620000	11.340000	697.000000	0.000000	144.000000	67.000000	-19.000000	-63.000000
0.880000	19.500000	10.910000	696.000000	0.000000	144.000000	67.000000	-12.000000	-43.000000
0.890000	19.500000	10.570000	699.000000	0.000000	144.000000	67.000000	0.000000	-34.000000
0.900000	19.560000	10.300000	699.000000	0.000000	144.000000	67.000000	6.000000	-27.000000
0.910000	19.680000	10.120000	697.000000	0.000000	142.000000	68.000000	12.000000	-18.000000
0.920000	19.860000	10.020000	705.000000	0.000000	142.000000	68.000000	18.000000	-10.000000
0.930000	20.080000	9.970000	705.000000	0.000000	142.000000	68.000000	22.000000	-5.000000
0.940000	20.390000	10.040000	705.000000	0.000000	142.000000	68.000000	31.000000	7.000000
0.950000	20.790000	10.230000	700.000000	0.000000	141.000000	68.000000	40.000000	19.000000
0.960000	21.230000	10.510000	700.000000	0.000000	141.000000	68.000000	44.000000	28.000000
0.970000	21.670000	10.850000	699.000000	0.000000	141.000000	68.000000	44.000000	34.000000
0.980000	22.010000	11.290000	694.000000	0.000000	139.000000	69.000000	34.000000	44.000000
0.990000	22.300000	11.800000	702.000000	0.000000	139.000000	69.000000	29.000000	51.000000
1.000000	22.500000	12.320000	696.000000	0.000000	139.000000	69.000000	20.000000	52.000000
1.010000	22.610000	12.820000	693.000000	0.000000	137.000000	69.000000	11.000000	50.000000
1.020000	22.660000	13.010000	727.000000	0.000000	137.000000	69.000000	5.000000	19.000000
1.030000	22.660000	13.010000	721.000000	0.000000	137.000000	69.000000	0.000000	0.000000
1.040000	22.460000	12.950000	722.000000	0.000000	139.000000	68.000000	-20.000000	-6.000000
1.050000	22.160000	12.710000	725.000000	0.000000	139.000000	68.000000	-30.000000	-24.000000
1.060000	21.760000	12.340000	728.000000	0.000000	139.000000	68.000000	-40.000000	-37.000000
1.070000	21.360000	11.790000	728.000000	0.000000	139.000000	68.000000	-40.000000	-55.000000
1.080000	21.090000	11.230000	724.000000	0.000000	139.000000	68.000000	-27.000000	-56.000000
1.090000	20.910000	10.660000	733.000000	0.000000	139.000000	68.000000	-18.000000	-57.000000
1.100000	20.910000	10.330000	727.000000	0.000000	139.000000	68.000000	0.000000	-33.000000
1.110000	20.910000	10.150000	711.000000	0.000000	139.000000	68.000000	0.000000	-18.000000
1.120000	20.960000	10.150000	705.000000	0.000000	137.000000	69.000000	5.000000	0.000000
1.130000	21.120000	10.260000	691.000000	0.000000	137.000000	69.000000	16.000000	11.000000
1.140000	21.390000	10.480000	691.000000	0.000000	137.000000	69.000000	27.000000	22.000000
1.150000	21.730000	10.860000	673.000000	0.000000	137.000000	69.000000	34.000000	38.000000
1.160000	22.110000	11.250000	673.000000	0.000000	137.000000	69.000000	38.000000	39.000000
1.170000	22.350000	11.660000	656.000000	0.000000	137.000000	69.000000	24.000000	41.000000
1.180000	22.490000	12.010000	652.000000	0.000000	137.000000	69.000000	14.000000	35.000000
1.190000	22.540000	12.140000	643.000000	0.000000	137.000000	69.000000	5.000000	13.000000
1.200000	22.540000	12.140000	644.000000	0.000000	137.000000	69.000000	0.000000	0.000000
1.210000	22.470000	12.020000	641.000000	0.000000	137.000000	69.000000	-7.000000	-12.000000
1.220000	22.380000	11.730000	647.000000	0.000000	137.000000	69.000000	-9.000000	-29.000000
1.230000	22.290000	11.310000	645.000000	0.000000	137.000000	69.000000	-9.000000	-42.000000
1.240000	22.290000	10.990000	644.000000	0.000000	137.000000	69.000000	0.000000	-32.000000
1.250000	22.450000	10.820000	647.000000	0.000000	137.000000	69.000000	16.000000	-17.000000
1.260000	22.670000	10.740000	641.000000	0.000000	137.000000	69.000000	22.000000	-8.000000
1.270000	22.860000	10.810000	647.000000	0.000000	137.000000	69.000000	19.000000	7.000000
1.280000	23.020000	10.980000	650.000000	0.000000	135.000000	69.000000	16.000000	17.000000
1.290000	23.230000	11.210000	650.000000	0.000000	135.000000	69.000000	21.000000	23.000000
1.300000	23.440000	11.570000	653.000000	0.000000	135.000000	69.000000	21.000000	36.000000
1.310000	23.650000	12.000000	652.000000	0.000000	135.000000	69.000000	21.000000	43.000000
1.320000	23.840000	12.480000	647.000000	0.000000	135.000000	69.000000	19.000000	48.000000
1.330000	24.040000	13.020000	645.000000	0.000000	135.000000	69.000000	20.000000	54.000000
1.340000	24.270000	13.710000	620.000000	0.000000	137.000000	70.000000	23.000000	69.000000
1.350000	24.510000	14.510000	611.000000	0.000000	139.000000	69.000000	24.000000	80.000000
1.360000	24.760000	15.280000	606.000000	0.000000	141.000000	68.000000	25.000000	77.000000
1.370000	25.040000	16.000000	605.000000	0.000000	142.000000	68.000000	28.000000	72.000000
1.380000	25.180000	16.420000	616.000000	0.000000	144.000000	67.000000	14.000000	42.000000
1.390000	25.230000	16.660000	624.000000	0.000000	146.000000	66.000000	5.000000	24.000000
1.400000	25.230000	16.720000	642.000000	0.000000	147.000000	65.000000	0.000000	6.000000
1.410000	25.230000	16.720000	647.000000	0.000000	148.000000	65.000000	0.000000	0.000000
1.420000	25.230000	16.720000	640.000000	0.000000	150.000000	64.000000	0.000000	0.000000
1.430000	25.170000	16.480000	653.000000	0.000000	151.000000	63.000000	-6.000000	-24.000000
1.440000	25.030000	16.100000	670.000000	0.000000	152.000000	62.000000	-14.000000	-38.000000
1.450000	24.830000	15.530000	687.000000	0.000000	152.000000	62.000000	-20.000000	-57.000000
1.460000	24.570000	14.920000	691.000000	0.000000	152.000000	62.000000	-26.000000	-61.000000
1.470000	24.320000	14.240000	710.000000	0.000000	152.000000	62.000000	-25.000000	-68.000000
1.480000	24.100000	13.550000	719.000000	0.000000	151.000000	63.000000	-22.000000	-69.000000
1.490000	23.880000	12.840000	720.000000	0.000000	150.000000	64.000000	-22.000000	-71.000000
1.500000	23.690000	12.230000	728.000000	0.000000	148.000000	65.000000	-19.000000	-61.000000
1.510000	23.510000	11.680000	736.000000	0.000000	147.000000	65.000000	-18.000000	-55.000000
1.520000	23.380000	11.180000	740.000000	0.000000	146.000000	66.000000	-13.000000	-50.000000
1.530000	23.300000	10.830000	739.000000	0.000000	142.000000	68.000000	-8.000000	-35.000000
1.540000	23.250000	10.580000	737.000000	0.000000	139.000000	68.000000	-5.000000	-25.000000
1.550000	23.200000	10.420000	690.000000	0.000000	139.000000	68.000000	-5.000000	-16.000000
1.560000	23.200000	10.420000	594.000000	0.000000	137.000000	69.000000	0.000000	0.000000
1.570000	23.200000	10.420000	362.000000	0.000000	137.000000	69.000000	0.000000	0.000000
1.580000	23.200000	10.420000	0.000000	1.000000	137.000000	69.000000	0.000000	0.000000
1.590000	23.390000	10.650000	0.000000	0.000000	137.000000	69.000000	19.000000	23.000000
1.600000	23.550000	10.930000	0.000000	0.000000	137.000000	69.000000	16.000000	28.000000
1.610000	23.720000	11.270000	0.000000	0.000000	137.000000	69.000000	17.000000	34.000000
1.620000	23.860000	11.700000	0.000000	0.000000	139.000000	69.000000	14.000000	43.000000
1.630000	24.020000	12.200000	0.000000	0.000000	141.000000	68.000000	16.000000	50.000000
1.640000	24.130000	12.700000	0.000000	0.000000	141.000000	68.000000	11.000000	50.000000
1.650000	24.210000	13.140000	0.000000	0.000000	142.000000	68.000000	8.000000	44.000000
1.660000	24.160000	13.480000	0.000000	0.000000	144.000000	67.000000	-5.000000	34.000000
1.670000	23.980000	13.680000	0.000000	0.000000	146.000000	66.000000	-18.000000	20.000000
1.680000	23.710000	13.770000	0.000000	0.000000	147.000000	65.000000	-27.000000	9.000000
1.690000	23.710000	13.770000	250.000000	1.000000	147.000000	65.000000	0.000000	0.000000
1.700000	23.230000	13.770000	302.000000	0.000000	146.000000	64.000000	-48.000000	0.000000
1.710000	23.110000	13.840000	394.000000	0.000000	146.000000	64.000000	-12.000000	7.000000
1.720000	23.110000	13.840000	466.000000	0.000000	145.000000	65.000000	0.000000	0.000000
1.730000	23.110000	13.840000	510.000000	0.000000	143.000000	64.000000	0.000000	0.000000
1.740000	23.220000	13.840000	559.000000	0.000000	142.000000	65.000000	11.000000	0.000000
1.750000	23.470000	13.780000	570.000000	0.000000	142.000000	65.000000	25.000000	-6.000000
1.760000	23.820000	13.780000	580.000000	0.000000	138.000000	65.000000	35.000000	0.000000
1.770000	24.150000	13.780000	577.000000	0.000000	140.000000	66.000000	33.000000	0.000000
1.780000	24.470000	13.780000	542.000000	0.000000	140.000000	66.000000	32.000000	0.000000
1.790000	24.790000	13.780000	458.000000	0.000000	139.000000	67.000000	32.000000	0.000000
1.800000	25.100000	13.830000	207.000000	0.000000	140.000000	67.000000	31.000000	5.000000
1.810000	25.100000	13.830000	0.000000	1.000000	140.000000	67.000000	0.000000	0.000000
1.820000	25.580000	13.830000	0.000000	0.000000	142.000000	68.000000	48.000000	0.000000
1.830000	25.580000	13.690000	0.000000	0.000000	142.000000	68.000000	0.000000	-14.000000
1.840000	25.580000	13.630000	0.000000	0.000000	145.000000	68.000000	0.000000	-6.000000
1.850000	25.500000	13.580000	0.000000	0.000000	145.000000	68.000000	-8.000000	-5.000000
1.860000	25.420000	13.440000	0.000000	0.000000	148.000000	68.000000	-8.000000	-14.000000
1.870000	25.420000	13.440000	267.000000	1.000000	147.000000	69.000000	0.000000	0.000000
1.880000	25.260000	13.200000	301.000000	0.000000	147.000000	69.000000	-16.000000	-24.000000
1.890000	25.260000	13.150000	412.000000	0.000000	147.000000	69.000000	0.000000	-5.000000
1.900000	25.260000	13.150000	471.000000	0.000000	145.000000	70.000000	0.000000	0.000000
1.910000	25.340000	13.080000	489.000000	0.000000	145.000000	70.000000	8.000000	-7.000000
1.920000	25.410000	13.080000	516.000000	0.000000	145.000000	70.000000	7.000000	0.000000
1.930000	25.540000	13.080000	540.000000	0.000000	143.000000	70.000000	13.000000	0.000000
1.940000	25.760000	13.230000	537.000000	0.000000	141.000000	70.000000	22.000000	15.000000
1.950000	26.090000	13.430000	543.000000	0.000000	139.000000	71.000000	33.000000	20.000000
1.960000	26.480000	13.600000	553.000000	0.000000	139.000000	71.000000	39.000000	17.000000
1.970000	26.680000	13.750000	564.000000	0.000000	139.000000	71.000000	20.000000	15.000000
1.980000	26.740000	13.850000	599.000000	0.000000	142.000000	71.000000	6.000000	10.000000
1.990000	26.740000	13.920000	641.000000	0.000000	142.000000	71.000000	0.000000	7.000000
2.000000	26.640000	13.920000	667.000000	0.000000	142.000000	71.000000	-10.000000	0.000000
2.010000	26.510000	13.920000	679.000000	0.000000	142.000000	71.000000	-13.000000	0.000000
2.020000	26.330000	13.920000	687.000000	0.000000	142.000000	71.000000	-18.000000	0.000000
2.030000	25.870000	13.660000	696.000000	0.000000	142.000000	71.000000	-46.000000	-26.000000
2.040000	25.450000	13.260000	691.000000	0.000000	143.000000	70.000000	-42.000000	-40.000000
2.050000	25.090000	12.770000	702.000000	0.000000	142.000000	71.000000	-36.000000	-49.000000
2.060000	24.800000	12.170000	691.000000	0.000000	142.000000	71.000000	-29.000000	-60.000000
2.070000	24.670000	11.500000	691.000000	0.000000	139.000000	71.000000	-13.000000	-67.000000
2.080000	24.670000	10.990000	699.000000	0.000000	139.000000	71.000000	0.000000	-51.000000
2.090000	24.770000	10.670000	708.000000	0.000000	135.000000	71.000000	10.000000	-32.000000
2.100000	24.910000	10.480000	719.000000	0.000000	135.000000	71.000000	14.000000	-19.000000
2.110000	25.060000	10.370000	725.000000	0.000000	135.000000	71.000000	15.000000	-11.000000
2.120000	25.290000	10.370000	727.000000	0.000000	135.000000	71.000000	23.000000	0.000000
2.130000	25.550000	10.370000	717.000000	0.000000	135.000000	71.000000	26.000000	0.000000
2.140000	25.870000	10.520000	690.000000	0.000000	133.000000	71.000000	32.000000	15.000000
2.150000	26.280000	10.770000	684.000000	0.000000	135.000000	72.000000	41.000000	25.000000
2.160000	26.710000	11.090000	670.000000	0.000000	135.000000	72.000000	43.000000	32.000000
2.170000	27.030000	11.490000	644.000000	0.000000	135.000000	72.000000	32.000000	40.000000
2.180000	27.270000	11.990000	613.000000	0.000000	135.000000	72.000000	24.000000	50.000000
2.190000	27.460000	12.550000	603.000000	0.000000	135.000000	72.000000	19.000000	56.000000
2.200000	27.610000	13.060000	595.000000	0.000000	135.000000	72.000000	15.000000	51.000000
2.210000	27.720000	13.530000	608.000000	0.000000	133.000000	71.000000	11.000000	47.000000
