t	x	y	pressure	penup	azimuth	inclination	v_x	v_y
0.000000	15.870000	26.370000	44.000000	1.000000	187.000000	73.000000	0.000000	0.000000
0.010000	15.870000	26.370000	113.000000	0.000000	187.000000	73.000000	0.000000	0.000000
0.020000	15.870000	26.370000	131.000000	0.000000	187.000000	73.000000	0.000000	0.000000
0.030000	15.790000	26.070000	202.000000	0.000000	187.000000	74.000000	-8.000000	-30.000000
0.040000	15.790000	25.860000	279.000000	0.000000	187.000000	74.000000	0.000000	-21.000000
0.050000	15.730000	25.560000	345.000000	0.000000	183.000000	74.000000	-6.000000	-30.000000
0.060000	15.730000	25.210000	415.000000	0.000000	183.000000	74.000000	0.000000	-35.000000
0.070000	15.820000	24.880000	475.000000	0.000000	184.000000	75.000000	9.000000	-33.000000
0.080000	15.910000	24.560000	538.000000	0.000000	184.000000	75.000000	9.000000	-32.000000
0.090000	15.980000	24.230000	586.000000	0.000000	184.000000	75.000000	7.000000	-33.000000
0.100000	16.030000	23.930000	636.000000	0.000000	184.000000	75.000000	5.000000	-30.000000
0.110000	16.030000	23.650000	655.000000	0.000000	187.000000	75.000000	0.000000	-28.000000
0.120000	16.030000	23.550000	690.000000	0.000000	187.000000	75.000000	0.000000	-10.000000
0.130000	16.030000	23.550000	739.000000	0.000000	187.000000	75.000000	0.000000	0.000000
0.140000	16.030000	23.550000	787.000000	0.000000	187.000000	75.000000	0.000000	0.000000
0.150000	16.030000	23.600000	818.000000	0.000000	187.000000	75.000000	0.000000	5.000000
0.160000	15.980000	23.950000	817.000000	0.000000	187.000000	75.000000	-5.000000	35.000000
0.170000	15.980000	24.530000	829.000000	0.000000	187.000000	75.000000	0.000000	58.000000
0.180000	15.920000	25.450000	824.000000	0.000000	184.000000	75.000000	-6.000000	92.000000
0.190000	15.830000	26.750000	827.000000	0.000000	184.000000	75.000000	-9.000000	130.000000
0.200000	15.830000	28.310000	827.000000	0.000000	184.000000	75.000000	0.000000	156.000000
0.210000	15.940000	29.650000	843.000000	0.000000	180.000000	75.000000	11.000000	134.000000
0.220000	16.300000	30.530000	860.000000	0.000000	180.000000	74.000000	36.000000	88.000000
0.230000	16.680000	31.110000	860.000000	0.000000	180.000000	74.000000	38.000000	58.000000
0.240000	17.200000	31.480000	861.000000	0.000000	177.000000	73.000000	52.000000	37.000000
0.250000	17.800000	31.640000	863.000000	0.000000	177.000000	72.000000	60.000000	16.000000
0.260000	18.420000	31.640000	864.000000	0.000000	174.000000	71.000000	62.000000	0.000000
0.270000	18.980000	31.420000	860.000000	0.000000	175.000000	70.000000	56.000000	-22.000000
0.280000	19.490000	31.020000	855.000000	0.000000	172.000000	70.000000	51.000000	-40.000000
0.290000	19.870000	30.510000	852.000000	0.000000	172.000000	70.000000	38.000000	-51.000000
0.300000	19.960000	29.940000	846.000000	0.000000	172.000000	69.000000	9.000000	-57.000000
0.310000	19.850000	29.370000	843.000000	0.000000	170.000000	69.000000	-11.000000	-57.000000
0.320000	19.560000	28.800000	839.000000	0.000000	169.000000	70.000000	-29.000000	-57.000000
0.330000	19.130000	28.260000	839.000000	0.000000	169.000000	70.000000	-43.000000	-54.000000
0.340000	18.600000	27.910000	837.000000	0.000000	169.000000	70.000000	-53.000000	-35.000000
0.350000	18.300000	27.650000	837.000000	0.000000	169.000000	71.000000	-30.000000	-26.000000
0.360000	18.140000	27.590000	842.000000	0.000000	169.000000	71.000000	-16.000000	-6.000000
0.370000	18.080000	27.590000	834.000000	0.000000	168.000000	72.000000	-6.000000	0.000000
0.380000	18.150000	27.590000	828.000000	0.000000	168.000000	72.000000	7.000000	0.000000
0.390000	18.250000	27.650000	822.000000	0.000000	168.000000	72.000000	10.000000	6.000000
0.400000	18.630000	27.850000	824.000000	0.000000	168.000000	72.000000	38.000000	20.000000
0.410000	19.170000	28.130000	825.000000	0.000000	168.000000	72.000000	54.000000	28.000000
0.420000	19.780000	28.290000	827.000000	0.000000	168.000000	72.000000	61.000000	16.000000
0.430000	20.530000	28.390000	828.000000	0.000000	168.000000	72.000000	75.000000	10.000000
0.440000	21.380000	28.390000	828.000000	0.000000	168.000000	72.000000	85.000000	0.000000
0.450000	21.970000	28.240000	825.000000	0.000000	168.000000	72.000000	59.000000	-15.000000
0.460000	22.280000	27.930000	827.000000	0.000000	168.000000	72.000000	31.000000	-31.000000
0.470000	22.410000	27.520000	828.000000	0.000000	168.000000	72.000000	13.000000	-41.000000
0.480000	22.340000	27.060000	836.000000	0.000000	171.000000	72.000000	-7.000000	-46.000000
0.490000	21.990000	26.600000	845.000000	0.000000	170.000000	73.000000	-35.000000	-46.000000
0.500000	21.460000	26.160000	845.000000	0.000000	170.000000	73.000000	-53.000000	-44.000000
0.510000	20.920000	25.890000	852.000000	0.000000	170.000000	73.000000	-54.000000	-27.000000
0.520000	20.500000	25.710000	854.000000	0.000000	170.000000	74.000000	-42.000000	-18.000000
0.530000	20.170000	25.550000	857.000000	0.000000	173.000000	74.000000	-33.000000	-16.000000
0.540000	19.850000	25.450000	855.000000	0.000000	173.000000	74.000000	-32.000000	-10.000000
0.550000	19.700000	25.380000	855.000000	0.000000	173.000000	74.000000	-15.000000	-7.000000
0.560000	19.700000	25.380000	845.000000	0.000000	173.000000	74.000000	0.000000	0.000000
0.570000	19.700000	25.380000	823.000000	0.000000	173.000000	74.000000	0.000000	0.000000
0.580000	19.700000	25.380000	748.000000	0.000000	173.000000	74.000000	0.000000	0.000000
0.590000	19.700000	25.380000	591.000000	0.000000	173.000000	74.000000	0.000000	0.000000
0.600000	19.700000	25.380000	183.000000	0.000000	173.000000	74.000000	0.000000	0.000000
0.610000	19.700000	25.380000	0.000000	1.000000	173.000000	74.000000	0.000000	0.000000
0.620000	19.890000	25.730000	0.000000	0.000000	170.000000	74.000000	19.000000	35.000000
0.630000	19.980000	25.900000	0.000000	0.000000	170.000000	74.000000	9.000000	17.000000
0.640000	20.200000	26.080000	0.000000	0.000000	170.000000	74.000000	22.000000	18.000000
0.650000	20.480000	26.270000	0.000000	0.000000	170.000000	74.000000	28.000000	19.000000
0.660000	20.860000	26.460000	0.000000	0.000000	170.000000	73.000000	38.000000	19.000000
0.670000	21.240000	26.620000	0.000000	0.000000	171.000000	72.000000	38.000000	16.000000
0.680000	21.610000	26.740000	0.000000	0.000000	171.000000	72.000000	37.000000	12.000000
0.690000	21.920000	26.740000	0.000000	0.000000	169.000000	71.000000	31.000000	0.000000
0.700000	22.070000	26.790000	0.000000	0.000000	169.000000	70.000000	15.000000	5.000000
0.710000	22.070000	26.790000	0.000000	0.000000	169.000000	70.000000	0.000000	0.000000
0.720000	22.070000	26.790000	0.000000	0.000000	169.000000	70.000000	0.000000	0.000000
0.730000	21.960000	26.710000	0.000000	0.000000	169.000000	70.000000	-11.000000	-8.000000
0.740000	21.960000	26.710000	139.000000	1.000000	169.000000	71.000000	0.000000	0.000000
0.750000	21.960000	26.710000	200.000000	0.000000	168.000000	72.000000	0.000000	0.000000
0.760000	21.960000	26.710000	205.000000	0.000000	168.000000	72.000000	0.000000	0.000000
0.770000	21.960000	26.710000	287.000000	0.000000	167.000000	73.000000	0.000000	0.000000
0.780000	21.970000	26.430000	376.000000	0.000000	170.000000	74.000000	1.000000	-28.000000
0.790000	22.060000	26.300000	446.000000	0.000000	170.000000	74.000000	9.000000	-13.000000
0.800000	22.270000	26.190000	510.000000	0.000000	169.000000	75.000000	21.000000	-11.000000
0.810000	22.490000	26.110000	542.000000	0.000000	169.000000	75.000000	22.000000	-8.000000
0.820000	22.730000	26.110000	580.000000	0.000000	169.000000	75.000000	24.000000	0.000000
0.830000	22.960000	26.110000	591.000000	0.000000	169.000000	75.000000	23.000000	0.000000
0.840000	23.190000	26.240000	613.000000	0.000000	169.000000	75.000000	23.000000	13.000000
0.850000	23.410000	26.480000	613.000000	0.000000	169.000000	75.000000	22.000000	24.000000
0.860000	23.570000	26.780000	613.000000	0.000000	169.000000	75.000000	16.000000	30.000000
0.870000	23.620000	27.110000	613.000000	0.000000	169.000000	75.000000	5.000000	33.000000
0.880000	23.620000	27.610000	620.000000	0.000000	169.000000	75.000000	0.000000	50.000000
0.890000	23.510000	27.990000	622.000000	0.000000	169.000000	75.000000	-11.000000	38.000000
0.900000	23.400000	28.300000	636.000000	0.000000	170.000000	74.000000	-11.000000	31.000000
0.910000	23.260000	28.370000	642.000000	0.000000	170.000000	74.000000	-14.000000	7.000000
0.920000	23.200000	28.370000	647.000000	0.000000	170.000000	74.000000	-6.000000	0.000000
0.930000	23.020000	28.230000	636.000000	0.000000	170.000000	73.000000	-18.000000	-14.000000
0.940000	22.770000	27.950000	641.000000	0.000000	170.000000	73.000000	-25.000000	-28.000000
0.950000	22.520000	27.500000	668.000000	0.000000	170.000000	73.000000	-25.000000	-45.000000
0.960000	22.330000	27.010000	690.000000	0.000000	167.000000	73.000000	-19.000000	-49.000000
0.970000	22.170000	26.460000	721.000000	0.000000	170.000000	73.000000	-16.000000	-55.000000
0.980000	22.260000	26.000000	755.000000	0.000000	170.000000	73.000000	9.000000	-46.000000
0.990000	22.380000	25.590000	782.000000	0.000000	170.000000	74.000000	12.000000	-41.000000
1.000000	22.580000	25.310000	806.000000	0.000000	170.000000	74.000000	20.000000	-28.000000
1.010000	22.840000	25.150000	832.000000	0.000000	170.000000	74.000000	26.000000	-16.000000
1.020000	23.160000	25.080000	825.000000	0.000000	173.000000	74.000000	32.000000	-7.000000
1.030000	23.520000	25.080000	825.000000	0.000000	173.000000	75.000000	36.000000	0.000000
1.040000	23.900000	25.240000	830.000000	0.000000	173.000000	75.000000	38.000000	16.000000
1.050000	24.080000	25.430000	806.000000	0.000000	173.000000	75.000000	18.000000	19.000000
1.060000	24.080000	25.430000	760.000000	0.000000	173.000000	75.000000	0.000000	0.000000
1.070000	24.080000	25.430000	684.000000	0.000000	173.000000	75.000000	0.000000	0.000000
1.080000	24.080000	25.430000	519.000000	0.000000	173.000000	75.000000	0.000000	0.000000
1.090000	24.080000	25.430000	217.000000	0.000000	173.000000	75.000000	0.000000	0.000000
1.100000	24.080000	25.430000	0.000000	1.000000	173.000000	75.000000	0.000000	0.000000
1.110000	24.080000	25.760000	0.000000	0.000000	173.000000	75.000000	0.000000	33.000000
1.120000	24.160000	25.980000	0.000000	0.000000	173.000000	75.000000	8.000000	22.000000
1.130000	24.260000	26.220000	0.000000	0.000000	173.000000	75.000000	10.000000	24.000000
1.140000	24.390000	26.470000	0.000000	0.000000	173.000000	74.000000	13.000000	25.000000
1.150000	24.550000	26.710000	0.000000	0.000000	173.000000	74.000000	16.000000	24.000000
1.160000	24.730000	26.950000	0.000000	0.000000	173.000000	74.000000	18.000000	24.000000
1.170000	24.730000	26.950000	136.000000	1.000000	173.000000	74.000000	0.000000	0.000000
1.180000	25.100000	27.390000	155.000000	0.000000	173.000000	73.000000	37.000000	44.000000
1.190000	25.250000	27.620000	170.000000	0.000000	173.000000	73.000000	15.000000	23.000000
1.200000	25.360000	27.820000	249.000000	0.000000	173.000000	73.000000	11.000000	20.000000
1.210000	25.460000	27.990000	307.000000	0.000000	173.000000	73.000000	10.000000	17.000000
1.220000	25.460000	28.040000	369.000000	0.000000	173.000000	73.000000	0.000000	5.000000
1.230000	25.460000	28.040000	388.000000	0.000000	173.000000	73.000000	0.000000	0.000000
1.240000	25.410000	28.040000	425.000000	0.000000	173.000000	73.000000	-5.000000	0.000000
1.250000	25.410000	27.980000	461.000000	0.000000	173.000000	73.000000	0.000000	-6.000000
1.260000	25.270000	27.850000	486.000000	0.000000	173.000000	73.000000	-14.000000	-13.000000
1.270000	25.110000	27.630000	519.000000	0.000000	173.000000	73.000000	-16.000000	-22.000000
1.280000	24.930000	27.330000	570.000000	0.000000	173.000000	73.000000	-18.000000	-30.000000
1.290000	24.780000	26.920000	591.000000	0.000000	173.000000	73.000000	-15.000000	-41.000000
1.300000	24.710000	26.450000	617.000000	0.000000	173.000000	73.000000	-7.000000	-47.000000
1.310000	24.710000	26.060000	628.000000	0.000000	173.000000	74.000000	0.000000	-39.000000
1.320000	24.810000	25.760000	641.000000	0.000000	173.000000	74.000000	10.000000	-30.000000
1.330000	24.920000	25.520000	659.000000	0.000000	177.000000	74.000000	11.000000	-24.000000
1.340000	25.030000	25.440000	671.000000	0.000000	177.000000	74.000000	11.000000	-8.000000
1.350000	25.100000	25.440000	667.000000	0.000000	176.000000	75.000000	7.000000	0.000000
1.360000	25.200000	25.530000	672.000000	0.000000	180.000000	75.000000	10.000000	9.000000
1.370000	25.410000	25.760000	673.000000	0.000000	180.000000	75.000000	21.000000	23.000000
1.380000	25.690000	26.050000	666.000000	0.000000	180.000000	75.000000	28.000000	29.000000
1.390000	25.820000	26.390000	662.000000	0.000000	180.000000	75.000000	13.000000	34.000000
1.400000	25.910000	26.900000	652.000000	0.000000	180.000000	75.000000	9.000000	51.000000
1.410000	25.980000	27.340000	652.000000	0.000000	180.000000	75.000000	7.000000	44.000000
1.420000	25.980000	27.740000	653.000000	0.000000	180.000000	75.000000	0.000000	40.000000
1.430000	25.980000	27.740000	652.000000	0.000000	180.000000	74.000000	0.000000	0.000000
1.440000	26.030000	27.740000	655.000000	0.000000	180.000000	74.000000	5.000000	0.000000
1.450000	26.030000	27.530000	671.000000	0.000000	180.000000	74.000000	0.000000	-21.000000
1.460000	26.030000	27.150000	673.000000	0.000000	180.000000	73.000000	0.000000	-38.000000
1.470000	26.160000	26.660000	682.000000	0.000000	180.000000	73.000000	13.000000	-49.000000
1.480000	26.350000	26.310000	685.000000	0.000000	180.000000	73.000000	19.000000	-35.000000
1.490000	26.560000	26.050000	685.000000	0.000000	180.000000	73.000000	21.000000	-26.000000
1.500000	26.770000	25.750000	667.000000	0.000000	180.000000	74.000000	21.000000	-30.000000
1.510000	27.050000	25.530000	630.000000	0.000000	180.000000	74.000000	28.000000	-22.000000
1.520000	27.050000	25.530000	504.000000	0.000000	180.000000	74.000000	0.000000	0.000000
1.530000	27.320000	25.470000	252.000000	0.000000	180.000000	74.000000	27.000000	-6.000000
1.540000	27.320000	25.470000	0.000000	1.000000	180.000000	74.000000	0.000000	0.000000
1.550000	27.730000	26.250000	0.000000	0.000000	180.000000	74.000000	41.000000	78.000000
1.560000	27.880000	26.980000	0.000000	0.000000	180.000000	74.000000	15.000000	73.000000
1.570000	27.980000	28.030000	0.000000	0.000000	177.000000	74.000000	10.000000	105.000000
1.580000	27.980000	29.300000	0.000000	0.000000	177.000000	74.000000	0.000000	127.000000
1.590000	27.860000	30.730000	0.000000	0.000000	177.000000	74.000000	-12.000000	143.000000
1.600000	27.630000	32.130000	0.000000	0.000000	177.000000	74.000000	-23.000000	140.000000
1.610000	27.630000	32.130000	340.000000	1.000000	177.000000	73.000000	0.000000	0.000000
1.620000	27.580000	33.140000	374.000000	0.000000	177.000000	72.000000	-5.000000	101.000000
1.630000	27.510000	33.270000	382.000000	0.000000	180.000000	71.000000	-7.000000	13.000000
1.640000	27.510000	33.130000	456.000000	0.000000	180.000000	70.000000	0.000000	-14.000000
1.650000	27.510000	32.800000	535.000000	0.000000	180.000000	69.000000	0.000000	-33.000000
1.660000	27.600000	32.130000	599.000000	0.000000	180.000000	69.000000	9.000000	-67.000000
1.670000	27.750000	31.210000	652.000000	0.000000	180.000000	68.000000	15.000000	-92.000000
1.680000	28.040000	30.130000	667.000000	0.000000	180.000000	68.000000	29.000000	-108.000000
1.690000	28.320000	28.680000	676.000000	0.000000	180.000000	68.000000	28.000000	-145.000000
1.700000	28.590000	27.450000	684.000000	0.000000	180.000000	69.000000	27.000000	-123.000000
1.710000	28.910000	26.380000	675.000000	0.000000	180.000000	70.000000	32.000000	-107.000000
1.720000	29.150000	25.720000	642.000000	0.000000	180.000000	71.000000	24.000000	-66.000000
1.730000	29.330000	25.270000	543.000000	0.000000	180.000000	72.000000	18.000000	-45.000000
1.740000	29.420000	24.950000	366.000000	0.000000	180.000000	73.000000	9.000000	-32.000000
1.750000	29.420000	24.950000	149.000000	0.000000	180.000000	74.000000	0.000000	0.000000
1.760000	29.420000	24.950000	0.000000	1.000000	180.000000	75.000000	0.000000	0.000000
1.770000	29.060000	25.480000	0.000000	0.000000	180.000000	75.000000	-36.000000	53.000000
1.780000	28.660000	26.130000	0.000000	0.000000	180.000000	75.000000	-40.000000	65.000000
1.790000	28.170000	27.070000	0.000000	0.000000	180.000000	75.000000	-49.000000	94.000000
1.800000	28.170000	27.070000	252.000000	1.000000	180.000000	75.000000	0.000000	0.000000
1.810000	27.500000	28.780000	465.000000	0.000000	180.000000	75.000000	-67.000000	171.000000
1.820000	27.500000	29.020000	535.000000	0.000000	180.000000	74.000000	0.000000	24.000000
1.830000	27.500000	29.020000	585.000000	0.000000	180.000000	73.000000	0.000000	0.000000
1.840000	27.500000	29.020000	645.000000	0.000000	180.000000	73.000000	0.000000	0.000000
1.850000	27.650000	28.920000	673.000000	0.000000	180.000000	73.000000	15.000000	-10.000000
1.860000	28.000000	28.740000	676.000000	0.000000	180.000000	72.000000	35.000000	-18.000000
1.870000	28.470000	28.510000	644.000000	0.000000	180.000000	72.000000	47.000000	-23.000000
1.880000	28.840000	28.280000	562.000000	0.000000	180.000000	72.000000	37.000000	-23.000000
1.890000	29.160000	28.070000	369.000000	0.000000	180.000000	72.000000	32.000000	-21.000000
1.900000	29.160000	28.070000	0.000000	1.000000	183.000000	72.000000	0.000000	0.000000
1.910000	29.510000	27.660000	0.000000	0.000000	183.000000	73.000000	35.000000	-41.000000
1.920000	29.510000	27.530000	0.000000	0.000000	183.000000	73.000000	0.000000	-13.000000
1.930000	29.510000	27.470000	0.000000	0.000000	183.000000	73.000000	0.000000	-6.000000
1.940000	29.510000	27.470000	0.000000	0.000000	183.000000	74.000000	0.000000	0.000000
1.950000	29.510000	27.470000	0.000000	0.000000	183.000000	74.000000	0.000000	0.000000
1.960000	29.820000	27.270000	0.000000	0.000000	184.000000	75.000000	31.000000	-20.000000
1.970000	29.980000	27.210000	0.000000	0.000000	180.000000	75.000000	16.000000	-6.000000
1.980000	30.130000	27.160000	0.000000	0.000000	180.000000	75.000000	15.000000	-5.000000
1.990000	30.130000	27.040000	0.000000	0.000000	180.000000	75.000000	0.000000	-12.000000
2.000000	30.130000	26.810000	0.000000	0.000000	180.000000	75.000000	0.000000	-23.000000
2.010000	30.080000	26.530000	0.000000	0.000000	180.000000	75.000000	-5.000000	-28.000000
2.020000	30.080000	26.530000	117.000000	1.000000	180.000000	75.000000	0.000000	0.000000
2.030000	30.020000	25.970000	158.000000	0.000000	176.000000	75.000000	-6.000000	-56.000000
2.040000	30.020000	25.820000	205.000000	0.000000	176.000000	75.000000	0.000000	-15.000000
2.050000	30.160000	25.740000	307.000000	0.000000	180.000000	75.000000	14.000000	-8.000000
2.060000	30.300000	25.670000	399.000000	0.000000	180.000000	76.000000	14.000000	-7.000000
2.070000	30.460000	25.670000	445.000000	0.000000	180.000000	76.000000	16.000000	0.000000
2.080000	30.600000	25.670000	485.000000	0.000000	180.000000	76.000000	14.000000	0.000000
2.090000	30.760000	25.730000	492.000000	0.000000	180.000000	76.000000	16.000000	6.000000
2.100000	30.920000	25.910000	501.000000	0.000000	180.000000	76.000000	16.000000	18.000000
2.110000	31.020000	26.160000	492.000000	0.000000	180.000000	76.000000	10.000000	25.000000
2.120000	31.080000	26.520000	499.000000	0.000000	180.000000	76.000000	6.000000	36.000000
2.130000	31.080000	27.050000	501.000000	0.000000	180.000000	76.000000	0.000000	53.000000
2.140000	31.020000	27.700000	496.000000	0.000000	180.000000	76.000000	-6.000000	65.000000
2.150000	30.850000	28.490000	498.000000	0.000000	180.000000	75.000000	-17.000000	79.000000
2.160000	30.580000	29.260000	517.000000	0.000000	184.000000	75.000000	-27.000000	77.000000
2.170000	30.580000	29.750000	533.000000	0.000000	183.000000	74.000000	0.000000	49.000000
2.180000	30.580000	30.070000	559.000000	0.000000	183.000000	74.000000	0.000000	32.000000
2.190000	30.710000	30.160000	583.000000	0.000000	187.000000	73.000000	13.000000	9.000000
2.200000	30.780000	30.210000	588.000000	0.000000	186.000000	72.000000	7.000000	5.000000
2.210000	30.960000	30.210000	603.000000	0.000000	186.000000	72.000000	18.000000	0.000000
