t	x	y	pressure	penup	azimuth	inclination	v_x	v_y
0.000000	56.200000	15.520000	99.000000	1.000000	157.000000	60.000000	0.000000	0.000000
0.010000	56.200000	15.520000	188.000000	0.000000	157.000000	60.000000	0.000000	0.000000
0.020000	56.200000	15.520000	259.000000	0.000000	156.000000	61.000000	0.000000	0.000000
0.030000	56.200000	15.520000	369.000000	0.000000	156.000000	61.000000	0.000000	0.000000
0.040000	55.950000	15.410000	430.000000	0.000000	155.000000	62.000000	-25.000000	-11.000000
0.050000	55.730000	15.050000	483.000000	0.000000	152.000000	62.000000	-22.000000	-36.000000
0.060000	55.450000	14.520000	521.000000	0.000000	151.000000	63.000000	-28.000000	-53.000000
0.070000	55.160000	13.950000	551.000000	0.000000	150.000000	64.000000	-29.000000	-57.000000
0.080000	54.860000	13.290000	560.000000	0.000000	146.000000	64.000000	-30.000000	-66.000000
0.090000	54.670000	12.600000	577.000000	0.000000	144.000000	66.000000	-19.000000	-69.000000
0.100000	54.330000	12.070000	585.000000	0.000000	142.000000	66.000000	-34.000000	-53.000000
0.110000	54.120000	11.660000	588.000000	0.000000	137.000000	67.000000	-21.000000	-41.000000
0.120000	54.060000	11.390000	595.000000	0.000000	135.000000	68.000000	-6.000000	-27.000000
0.130000	54.010000	11.280000	606.000000	0.000000	133.000000	69.000000	-5.000000	-11.000000
0.140000	54.010000	11.280000	613.000000	0.000000	129.000000	68.000000	0.000000	0.000000
0.150000	54.010000	11.280000	613.000000	0.000000	127.000000	69.000000	0.000000	0.000000
0.160000	54.010000	11.560000	602.000000	0.000000	127.000000	69.000000	0.000000	28.000000
0.170000	54.200000	11.950000	561.000000	0.000000	127.000000	69.000000	19.000000	39.000000
0.180000	54.490000	12.550000	541.000000	0.000000	127.000000	69.000000	29.000000	60.000000
0.190000	54.820000	13.180000	512.000000	0.000000	127.000000	69.000000	33.000000	63.000000
0.200000	55.170000	13.830000	491.000000	0.000000	127.000000	69.000000	35.000000	65.000000
0.210000	55.550000	14.460000	472.000000	0.000000	129.000000	68.000000	38.000000	63.000000
0.220000	55.940000	15.050000	470.000000	0.000000	131.000000	68.000000	39.000000	59.000000
0.230000	56.310000	15.470000	467.000000	0.000000	135.000000	68.000000	37.000000	42.000000
0.240000	56.600000	15.790000	472.000000	0.000000	137.000000	67.000000	29.000000	32.000000
0.250000	56.850000	15.990000	475.000000	0.000000	140.000000	66.000000	25.000000	20.000000
0.260000	57.090000	16.140000	473.000000	0.000000	144.000000	66.000000	24.000000	15.000000
0.270000	57.210000	16.140000	467.000000	0.000000	148.000000	65.000000	12.000000	0.000000
0.280000	57.210000	16.140000	473.000000	0.000000	150.000000	64.000000	0.000000	0.000000
0.290000	57.280000	15.890000	489.000000	0.000000	153.000000	63.000000	7.000000	-25.000000
0.300000	57.170000	15.550000	504.000000	0.000000	153.000000	63.000000	-11.000000	-34.000000
0.310000	56.960000	15.020000	530.000000	0.000000	153.000000	63.000000	-21.000000	-53.000000
0.320000	56.610000	14.460000	543.000000	0.000000	153.000000	63.000000	-35.000000	-56.000000
0.330000	56.260000	13.870000	554.000000	0.000000	151.000000	64.000000	-35.000000	-59.000000
0.340000	55.920000	13.360000	564.000000	0.000000	150.000000	65.000000	-34.000000	-51.000000
0.350000	55.670000	12.900000	570.000000	0.000000	148.000000	67.000000	-25.000000	-46.000000
0.360000	55.450000	12.630000	560.000000	0.000000	144.000000	67.000000	-22.000000	-27.000000
0.370000	55.250000	12.490000	567.000000	0.000000	141.000000	68.000000	-20.000000	-14.000000
0.380000	55.250000	12.490000	562.000000	0.000000	139.000000	69.000000	0.000000	0.000000
0.390000	55.250000	12.490000	539.000000	0.000000	135.000000	69.000000	0.000000	0.000000
0.400000	55.250000	12.490000	529.000000	0.000000	135.000000	69.000000	0.000000	0.000000
0.410000	55.360000	12.540000	530.000000	0.000000	133.000000	70.000000	11.000000	5.000000
0.420000	55.550000	12.630000	532.000000	0.000000	131.000000	69.000000	19.000000	9.000000
0.430000	55.810000	12.700000	529.000000	0.000000	131.000000	69.000000	26.000000	7.000000
0.440000	55.920000	12.700000	536.000000	0.000000	131.000000	69.000000	11.000000	0.000000
0.450000	55.920000	12.600000	570.000000	0.000000	133.000000	70.000000	0.000000	-10.000000
0.460000	55.830000	12.280000	589.000000	0.000000	133.000000	70.000000	-9.000000	-32.000000
0.470000	55.610000	11.820000	603.000000	0.000000	133.000000	70.000000	-22.000000	-46.000000
0.480000	55.330000	11.360000	610.000000	0.000000	133.000000	70.000000	-28.000000	-46.000000
0.490000	55.020000	10.950000	617.000000	0.000000	133.000000	70.000000	-31.000000	-41.000000
0.500000	54.770000	10.690000	627.000000	0.000000	133.000000	70.000000	-25.000000	-26.000000
0.510000	54.550000	10.500000	628.000000	0.000000	133.000000	70.000000	-22.000000	-19.000000
0.520000	54.370000	10.340000	633.000000	0.000000	133.000000	70.000000	-18.000000	-16.000000
0.530000	54.190000	10.190000	634.000000	0.000000	133.000000	70.000000	-18.000000	-15.000000
0.540000	53.980000	10.050000	636.000000	0.000000	131.000000	69.000000	-21.000000	-14.000000
0.550000	53.740000	9.820000	636.000000	0.000000	131.000000	69.000000	-24.000000	-23.000000
0.560000	53.740000	9.740000	619.000000	0.000000	131.000000	69.000000	0.000000	-8.000000
0.570000	53.680000	9.740000	589.000000	0.000000	131.000000	69.000000	-6.000000	0.000000
0.580000	53.680000	9.800000	495.000000	0.000000	129.000000	68.000000	0.000000	6.000000
0.590000	53.750000	9.870000	376.000000	0.000000	129.000000	68.000000	7.000000	7.000000
0.600000	53.930000	9.980000	153.000000	0.000000	129.000000	68.000000	18.000000	11.000000
0.610000	54.190000	10.190000	30.000000	0.000000	129.000000	68.000000	26.000000	21.000000
0.620000	54.190000	10.190000	0.000000	1.000000	129.000000	68.000000	0.000000	0.000000
0.630000	54.710000	10.600000	0.000000	0.000000	129.000000	68.000000	52.000000	41.000000
0.640000	54.710000	10.600000	51.000000	1.000000	129.000000	68.000000	0.000000	0.000000
0.650000	55.030000	10.800000	146.000000	0.000000	129.000000	68.000000	32.000000	20.000000
0.660000	55.160000	10.860000	226.000000	0.000000	131.000000	69.000000	13.000000	6.000000
0.670000	55.290000	10.940000	316.000000	0.000000	131.000000	69.000000	13.000000	8.000000
0.680000	55.420000	10.990000	366.000000	0.000000	131.000000	69.000000	13.000000	5.000000
0.690000	55.600000	11.100000	412.000000	0.000000	131.000000	69.000000	18.000000	11.000000
0.700000	55.810000	11.240000	420.000000	0.000000	133.000000	70.000000	21.000000	14.000000
0.710000	56.090000	11.460000	430.000000	0.000000	133.000000	70.000000	28.000000	22.000000
0.720000	56.450000	11.740000	441.000000	0.000000	133.000000	70.000000	36.000000	28.000000
0.730000	56.860000	12.060000	448.000000	0.000000	133.000000	70.000000	41.000000	32.000000
0.740000	57.280000	12.410000	449.000000	0.000000	133.000000	70.000000	42.000000	35.000000
0.750000	57.690000	12.750000	439.000000	0.000000	135.000000	71.000000	41.000000	34.000000
0.760000	58.040000	13.130000	448.000000	0.000000	135.000000	71.000000	35.000000	38.000000
0.770000	58.340000	13.550000	450.000000	0.000000	135.000000	71.000000	30.000000	42.000000
0.780000	58.580000	13.950000	460.000000	0.000000	137.000000	70.000000	24.000000	40.000000
0.790000	58.730000	14.310000	481.000000	0.000000	135.000000	69.000000	15.000000	36.000000
0.800000	58.810000	14.650000	513.000000	0.000000	137.000000	69.000000	8.000000	34.000000
0.810000	58.810000	14.730000	560.000000	0.000000	139.000000	68.000000	0.000000	8.000000
0.820000	58.720000	14.780000	588.000000	0.000000	139.000000	68.000000	-9.000000	5.000000
0.830000	58.650000	14.780000	591.000000	0.000000	140.000000	67.000000	-7.000000	0.000000
0.840000	58.360000	14.650000	588.000000	0.000000	142.000000	66.000000	-29.000000	-13.000000
0.850000	58.010000	14.390000	592.000000	0.000000	142.000000	66.000000	-35.000000	-26.000000
0.860000	57.620000	14.050000	603.000000	0.000000	144.000000	66.000000	-39.000000	-34.000000
0.870000	57.300000	13.590000	613.000000	0.000000	142.000000	66.000000	-32.000000	-46.000000
0.880000	57.000000	13.120000	616.000000	0.000000	142.000000	66.000000	-30.000000	-47.000000
0.890000	56.750000	12.620000	620.000000	0.000000	140.000000	67.000000	-25.000000	-50.000000
0.900000	56.580000	12.120000	620.000000	0.000000	139.000000	68.000000	-17.000000	-50.000000
0.910000	56.520000	11.690000	610.000000	0.000000	139.000000	68.000000	-6.000000	-43.000000
0.920000	56.520000	11.320000	616.000000	0.000000	137.000000	69.000000	0.000000	-37.000000
0.930000	56.520000	11.110000	616.000000	0.000000	135.000000	69.000000	0.000000	-21.000000
0.940000	56.520000	11.110000	614.000000	0.000000	135.000000	69.000000	0.000000	0.000000
0.950000	56.920000	10.830000	613.000000	0.000000	133.000000	70.000000	40.000000	-28.000000
0.960000	57.310000	10.830000	606.000000	0.000000	135.000000	71.000000	39.000000	0.000000
0.970000	57.700000	10.970000	603.000000	0.000000	135.000000	71.000000	39.000000	14.000000
0.980000	58.090000	11.160000	600.000000	0.000000	135.000000	71.000000	39.000000	19.000000
0.990000	58.450000	11.410000	595.000000	0.000000	135.000000	71.000000	36.000000	25.000000
1.000000	58.820000	11.810000	591.000000	0.000000	135.000000	71.000000	37.000000	40.000000
1.010000	59.140000	12.310000	588.000000	0.000000	133.000000	70.000000	32.000000	50.000000
1.020000	59.430000	12.860000	595.000000	0.000000	133.000000	70.000000	29.000000	55.000000
1.030000	59.710000	13.430000	589.000000	0.000000	133.000000	70.000000	28.000000	57.000000
1.040000	59.910000	14.010000	588.000000	0.000000	133.000000	70.000000	20.000000	58.000000
1.050000	60.050000	14.220000	620.000000	0.000000	135.000000	69.000000	14.000000	21.000000
1.060000	59.990000	14.220000	617.000000	0.000000	137.000000	69.000000	-6.000000	0.000000
1.070000	59.780000	14.150000	619.000000	0.000000	137.000000	69.000000	-21.000000	-7.000000
1.080000	59.460000	13.890000	627.000000	0.000000	139.000000	68.000000	-32.000000	-26.000000
1.090000	59.080000	13.460000	631.000000	0.000000	139.000000	68.000000	-38.000000	-43.000000
1.100000	58.720000	12.910000	636.000000	0.000000	140.000000	67.000000	-36.000000	-55.000000
1.110000	58.410000	12.300000	636.000000	0.000000	139.000000	68.000000	-31.000000	-61.000000
1.120000	58.180000	11.670000	631.000000	0.000000	139.000000	68.000000	-23.000000	-63.000000
1.130000	58.100000	11.290000	619.000000	0.000000	137.000000	69.000000	-8.000000	-38.000000
1.140000	58.100000	11.080000	606.000000	0.000000	135.000000	68.000000	0.000000	-21.000000
1.150000	58.190000	11.080000	605.000000	0.000000	133.000000	69.000000	9.000000	0.000000
1.160000	58.340000	11.150000	595.000000	0.000000	131.000000	69.000000	15.000000	7.000000
1.170000	58.590000	11.370000	591.000000	0.000000	129.000000	68.000000	25.000000	22.000000
1.180000	58.900000	11.810000	591.000000	0.000000	129.000000	68.000000	31.000000	44.000000
1.190000	59.210000	12.240000	586.000000	0.000000	129.000000	68.000000	31.000000	43.000000
1.200000	59.480000	12.660000	570.000000	0.000000	131.000000	69.000000	27.000000	42.000000
1.210000	59.670000	13.090000	557.000000	0.000000	131.000000	69.000000	19.000000	43.000000
1.220000	59.810000	13.280000	551.000000	0.000000	131.000000	69.000000	14.000000	19.000000
1.230000	59.810000	13.280000	551.000000	0.000000	133.000000	70.000000	0.000000	0.000000
1.240000	59.750000	13.160000	551.000000	0.000000	133.000000	70.000000	-6.000000	-12.000000
1.250000	59.610000	12.850000	551.000000	0.000000	135.000000	69.000000	-14.000000	-31.000000
1.260000	59.440000	12.440000	551.000000	0.000000	135.000000	69.000000	-17.000000	-41.000000
1.270000	59.330000	12.060000	553.000000	0.000000	135.000000	69.000000	-11.000000	-38.000000
1.280000	59.330000	11.680000	554.000000	0.000000	135.000000	69.000000	0.000000	-38.000000
1.290000	59.380000	11.470000	554.000000	0.000000	135.000000	69.000000	5.000000	-21.000000
1.300000	59.480000	11.380000	556.000000	0.000000	133.000000	70.000000	10.000000	-9.000000
1.310000	59.590000	11.380000	564.000000	0.000000	133.000000	70.000000	11.000000	0.000000
1.320000	59.690000	11.580000	568.000000	0.000000	133.000000	70.000000	10.000000	20.000000
1.330000	59.890000	11.850000	563.000000	0.000000	131.000000	69.000000	20.000000	27.000000
1.340000	60.150000	12.150000	564.000000	0.000000	131.000000	69.000000	26.000000	30.000000
1.350000	60.300000	12.510000	563.000000	0.000000	131.000000	69.000000	15.000000	36.000000
1.360000	60.480000	12.920000	560.000000	0.000000	133.000000	70.000000	18.000000	41.000000
1.370000	60.680000	13.410000	556.000000	0.000000	133.000000	70.000000	20.000000	49.000000
1.380000	60.900000	14.030000	533.000000	0.000000	133.000000	70.000000	22.000000	62.000000
1.390000	61.140000	14.740000	492.000000	0.000000	135.000000	69.000000	24.000000	71.000000
1.400000	61.390000	15.420000	486.000000	0.000000	137.000000	69.000000	25.000000	68.000000
1.410000	61.640000	16.040000	485.000000	0.000000	140.000000	67.000000	25.000000	62.000000
1.420000	61.810000	16.550000	496.000000	0.000000	142.000000	66.000000	17.000000	51.000000
1.430000	61.930000	16.870000	509.000000	0.000000	145.000000	65.000000	12.000000	32.000000
1.440000	61.930000	17.060000	538.000000	0.000000	146.000000	64.000000	0.000000	19.000000
1.450000	61.930000	17.060000	551.000000	0.000000	148.000000	63.000000	0.000000	0.000000
1.460000	61.930000	17.060000	565.000000	0.000000	148.000000	63.000000	0.000000	0.000000
1.470000	61.930000	17.060000	564.000000	0.000000	149.000000	63.000000	0.000000	0.000000
1.480000	61.930000	17.060000	568.000000	0.000000	149.000000	63.000000	0.000000	0.000000
1.490000	61.840000	16.780000	567.000000	0.000000	149.000000	63.000000	-9.000000	-28.000000
1.500000	61.690000	16.360000	588.000000	0.000000	149.000000	63.000000	-15.000000	-42.000000
1.510000	61.510000	15.900000	595.000000	0.000000	149.000000	63.000000	-18.000000	-46.000000
1.520000	61.300000	15.420000	619.000000	0.000000	149.000000	63.000000	-21.000000	-48.000000
1.530000	61.080000	14.870000	636.000000	0.000000	149.000000	63.000000	-22.000000	-55.000000
1.540000	60.860000	14.280000	647.000000	0.000000	148.000000	63.000000	-22.000000	-59.000000
1.550000	60.630000	13.680000	647.000000	0.000000	148.000000	63.000000	-23.000000	-60.000000
1.560000	60.410000	13.090000	658.000000	0.000000	146.000000	64.000000	-22.000000	-59.000000
1.570000	60.260000	12.570000	664.000000	0.000000	144.000000	66.000000	-15.000000	-52.000000
1.580000	60.120000	12.090000	664.000000	0.000000	142.000000	66.000000	-14.000000	-48.000000
1.590000	59.970000	11.740000	662.000000	0.000000	139.000000	68.000000	-15.000000	-35.000000
1.600000	59.910000	11.540000	616.000000	0.000000	137.000000	69.000000	-6.000000	-20.000000
1.610000	59.910000	11.450000	504.000000	0.000000	133.000000	69.000000	0.000000	-9.000000
1.620000	59.910000	11.450000	273.000000	0.000000	131.000000	69.000000	0.000000	0.000000
1.630000	59.910000	11.450000	0.000000	1.000000	131.000000	69.000000	0.000000	0.000000
1.640000	60.140000	11.810000	0.000000	0.000000	131.000000	69.000000	23.000000	36.000000
1.650000	60.320000	12.170000	0.000000	0.000000	131.000000	69.000000	18.000000	36.000000
1.660000	60.490000	12.620000	0.000000	0.000000	131.000000	69.000000	17.000000	45.000000
1.670000	60.730000	13.130000	0.000000	0.000000	131.000000	69.000000	24.000000	51.000000
1.680000	60.960000	13.640000	0.000000	0.000000	133.000000	69.000000	23.000000	51.000000
1.690000	61.110000	14.140000	0.000000	0.000000	137.000000	67.000000	15.000000	50.000000
1.700000	61.200000	14.610000	0.000000	0.000000	138.000000	65.000000	9.000000	47.000000
1.710000	61.200000	14.980000	0.000000	0.000000	141.000000	64.000000	0.000000	37.000000
1.720000	61.050000	15.200000	0.000000	0.000000	141.000000	63.000000	-15.000000	22.000000
1.730000	60.810000	15.320000	0.000000	0.000000	144.000000	61.000000	-24.000000	12.000000
1.740000	60.550000	15.380000	0.000000	0.000000	145.000000	60.000000	-26.000000	6.000000
1.750000	60.550000	15.380000	90.000000	1.000000	146.000000	60.000000	0.000000	0.000000
1.760000	60.210000	15.380000	171.000000	0.000000	147.000000	59.000000	-34.000000	0.000000
1.770000	60.160000	15.430000	232.000000	0.000000	146.000000	60.000000	-5.000000	5.000000
1.780000	60.160000	15.430000	325.000000	0.000000	148.000000	60.000000	0.000000	0.000000
1.790000	60.160000	15.430000	397.000000	0.000000	147.000000	61.000000	0.000000	0.000000
1.800000	60.160000	15.430000	449.000000	0.000000	147.000000	61.000000	0.000000	0.000000
1.810000	60.670000	15.360000	483.000000	0.000000	146.000000	62.000000	51.000000	-7.000000
1.820000	60.950000	15.360000	499.000000	0.000000	146.000000	63.000000	28.000000	0.000000
1.830000	61.240000	15.360000	512.000000	0.000000	146.000000	63.000000	29.000000	0.000000
1.840000	61.470000	15.470000	507.000000	0.000000	146.000000	63.000000	23.000000	11.000000
1.850000	61.650000	15.470000	449.000000	0.000000	146.000000	63.000000	18.000000	0.000000
1.860000	61.940000	15.570000	250.000000	0.000000	146.000000	63.000000	29.000000	10.000000
1.870000	61.940000	15.570000	0.000000	1.000000	146.000000	63.000000	0.000000	0.000000
1.880000	62.340000	15.630000	0.000000	0.000000	146.000000	63.000000	40.000000	6.000000
1.890000	62.410000	15.580000	0.000000	0.000000	146.000000	63.000000	7.000000	-5.000000
1.900000	62.360000	15.470000	0.000000	0.000000	147.000000	62.000000	-5.000000	-11.000000
1.910000	62.220000	15.300000	0.000000	0.000000	147.000000	62.000000	-14.000000	-17.000000
1.920000	62.030000	15.060000	0.000000	0.000000	148.000000	61.000000	-19.000000	-24.000000
1.930000	61.870000	14.760000	0.000000	0.000000	148.000000	61.000000	-16.000000	-30.000000
1.940000	61.700000	14.410000	0.000000	0.000000	148.000000	61.000000	-17.000000	-35.000000
1.950000	61.700000	14.410000	58.000000	1.000000	148.000000	61.000000	0.000000	0.000000
1.960000	61.350000	13.710000	132.000000	0.000000	147.000000	62.000000	-35.000000	-70.000000
1.970000	61.260000	13.490000	203.000000	0.000000	146.000000	63.000000	-9.000000	-22.000000
1.980000	61.260000	13.340000	296.000000	0.000000	143.000000	64.000000	0.000000	-15.000000
1.990000	61.320000	13.180000	346.000000	0.000000	142.000000	65.000000	6.000000	-16.000000
2.000000	61.440000	13.090000	396.000000	0.000000	137.000000	66.000000	12.000000	-9.000000
2.010000	61.600000	13.090000	407.000000	0.000000	137.000000	67.000000	16.000000	0.000000
2.020000	61.790000	13.090000	423.000000	0.000000	135.000000	68.000000	19.000000	0.000000
2.030000	62.000000	13.220000	422.000000	0.000000	135.000000	68.000000	21.000000	13.000000
2.040000	62.330000	13.390000	428.000000	0.000000	133.000000	69.000000	33.000000	17.000000
2.050000	62.610000	13.610000	430.000000	0.000000	133.000000	69.000000	28.000000	22.000000
2.060000	62.860000	13.830000	435.000000	0.000000	133.000000	69.000000	25.000000	22.000000
2.070000	63.010000	14.050000	444.000000	0.000000	135.000000	68.000000	15.000000	22.000000
2.080000	63.100000	14.300000	440.000000	0.000000	137.000000	69.000000	9.000000	25.000000
2.090000	63.150000	14.570000	474.000000	0.000000	139.000000	68.000000	5.000000	27.000000
2.100000	63.050000	14.640000	491.000000	0.000000	139.000000	68.000000	-10.000000	7.000000
2.110000	62.960000	14.640000	509.000000	0.000000	140.000000	67.000000	-9.000000	0.000000
2.120000	62.740000	14.580000	520.000000	0.000000	140.000000	67.000000	-22.000000	-6.000000
2.130000	62.440000	14.340000	530.000000	0.000000	140.000000	67.000000	-30.000000	-24.000000
2.140000	62.160000	14.010000	533.000000	0.000000	142.000000	66.000000	-28.000000	-33.000000
2.150000	61.880000	13.620000	543.000000	0.000000	142.000000	66.000000	-28.000000	-39.000000
2.160000	61.600000	13.080000	545.000000	0.000000	140.000000	67.000000	-28.000000	-54.000000
2.170000	61.280000	12.450000	561.000000	0.000000	140.000000	67.000000	-32.000000	-63.000000
2.180000	61.140000	11.840000	560.000000	0.000000	139.000000	68.000000	-14.000000	-61.000000
2.190000	61.140000	11.360000	569.000000	0.000000	135.000000	68.000000	0.000000	-48.000000
2.200000	61.140000	10.970000	580.000000	0.000000	135.000000	68.000000	0.000000	-39.000000
