t	x	y	pressure	penup	azimuth	inclination	v_x	v_y
0.000000	15.610000	12.450000	6.000000	1.000000	170.000000	52.000000	0.000000	0.000000
0.010000	15.610000	12.450000	32.000000	1.000000	169.000000	53.000000	0.000000	0.000000
0.020000	15.610000	12.450000	54.000000	0.000000	169.000000	53.000000	0.000000	0.000000
0.030000	15.610000	12.450000	50.000000	0.000000	169.000000	53.000000	0.000000	0.000000
0.040000	15.610000	12.450000	76.000000	0.000000	169.000000	53.000000	0.000000	0.000000
0.050000	15.610000	12.450000	83.000000	0.000000	169.000000	53.000000	0.000000	0.000000
0.060000	15.610000	12.450000	86.000000	0.000000	169.000000	53.000000	0.000000	0.000000
0.070000	15.880000	12.740000	104.000000	0.000000	169.000000	53.000000	27.000000	29.000000
0.080000	15.940000	12.830000	101.000000	0.000000	169.000000	53.000000	6.000000	9.000000
0.090000	16.000000	12.920000	134.000000	0.000000	169.000000	53.000000	6.000000	9.000000
0.100000	16.000000	13.010000	151.000000	0.000000	171.000000	53.000000	0.000000	9.000000
0.110000	16.080000	13.090000	187.000000	0.000000	171.000000	53.000000	8.000000	8.000000
0.120000	16.080000	13.170000	185.000000	0.000000	172.000000	53.000000	0.000000	8.000000
0.130000	16.080000	13.170000	205.000000	0.000000	172.000000	53.000000	0.000000	0.000000
0.140000	16.080000	13.170000	223.000000	0.000000	173.000000	53.000000	0.000000	0.000000
0.150000	16.080000	13.220000	239.000000	0.000000	173.000000	53.000000	0.000000	5.000000
0.160000	16.080000	13.220000	251.000000	0.000000	175.000000	53.000000	0.000000	0.000000
0.170000	16.080000	13.220000	247.000000	0.000000	175.000000	53.000000	0.000000	0.000000
0.180000	16.080000	13.220000	257.000000	0.000000	176.000000	53.000000	0.000000	0.000000
0.190000	16.080000	13.100000	270.000000	0.000000	176.000000	53.000000	0.000000	-12.000000
0.200000	15.970000	12.920000	279.000000	0.000000	176.000000	53.000000	-11.000000	-18.000000
0.210000	15.780000	12.510000	317.000000	0.000000	176.000000	53.000000	-19.000000	-41.000000
0.220000	15.570000	11.970000	329.000000	0.000000	176.000000	53.000000	-21.000000	-54.000000
0.230000	15.360000	11.290000	349.000000	0.000000	176.000000	53.000000	-21.000000	-68.000000
0.240000	15.150000	10.660000	364.000000	0.000000	175.000000	53.000000	-21.000000	-63.000000
0.250000	14.900000	10.070000	371.000000	0.000000	173.000000	53.000000	-25.000000	-59.000000
0.260000	14.680000	9.470000	394.000000	0.000000	173.000000	53.000000	-22.000000	-60.000000
0.270000	14.470000	8.940000	417.000000	0.000000	173.000000	53.000000	-21.000000	-53.000000
0.280000	14.320000	8.460000	446.000000	0.000000	172.000000	53.000000	-15.000000	-48.000000
0.290000	14.230000	8.030000	463.000000	0.000000	172.000000	53.000000	-9.000000	-43.000000
0.300000	14.160000	7.690000	477.000000	0.000000	172.000000	52.000000	-7.000000	-34.000000
0.310000	14.100000	7.410000	493.000000	0.000000	172.000000	52.000000	-6.000000	-28.000000
0.320000	14.030000	7.110000	498.000000	0.000000	174.000000	52.000000	-7.000000	-30.000000
0.330000	13.950000	6.880000	491.000000	0.000000	174.000000	51.000000	-8.000000	-23.000000
0.340000	13.890000	6.710000	492.000000	0.000000	175.000000	51.000000	-6.000000	-17.000000
0.350000	13.890000	6.610000	489.000000	0.000000	175.000000	51.000000	0.000000	-10.000000
0.360000	13.890000	6.610000	491.000000	0.000000	175.000000	50.000000	0.000000	0.000000
0.370000	13.890000	6.610000	449.000000	0.000000	176.000000	50.000000	0.000000	0.000000
0.380000	13.890000	6.670000	345.000000	0.000000	176.000000	50.000000	0.000000	6.000000
0.390000	13.890000	6.840000	63.000000	0.000000	176.000000	50.000000	0.000000	17.000000
0.400000	13.890000	6.840000	0.000000	1.000000	177.000000	49.000000	0.000000	0.000000
0.410000	14.180000	7.710000	0.000000	0.000000	177.000000	49.000000	29.000000	87.000000
0.420000	14.330000	8.280000	0.000000	0.000000	176.000000	50.000000	15.000000	57.000000
0.430000	14.450000	8.800000	0.000000	0.000000	176.000000	50.000000	12.000000	52.000000
0.440000	14.590000	9.250000	0.000000	0.000000	176.000000	50.000000	14.000000	45.000000
0.450000	14.740000	9.670000	0.000000	0.000000	176.000000	50.000000	15.000000	42.000000
0.460000	14.920000	10.070000	0.000000	0.000000	176.000000	50.000000	18.000000	40.000000
0.470000	15.130000	10.450000	0.000000	0.000000	176.000000	50.000000	21.000000	38.000000
0.480000	15.350000	10.830000	0.000000	0.000000	176.000000	50.000000	22.000000	38.000000
0.490000	15.550000	11.180000	0.000000	0.000000	176.000000	50.000000	20.000000	35.000000
0.500000	15.720000	11.520000	0.000000	0.000000	177.000000	49.000000	17.000000	34.000000
0.510000	15.940000	11.850000	0.000000	0.000000	177.000000	49.000000	22.000000	33.000000
0.520000	16.160000	12.020000	0.000000	0.000000	177.000000	49.000000	22.000000	17.000000
0.530000	16.160000	12.150000	0.000000	0.000000	177.000000	49.000000	0.000000	13.000000
0.540000	16.160000	12.150000	0.000000	0.000000	177.000000	49.000000	0.000000	0.000000
0.550000	16.090000	12.050000	0.000000	0.000000	177.000000	49.000000	-7.000000	-10.000000
0.560000	16.000000	11.930000	0.000000	0.000000	177.000000	49.000000	-9.000000	-12.000000
0.570000	15.880000	11.810000	0.000000	0.000000	175.000000	49.000000	-12.000000	-12.000000
0.580000	15.810000	11.720000	0.000000	0.000000	175.000000	50.000000	-7.000000	-9.000000
0.590000	15.750000	11.650000	0.000000	0.000000	175.000000	50.000000	-6.000000	-7.000000
0.600000	15.750000	11.650000	0.000000	0.000000	175.000000	50.000000	0.000000	0.000000
0.610000	15.700000	11.550000	0.000000	0.000000	175.000000	50.000000	-5.000000	-10.000000
0.620000	15.650000	11.490000	0.000000	0.000000	174.000000	50.000000	-5.000000	-6.000000
0.630000	15.650000	11.440000	0.000000	0.000000	174.000000	50.000000	0.000000	-5.000000
0.640000	15.540000	11.390000	0.000000	0.000000	174.000000	51.000000	-11.000000	-5.000000
0.650000	15.470000	11.310000	0.000000	0.000000	174.000000	51.000000	-7.000000	-8.000000
0.660000	15.400000	11.240000	0.000000	0.000000	174.000000	51.000000	-7.000000	-7.000000
0.670000	15.400000	11.180000	0.000000	0.000000	173.000000	51.000000	0.000000	-6.000000
0.680000	15.330000	11.180000	0.000000	0.000000	173.000000	51.000000	-7.000000	0.000000
0.690000	15.280000	11.110000	0.000000	0.000000	173.000000	51.000000	-5.000000	-7.000000
0.700000	15.280000	11.040000	0.000000	0.000000	173.000000	51.000000	0.000000	-7.000000
0.710000	15.280000	10.980000	0.000000	0.000000	173.000000	51.000000	0.000000	-6.000000
0.720000	15.190000	10.910000	0.000000	0.000000	173.000000	51.000000	-9.000000	-7.000000
0.730000	15.140000	10.830000	0.000000	0.000000	173.000000	51.000000	-5.000000	-8.000000
0.740000	15.140000	10.750000	0.000000	0.000000	173.000000	51.000000	0.000000	-8.000000
0.750000	15.060000	10.660000	0.000000	0.000000	173.000000	51.000000	-8.000000	-9.000000
0.760000	15.060000	10.600000	0.000000	0.000000	173.000000	51.000000	0.000000	-6.000000
0.770000	14.970000	10.600000	0.000000	0.000000	173.000000	51.000000	-9.000000	0.000000
0.780000	14.970000	10.540000	0.000000	0.000000	171.000000	51.000000	0.000000	-6.000000
0.790000	14.970000	10.540000	0.000000	0.000000	171.000000	51.000000	0.000000	0.000000
0.800000	14.890000	10.460000	0.000000	0.000000	171.000000	51.000000	-8.000000	-8.000000
0.810000	14.890000	10.390000	0.000000	0.000000	171.000000	52.000000	0.000000	-7.000000
0.820000	14.890000	10.390000	0.000000	0.000000	171.000000	52.000000	0.000000	0.000000
0.830000	14.890000	10.390000	0.000000	0.000000	171.000000	52.000000	0.000000	0.000000
0.840000	14.890000	10.390000	0.000000	0.000000	171.000000	52.000000	0.000000	0.000000
0.850000	14.890000	10.390000	0.000000	0.000000	171.000000	52.000000	0.000000	0.000000
0.860000	14.890000	10.390000	27.000000	1.000000	171.000000	52.000000	0.000000	0.000000
0.870000	14.730000	10.140000	67.000000	0.000000	171.000000	52.000000	-16.000000	-25.000000
0.880000	14.730000	10.140000	89.000000	0.000000	171.000000	52.000000	0.000000	0.000000
0.890000	14.730000	10.140000	134.000000	0.000000	171.000000	52.000000	0.000000	0.000000
0.900000	14.730000	10.140000	168.000000	0.000000	171.000000	52.000000	0.000000	0.000000
0.910000	14.730000	10.140000	213.000000	0.000000	171.000000	52.000000	0.000000	0.000000
0.920000	14.800000	10.140000	235.000000	0.000000	171.000000	52.000000	7.000000	0.000000
0.930000	14.910000	10.250000	253.000000	0.000000	170.000000	52.000000	11.000000	11.000000
0.940000	15.040000	10.400000	254.000000	0.000000	169.000000	53.000000	13.000000	15.000000
0.950000	15.190000	10.630000	255.000000	0.000000	169.000000	53.000000	15.000000	23.000000
0.960000	15.380000	10.850000	269.000000	0.000000	169.000000	53.000000	19.000000	22.000000
0.970000	15.630000	11.120000	280.000000	0.000000	171.000000	53.000000	25.000000	27.000000
0.980000	15.920000	11.420000	281.000000	0.000000	171.000000	53.000000	29.000000	30.000000
0.990000	16.240000	11.810000	294.000000	0.000000	171.000000	53.000000	32.000000	39.000000
1.000000	16.580000	12.170000	307.000000	0.000000	169.000000	53.000000	34.000000	36.000000
1.010000	16.920000	12.510000	314.000000	0.000000	168.000000	52.000000	34.000000	34.000000
1.020000	17.270000	12.850000	317.000000	0.000000	166.000000	53.000000	35.000000	34.000000
1.030000	17.620000	13.200000	325.000000	0.000000	165.000000	53.000000	35.000000	35.000000
1.040000	17.880000	13.440000	327.000000	0.000000	164.000000	53.000000	26.000000	24.000000
1.050000	18.080000	13.640000	329.000000	0.000000	162.000000	53.000000	20.000000	20.000000
1.060000	18.310000	13.750000	332.000000	0.000000	160.000000	52.000000	23.000000	11.000000
1.070000	18.450000	13.800000	330.000000	0.000000	160.000000	52.000000	14.000000	5.000000
1.080000	18.530000	13.800000	327.000000	0.000000	158.000000	52.000000	8.000000	0.000000
1.090000	18.530000	13.700000	314.000000	0.000000	158.000000	52.000000	0.000000	-10.000000
1.100000	18.530000	13.580000	315.000000	0.000000	158.000000	52.000000	0.000000	-12.000000
1.110000	18.480000	13.390000	322.000000	0.000000	158.000000	52.000000	-5.000000	-19.000000
1.120000	18.330000	13.120000	325.000000	0.000000	158.000000	52.000000	-15.000000	-27.000000
1.130000	18.150000	12.770000	329.000000	0.000000	158.000000	52.000000	-18.000000	-35.000000
1.140000	17.940000	12.400000	334.000000	0.000000	158.000000	52.000000	-21.000000	-37.000000
1.150000	17.690000	12.000000	342.000000	0.000000	158.000000	52.000000	-25.000000	-40.000000
1.160000	17.450000	11.590000	351.000000	0.000000	158.000000	52.000000	-24.000000	-41.000000
1.170000	17.210000	11.180000	353.000000	0.000000	158.000000	52.000000	-24.000000	-41.000000
1.180000	16.960000	10.840000	356.000000	0.000000	158.000000	52.000000	-25.000000	-34.000000
1.190000	16.690000	10.540000	361.000000	0.000000	158.000000	52.000000	-27.000000	-30.000000
1.200000	16.400000	10.260000	366.000000	0.000000	160.000000	52.000000	-29.000000	-28.000000
1.210000	16.160000	10.010000	371.000000	0.000000	161.000000	52.000000	-24.000000	-25.000000
1.220000	15.970000	9.790000	364.000000	0.000000	162.000000	53.000000	-19.000000	-22.000000
1.230000	15.790000	9.630000	369.000000	0.000000	164.000000	53.000000	-18.000000	-16.000000
1.240000	15.660000	9.520000	384.000000	0.000000	165.000000	53.000000	-13.000000	-11.000000
1.250000	15.590000	9.450000	388.000000	0.000000	168.000000	53.000000	-7.000000	-7.000000
1.260000	15.590000	9.450000	396.000000	0.000000	169.000000	53.000000	0.000000	0.000000
1.270000	15.590000	9.450000	388.000000	0.000000	172.000000	53.000000	0.000000	0.000000
1.280000	15.590000	9.450000	389.000000	0.000000	173.000000	53.000000	0.000000	0.000000
1.290000	15.590000	9.450000	402.000000	0.000000	173.000000	53.000000	0.000000	0.000000
1.300000	15.590000	9.450000	400.000000	0.000000	173.000000	53.000000	0.000000	0.000000
1.310000	15.670000	9.500000	407.000000	0.000000	173.000000	53.000000	8.000000	5.000000
1.320000	15.720000	9.560000	407.000000	0.000000	173.000000	53.000000	5.000000	6.000000
1.330000	15.970000	9.770000	412.000000	0.000000	173.000000	53.000000	25.000000	21.000000
1.340000	16.340000	9.970000	417.000000	0.000000	173.000000	53.000000	37.000000	20.000000
1.350000	16.650000	10.160000	418.000000	0.000000	172.000000	53.000000	31.000000	19.000000
1.360000	16.980000	10.340000	422.000000	0.000000	169.000000	53.000000	33.000000	18.000000
1.370000	17.320000	10.520000	423.000000	0.000000	168.000000	53.000000	34.000000	18.000000
1.380000	17.680000	10.680000	423.000000	0.000000	166.000000	53.000000	36.000000	16.000000
1.390000	17.890000	10.770000	423.000000	0.000000	164.000000	53.000000	21.000000	9.000000
1.400000	18.010000	10.770000	414.000000	0.000000	162.000000	54.000000	12.000000	0.000000
1.410000	18.160000	10.770000	425.000000	0.000000	160.000000	53.000000	15.000000	0.000000
1.420000	18.300000	10.710000	417.000000	0.000000	159.000000	53.000000	14.000000	-6.000000
1.430000	18.400000	10.660000	413.000000	0.000000	159.000000	53.000000	10.000000	-5.000000
1.440000	18.470000	10.580000	417.000000	0.000000	159.000000	53.000000	7.000000	-8.000000
1.450000	18.470000	10.430000	412.000000	0.000000	159.000000	53.000000	0.000000	-15.000000
1.460000	18.470000	10.260000	413.000000	0.000000	159.000000	53.000000	0.000000	-17.000000
1.470000	18.370000	10.080000	417.000000	0.000000	159.000000	53.000000	-10.000000	-18.000000
1.480000	18.270000	9.810000	415.000000	0.000000	159.000000	53.000000	-10.000000	-27.000000
1.490000	18.080000	9.530000	417.000000	0.000000	159.000000	53.000000	-19.000000	-28.000000
1.500000	17.830000	9.230000	417.000000	0.000000	159.000000	53.000000	-25.000000	-30.000000
1.510000	17.540000	8.880000	417.000000	0.000000	159.000000	53.000000	-29.000000	-35.000000
1.520000	17.200000	8.480000	417.000000	0.000000	160.000000	52.000000	-34.000000	-40.000000
1.530000	16.820000	7.970000	415.000000	0.000000	161.000000	52.000000	-38.000000	-51.000000
1.540000	16.380000	7.390000	417.000000	0.000000	161.000000	52.000000	-44.000000	-58.000000
1.550000	15.990000	6.780000	418.000000	0.000000	164.000000	52.000000	-39.000000	-61.000000
1.560000	15.660000	6.250000	420.000000	0.000000	166.000000	52.000000	-33.000000	-53.000000
1.570000	15.360000	5.770000	422.000000	0.000000	169.000000	51.000000	-30.000000	-48.000000
1.580000	15.100000	5.320000	422.000000	0.000000	171.000000	52.000000	-26.000000	-45.000000
1.590000	14.870000	4.990000	435.000000	0.000000	174.000000	51.000000	-23.000000	-33.000000
1.600000	14.670000	4.730000	439.000000	0.000000	175.000000	51.000000	-20.000000	-26.000000
1.610000	14.520000	4.490000	450.000000	0.000000	178.000000	51.000000	-15.000000	-24.000000
1.620000	14.420000	4.230000	453.000000	0.000000	179.000000	52.000000	-10.000000	-26.000000
1.630000	14.330000	4.080000	456.000000	0.000000	180.000000	52.000000	-9.000000	-15.000000
1.640000	14.270000	4.010000	460.000000	0.000000	180.000000	53.000000	-6.000000	-7.000000
1.650000	14.270000	3.930000	463.000000	0.000000	180.000000	53.000000	0.000000	-8.000000
1.660000	14.200000	3.850000	465.000000	0.000000	180.000000	54.000000	-7.000000	-8.000000
1.670000	14.200000	3.780000	466.000000	0.000000	180.000000	54.000000	0.000000	-7.000000
1.680000	14.150000	3.780000	447.000000	0.000000	180.000000	54.000000	-5.000000	0.000000
1.690000	14.150000	3.780000	361.000000	0.000000	180.000000	55.000000	0.000000	0.000000
1.700000	14.150000	3.780000	205.000000	0.000000	180.000000	55.000000	0.000000	0.000000
1.710000	14.150000	3.780000	0.000000	1.000000	180.000000	55.000000	0.000000	0.000000
1.720000	14.540000	4.210000	0.000000	0.000000	180.000000	55.000000	39.000000	43.000000
1.730000	15.000000	4.660000	0.000000	0.000000	181.000000	54.000000	46.000000	45.000000
1.740000	15.450000	5.080000	0.000000	0.000000	181.000000	54.000000	45.000000	42.000000
1.750000	15.950000	5.430000	0.000000	0.000000	181.000000	53.000000	50.000000	35.000000
1.760000	16.490000	5.730000	0.000000	0.000000	180.000000	52.000000	54.000000	30.000000
1.770000	16.940000	6.020000	0.000000	0.000000	179.000000	52.000000	45.000000	29.000000
1.780000	17.380000	6.350000	0.000000	0.000000	176.000000	51.000000	44.000000	33.000000
1.790000	17.800000	6.720000	0.000000	0.000000	173.000000	50.000000	42.000000	37.000000
1.800000	18.130000	7.040000	0.000000	0.000000	170.000000	50.000000	33.000000	32.000000
1.810000	18.370000	7.340000	0.000000	0.000000	167.000000	49.000000	24.000000	30.000000
1.820000	18.560000	7.570000	0.000000	0.000000	164.000000	48.000000	19.000000	23.000000
1.830000	18.640000	7.760000	0.000000	0.000000	161.000000	48.000000	8.000000	19.000000
1.840000	18.640000	7.910000	0.000000	0.000000	159.000000	48.000000	0.000000	15.000000
1.850000	18.590000	7.990000	0.000000	0.000000	158.000000	48.000000	-5.000000	8.000000
1.860000	18.590000	8.070000	0.000000	0.000000	158.000000	48.000000	0.000000	8.000000
1.870000	18.510000	8.160000	0.000000	0.000000	158.000000	48.000000	-8.000000	9.000000
1.880000	18.450000	8.240000	0.000000	0.000000	158.000000	48.000000	-6.000000	8.000000
1.890000	18.450000	8.310000	0.000000	0.000000	157.000000	49.000000	0.000000	7.000000
1.900000	18.450000	8.390000	0.000000	0.000000	158.000000	49.000000	0.000000	8.000000
1.910000	18.380000	8.480000	0.000000	0.000000	158.000000	49.000000	-7.000000	9.000000
1.920000	18.380000	8.550000	0.000000	0.000000	158.000000	49.000000	0.000000	7.000000
1.930000	18.380000	8.620000	0.000000	0.000000	158.000000	49.000000	0.000000	7.000000
1.940000	18.380000	8.620000	0.000000	0.000000	159.000000	49.000000	0.000000	0.000000
1.950000	18.380000	8.690000	0.000000	0.000000	159.000000	50.000000	0.000000	7.000000
1.960000	18.380000	8.690000	0.000000	0.000000	159.000000	50.000000	0.000000	0.000000
1.970000	18.460000	8.750000	0.000000	0.000000	159.000000	50.000000	8.000000	6.000000
1.980000	18.460000	8.750000	0.000000	0.000000	159.000000	50.000000	0.000000	0.000000
1.990000	18.540000	8.800000	0.000000	0.000000	159.000000	50.000000	8.000000	5.000000
2.000000	18.540000	8.850000	0.000000	0.000000	159.000000	50.000000	0.000000	5.000000
2.010000	18.610000	8.850000	0.000000	0.000000	158.000000	51.000000	7.000000	0.000000
2.020000	18.610000	8.900000	0.000000	0.000000	158.000000	51.000000	0.000000	5.000000
2.030000	18.610000	8.900000	0.000000	0.000000	158.000000	51.000000	0.000000	0.000000
2.040000	18.610000	8.900000	0.000000	0.000000	158.000000	51.000000	0.000000	0.000000
2.050000	18.670000	8.900000	0.000000	0.000000	157.000000	51.000000	6.000000	0.000000
2.060000	18.670000	8.900000	0.000000	0.000000	157.000000	51.000000	0.000000	0.000000
2.070000	18.720000	8.950000	0.000000	0.000000	158.000000	51.000000	5.000000	5.000000
2.080000	18.780000	8.950000	0.000000	0.000000	158.000000	51.000000	6.000000	0.000000
2.090000	18.780000	8.950000	0.000000	0.000000	158.000000	51.000000	0.000000	0.000000
2.100000	18.860000	9.000000	0.000000	0.000000	158.000000	51.000000	8.000000	5.000000
2.110000	18.860000	9.000000	0.000000	0.000000	158.000000	51.000000	0.000000	0.000000
2.120000	18.860000	9.050000	0.000000	0.000000	158.000000	51.000000	0.000000	5.000000
2.130000	18.860000	9.050000	0.000000	0.000000	158.000000	51.000000	0.000000	0.000000
2.140000	18.860000	9.050000	0.000000	0.000000	158.000000	51.000000	0.000000	0.000000
2.150000	18.860000	9.050000	0.000000	0.000000	158.000000	51.000000	0.000000	0.000000
2.160000	18.860000	9.000000	0.000000	0.000000	158.000000	51.000000	0.000000	-5.000000
2.170000	18.860000	9.000000	0.000000	0.000000	158.000000	51.000000	0.000000	0.000000
2.180000	18.860000	9.000000	0.000000	0.000000	158.000000	51.000000	0.000000	0.000000
2.190000	18.860000	9.050000	0.000000	0.000000	158.000000	51.000000	0.000000	5.000000
2.200000	18.860000	9.050000	0.000000	0.000000	158.000000	51.000000	0.000000	0.000000
2.210000	18.860000	9.050000	0.000000	0.000000	158.000000	51.000000	0.000000	0.000000
2.220000	18.860000	9.050000	0.000000	0.000000	158.000000	51.000000	0.000000	0.000000
2.230000	18.860000	9.050000	0.000000	0.000000	159.000000	51.000000	0.000000	0.000000
2.240000	18.860000	9.050000	0.000000	0.000000	159.000000	51.000000	0.000000	0.000000
2.250000	18.860000	9.050000	0.000000	0.000000	159.000000	51.000000	0.000000	0.000000
