t	x	y	pressure	penup	azimuth	inclination	v_x	v_y
0.000000	86.440000	49.160000	257.000000	1.000000	167.000000	58.000000	0.000000	0.000000
0.010000	86.440000	50.070000	245.000000	0.000000	167.000000	58.000000	0.000000	91.000000
0.020000	86.500000	49.880000	254.000000	0.000000	167.000000	58.000000	6.000000	-19.000000
0.030000	86.420000	49.500000	291.000000	0.000000	167.000000	58.000000	-8.000000	-38.000000
0.040000	86.260000	48.570000	359.000000	0.000000	167.000000	57.000000	-16.000000	-93.000000
0.050000	86.120000	47.460000	400.000000	0.000000	167.000000	58.000000	-14.000000	-111.000000
0.060000	86.120000	46.230000	425.000000	0.000000	167.000000	58.000000	0.000000	-123.000000
0.070000	86.260000	44.830000	433.000000	0.000000	165.000000	58.000000	14.000000	-140.000000
0.080000	86.580000	43.430000	440.000000	0.000000	165.000000	58.000000	32.000000	-140.000000
0.090000	87.090000	42.040000	449.000000	0.000000	165.000000	59.000000	51.000000	-139.000000
0.100000	87.730000	41.130000	456.000000	0.000000	165.000000	59.000000	64.000000	-91.000000
0.110000	88.250000	40.640000	469.000000	0.000000	165.000000	59.000000	52.000000	-49.000000
0.120000	88.640000	40.420000	473.000000	0.000000	166.000000	59.000000	39.000000	-22.000000
0.130000	88.940000	40.420000	465.000000	0.000000	166.000000	59.000000	30.000000	0.000000
0.140000	88.940000	40.650000	371.000000	0.000000	166.000000	59.000000	0.000000	23.000000
0.150000	88.780000	41.030000	217.000000	0.000000	168.000000	59.000000	-16.000000	38.000000
0.160000	88.450000	41.800000	68.000000	0.000000	168.000000	59.000000	-33.000000	77.000000
0.170000	87.680000	42.680000	60.000000	0.000000	168.000000	59.000000	-77.000000	88.000000
0.180000	86.680000	43.640000	158.000000	0.000000	168.000000	59.000000	-100.000000	96.000000
0.190000	85.530000	44.120000	216.000000	0.000000	166.000000	59.000000	-115.000000	48.000000
0.200000	84.280000	44.290000	304.000000	0.000000	166.000000	59.000000	-125.000000	17.000000
0.210000	83.060000	44.290000	353.000000	0.000000	165.000000	59.000000	-122.000000	0.000000
0.220000	82.370000	44.090000	369.000000	0.000000	165.000000	59.000000	-69.000000	-20.000000
0.230000	82.020000	43.970000	399.000000	0.000000	165.000000	59.000000	-35.000000	-12.000000
0.240000	82.260000	43.860000	422.000000	0.000000	163.000000	59.000000	24.000000	-11.000000
0.250000	83.140000	43.720000	453.000000	0.000000	163.000000	59.000000	88.000000	-14.000000
0.260000	84.440000	43.720000	498.000000	0.000000	163.000000	59.000000	130.000000	0.000000
0.270000	86.350000	43.780000	542.000000	0.000000	165.000000	59.000000	191.000000	6.000000
0.280000	88.880000	44.020000	602.000000	0.000000	165.000000	59.000000	253.000000	24.000000
0.290000	91.810000	44.210000	628.000000	0.000000	166.000000	59.000000	293.000000	19.000000
0.300000	94.990000	44.390000	665.000000	0.000000	168.000000	59.000000	318.000000	18.000000
0.310000	98.180000	44.590000	678.000000	0.000000	170.000000	60.000000	319.000000	20.000000
0.320000	101.070000	44.720000	699.000000	0.000000	170.000000	60.000000	289.000000	13.000000
0.330000	103.770000	44.840000	711.000000	0.000000	171.000000	60.000000	270.000000	12.000000
0.340000	105.850000	44.930000	707.000000	0.000000	173.000000	60.000000	208.000000	9.000000
0.350000	107.230000	44.990000	681.000000	0.000000	175.000000	60.000000	138.000000	6.000000
0.360000	108.140000	45.050000	595.000000	0.000000	175.000000	61.000000	91.000000	6.000000
0.370000	108.480000	45.130000	438.000000	0.000000	175.000000	61.000000	34.000000	8.000000
0.380000	108.370000	45.260000	32.000000	0.000000	175.000000	61.000000	-11.000000	13.000000
0.390000	108.370000	45.260000	0.000000	1.000000	175.000000	61.000000	0.000000	0.000000
0.400000	107.010000	45.690000	0.000000	0.000000	175.000000	61.000000	-136.000000	43.000000
0.410000	105.530000	46.090000	0.000000	0.000000	175.000000	61.000000	-148.000000	40.000000
0.420000	103.710000	46.580000	0.000000	0.000000	173.000000	61.000000	-182.000000	49.000000
0.430000	101.680000	47.090000	0.000000	0.000000	173.000000	61.000000	-203.000000	51.000000
0.440000	99.390000	47.580000	0.000000	0.000000	173.000000	60.000000	-229.000000	49.000000
0.450000	96.930000	48.010000	0.000000	0.000000	172.000000	59.000000	-246.000000	43.000000
0.460000	94.640000	48.360000	0.000000	0.000000	172.000000	58.000000	-229.000000	35.000000
0.470000	92.610000	48.480000	0.000000	0.000000	173.000000	56.000000	-203.000000	12.000000
0.480000	90.750000	48.480000	0.000000	0.000000	171.000000	55.000000	-186.000000	0.000000
0.490000	89.080000	48.360000	0.000000	0.000000	171.000000	53.000000	-167.000000	-12.000000
0.500000	87.890000	48.190000	0.000000	0.000000	171.000000	53.000000	-119.000000	-17.000000
0.510000	87.020000	47.920000	0.000000	0.000000	170.000000	52.000000	-87.000000	-27.000000
0.520000	86.620000	47.640000	0.000000	0.000000	169.000000	53.000000	-40.000000	-28.000000
0.530000	86.360000	47.360000	0.000000	0.000000	168.000000	52.000000	-26.000000	-28.000000
0.540000	86.200000	47.040000	0.000000	0.000000	166.000000	53.000000	-16.000000	-32.000000
0.550000	86.020000	46.570000	0.000000	0.000000	166.000000	54.000000	-18.000000	-47.000000
0.560000	86.020000	46.570000	249.000000	1.000000	165.000000	55.000000	0.000000	0.000000
0.570000	86.150000	45.780000	246.000000	0.000000	164.000000	57.000000	13.000000	-79.000000
0.580000	86.270000	45.610000	242.000000	0.000000	164.000000	58.000000	12.000000	-17.000000
0.590000	86.530000	45.480000	309.000000	0.000000	163.000000	59.000000	26.000000	-13.000000
0.600000	86.880000	45.480000	369.000000	0.000000	161.000000	59.000000	35.000000	0.000000
0.610000	87.300000	45.730000	397.000000	0.000000	161.000000	60.000000	42.000000	25.000000
0.620000	87.760000	46.070000	418.000000	0.000000	161.000000	60.000000	46.000000	34.000000
0.630000	88.310000	46.570000	427.000000	0.000000	161.000000	60.000000	55.000000	50.000000
0.640000	88.820000	47.140000	428.000000	0.000000	162.000000	60.000000	51.000000	57.000000
0.650000	89.280000	47.750000	422.000000	0.000000	162.000000	60.000000	46.000000	61.000000
0.660000	89.570000	48.500000	388.000000	0.000000	163.000000	59.000000	29.000000	75.000000
0.670000	89.720000	49.350000	361.000000	0.000000	165.000000	59.000000	15.000000	85.000000
0.680000	89.770000	50.270000	344.000000	0.000000	165.000000	58.000000	5.000000	92.000000
0.690000	89.670000	50.950000	371.000000	0.000000	165.000000	58.000000	-10.000000	68.000000
0.700000	89.500000	51.200000	366.000000	0.000000	166.000000	57.000000	-17.000000	25.000000
0.710000	89.280000	51.200000	362.000000	0.000000	166.000000	56.000000	-22.000000	0.000000
0.720000	88.950000	50.710000	367.000000	0.000000	166.000000	56.000000	-33.000000	-49.000000
0.730000	88.500000	49.910000	391.000000	0.000000	167.000000	55.000000	-45.000000	-80.000000
0.740000	87.980000	48.880000	392.000000	0.000000	165.000000	55.000000	-52.000000	-103.000000
0.750000	87.650000	47.740000	418.000000	0.000000	165.000000	56.000000	-33.000000	-114.000000
0.760000	87.490000	46.740000	418.000000	0.000000	165.000000	56.000000	-16.000000	-100.000000
0.770000	87.430000	46.090000	433.000000	0.000000	165.000000	56.000000	-6.000000	-65.000000
0.780000	87.490000	45.640000	439.000000	0.000000	163.000000	57.000000	6.000000	-45.000000
0.790000	87.730000	45.340000	458.000000	0.000000	162.000000	58.000000	24.000000	-30.000000
0.800000	88.090000	45.340000	456.000000	0.000000	161.000000	59.000000	36.000000	0.000000
0.810000	88.550000	45.490000	435.000000	0.000000	161.000000	59.000000	46.000000	15.000000
0.820000	89.190000	45.920000	415.000000	0.000000	161.000000	60.000000	64.000000	43.000000
0.830000	89.960000	46.460000	364.000000	0.000000	161.000000	60.000000	77.000000	54.000000
0.840000	90.460000	47.080000	329.000000	0.000000	162.000000	60.000000	50.000000	62.000000
0.850000	90.690000	47.590000	325.000000	0.000000	162.000000	60.000000	23.000000	51.000000
0.860000	90.740000	47.750000	337.000000	0.000000	164.000000	60.000000	5.000000	16.000000
0.870000	90.540000	47.680000	371.000000	0.000000	166.000000	59.000000	-20.000000	-7.000000
0.880000	90.130000	47.140000	442.000000	0.000000	168.000000	59.000000	-41.000000	-54.000000
0.890000	89.570000	46.310000	501.000000	0.000000	168.000000	59.000000	-56.000000	-83.000000
0.900000	88.980000	45.280000	570.000000	0.000000	168.000000	59.000000	-59.000000	-103.000000
0.910000	88.420000	44.010000	588.000000	0.000000	168.000000	59.000000	-56.000000	-127.000000
0.920000	87.990000	42.590000	585.000000	0.000000	168.000000	59.000000	-43.000000	-142.000000
0.930000	87.640000	41.060000	592.000000	0.000000	166.000000	59.000000	-35.000000	-153.000000
0.940000	87.420000	39.980000	594.000000	0.000000	166.000000	59.000000	-22.000000	-108.000000
0.950000	87.420000	39.310000	591.000000	0.000000	164.000000	60.000000	0.000000	-67.000000
0.960000	87.530000	38.920000	522.000000	0.000000	162.000000	60.000000	11.000000	-39.000000
0.970000	87.760000	38.840000	304.000000	0.000000	162.000000	61.000000	23.000000	-8.000000
0.980000	87.760000	38.840000	0.000000	1.000000	160.000000	60.000000	0.000000	0.000000
0.990000	88.350000	39.560000	0.000000	0.000000	161.000000	62.000000	59.000000	72.000000
1.000000	88.700000	40.410000	0.000000	0.000000	161.000000	62.000000	35.000000	85.000000
1.010000	88.770000	41.510000	0.000000	0.000000	161.000000	62.000000	7.000000	110.000000
1.020000	88.770000	42.780000	0.000000	0.000000	163.000000	62.000000	0.000000	127.000000
1.030000	88.770000	44.240000	0.000000	0.000000	163.000000	61.000000	0.000000	146.000000
1.040000	88.990000	45.290000	0.000000	0.000000	166.000000	60.000000	22.000000	105.000000
1.050000	89.210000	46.070000	0.000000	0.000000	166.000000	60.000000	22.000000	78.000000
1.060000	89.410000	46.070000	0.000000	0.000000	166.000000	59.000000	20.000000	0.000000
1.070000	89.570000	45.860000	0.000000	0.000000	167.000000	58.000000	16.000000	-21.000000
1.080000	89.570000	45.860000	214.000000	1.000000	165.000000	58.000000	0.000000	0.000000
1.090000	89.890000	44.830000	216.000000	0.000000	166.000000	57.000000	32.000000	-103.000000
1.100000	89.960000	44.700000	209.000000	0.000000	165.000000	58.000000	7.000000	-13.000000
1.110000	90.080000	44.910000	306.000000	0.000000	165.000000	58.000000	12.000000	21.000000
1.120000	90.250000	44.800000	341.000000	0.000000	165.000000	58.000000	17.000000	-11.000000
1.130000	90.430000	44.800000	415.000000	0.000000	165.000000	59.000000	18.000000	0.000000
1.140000	90.600000	44.800000	438.000000	0.000000	166.000000	59.000000	17.000000	0.000000
1.150000	90.870000	44.960000	440.000000	0.000000	168.000000	60.000000	27.000000	16.000000
1.160000	91.180000	45.260000	440.000000	0.000000	168.000000	60.000000	31.000000	30.000000
1.170000	91.520000	45.660000	423.000000	0.000000	169.000000	61.000000	34.000000	40.000000
1.180000	91.770000	46.160000	409.000000	0.000000	169.000000	61.000000	25.000000	50.000000
1.190000	91.950000	46.720000	364.000000	0.000000	169.000000	61.000000	18.000000	56.000000
1.200000	92.000000	47.330000	344.000000	0.000000	169.000000	61.000000	5.000000	61.000000
1.210000	91.900000	47.940000	345.000000	0.000000	169.000000	61.000000	-10.000000	61.000000
1.220000	91.700000	48.340000	359.000000	0.000000	170.000000	60.000000	-20.000000	40.000000
1.230000	91.470000	48.600000	363.000000	0.000000	170.000000	60.000000	-23.000000	26.000000
1.240000	91.230000	48.490000	377.000000	0.000000	170.000000	60.000000	-24.000000	-11.000000
1.250000	90.970000	48.100000	399.000000	0.000000	168.000000	58.000000	-26.000000	-39.000000
1.260000	90.650000	47.520000	423.000000	0.000000	168.000000	58.000000	-32.000000	-58.000000
1.270000	90.330000	46.820000	438.000000	0.000000	168.000000	58.000000	-32.000000	-70.000000
1.280000	90.200000	46.190000	452.000000	0.000000	168.000000	58.000000	-13.000000	-63.000000
1.290000	90.200000	45.620000	465.000000	0.000000	166.000000	59.000000	0.000000	-57.000000
1.300000	90.200000	45.060000	473.000000	0.000000	166.000000	59.000000	0.000000	-56.000000
1.310000	90.280000	44.660000	483.000000	0.000000	168.000000	59.000000	8.000000	-40.000000
1.320000	90.440000	44.370000	492.000000	0.000000	168.000000	59.000000	16.000000	-29.000000
1.330000	90.680000	44.230000	505.000000	0.000000	168.000000	59.000000	24.000000	-14.000000
1.340000	90.930000	44.230000	532.000000	0.000000	168.000000	59.000000	25.000000	0.000000
1.350000	91.180000	44.370000	544.000000	0.000000	168.000000	59.000000	25.000000	14.000000
1.360000	91.460000	44.650000	540.000000	0.000000	168.000000	59.000000	28.000000	28.000000
1.370000	91.800000	45.150000	538.000000	0.000000	168.000000	60.000000	34.000000	50.000000
1.380000	92.110000	45.800000	530.000000	0.000000	168.000000	60.000000	31.000000	65.000000
1.390000	92.380000	46.470000	494.000000	0.000000	168.000000	60.000000	27.000000	67.000000
1.400000	92.570000	47.230000	491.000000	0.000000	168.000000	60.000000	19.000000	76.000000
1.410000	92.670000	48.060000	493.000000	0.000000	168.000000	60.000000	10.000000	83.000000
1.420000	92.670000	48.680000	491.000000	0.000000	166.000000	59.000000	0.000000	62.000000
1.430000	92.620000	48.930000	493.000000	0.000000	166.000000	59.000000	-5.000000	25.000000
1.440000	92.550000	48.930000	491.000000	0.000000	166.000000	59.000000	-7.000000	0.000000
1.450000	92.550000	48.660000	497.000000	0.000000	165.000000	58.000000	0.000000	-27.000000
1.460000	92.370000	47.980000	520.000000	0.000000	165.000000	58.000000	-18.000000	-68.000000
1.470000	92.130000	47.040000	522.000000	0.000000	165.000000	58.000000	-24.000000	-94.000000
1.480000	91.980000	46.200000	529.000000	0.000000	165.000000	58.000000	-15.000000	-84.000000
1.490000	91.900000	45.520000	538.000000	0.000000	165.000000	58.000000	-8.000000	-68.000000
1.500000	91.900000	44.950000	539.000000	0.000000	165.000000	58.000000	0.000000	-57.000000
1.510000	92.030000	44.540000	545.000000	0.000000	165.000000	59.000000	13.000000	-41.000000
1.520000	92.140000	44.350000	546.000000	0.000000	166.000000	59.000000	11.000000	-19.000000
1.530000	92.240000	44.300000	560.000000	0.000000	166.000000	60.000000	10.000000	-5.000000
1.540000	92.340000	44.380000	574.000000	0.000000	166.000000	60.000000	10.000000	8.000000
1.550000	92.540000	44.650000	572.000000	0.000000	166.000000	60.000000	20.000000	27.000000
1.560000	92.820000	45.050000	567.000000	0.000000	166.000000	60.000000	28.000000	40.000000
1.570000	93.150000	45.630000	565.000000	0.000000	166.000000	60.000000	33.000000	58.000000
1.580000	93.300000	46.310000	543.000000	0.000000	164.000000	60.000000	15.000000	68.000000
1.590000	93.410000	47.070000	537.000000	0.000000	164.000000	60.000000	11.000000	76.000000
1.600000	93.500000	47.860000	524.000000	0.000000	164.000000	60.000000	9.000000	79.000000
1.610000	93.560000	48.610000	526.000000	0.000000	164.000000	60.000000	6.000000	75.000000
1.620000	93.560000	48.860000	526.000000	0.000000	165.000000	59.000000	0.000000	25.000000
1.630000	93.480000	48.780000	526.000000	0.000000	163.000000	59.000000	-8.000000	-8.000000
1.640000	93.480000	48.420000	537.000000	0.000000	163.000000	59.000000	0.000000	-36.000000
1.650000	93.330000	47.710000	536.000000	0.000000	164.000000	58.000000	-15.000000	-71.000000
1.660000	93.180000	46.770000	548.000000	0.000000	162.000000	58.000000	-15.000000	-94.000000
1.670000	93.130000	46.100000	565.000000	0.000000	162.000000	58.000000	-5.000000	-67.000000
1.680000	93.040000	45.400000	566.000000	0.000000	163.000000	59.000000	-9.000000	-70.000000
1.690000	93.040000	44.970000	574.000000	0.000000	163.000000	59.000000	0.000000	-43.000000
1.700000	93.150000	44.740000	577.000000	0.000000	163.000000	59.000000	11.000000	-23.000000
1.710000	93.280000	44.640000	589.000000	0.000000	164.000000	60.000000	13.000000	-10.000000
1.720000	93.400000	44.640000	606.000000	0.000000	164.000000	60.000000	12.000000	0.000000
1.730000	93.560000	44.710000	609.000000	0.000000	164.000000	60.000000	16.000000	7.000000
1.740000	93.740000	45.040000	608.000000	0.000000	164.000000	60.000000	18.000000	33.000000
1.750000	94.090000	45.610000	602.000000	0.000000	164.000000	60.000000	35.000000	57.000000
1.760000	94.390000	46.330000	595.000000	0.000000	162.000000	60.000000	30.000000	72.000000
1.770000	94.650000	47.170000	580.000000	0.000000	162.000000	60.000000	26.000000	84.000000
1.780000	94.770000	48.010000	578.000000	0.000000	162.000000	60.000000	12.000000	84.000000
1.790000	94.770000	48.850000	578.000000	0.000000	162.000000	60.000000	0.000000	84.000000
1.800000	94.770000	49.220000	584.000000	0.000000	163.000000	59.000000	0.000000	37.000000
1.810000	94.680000	49.220000	586.000000	0.000000	163.000000	59.000000	-9.000000	0.000000
1.820000	94.580000	49.030000	589.000000	0.000000	162.000000	58.000000	-10.000000	-19.000000
1.830000	94.380000	48.510000	595.000000	0.000000	162.000000	58.000000	-20.000000	-52.000000
1.840000	94.180000	47.790000	588.000000	0.000000	162.000000	58.000000	-20.000000	-72.000000
1.850000	93.970000	46.930000	588.000000	0.000000	161.000000	57.000000	-21.000000	-86.000000
1.860000	93.970000	46.330000	586.000000	0.000000	162.000000	58.000000	0.000000	-60.000000
1.870000	94.070000	45.850000	551.000000	0.000000	162.000000	58.000000	10.000000	-48.000000
1.880000	94.330000	45.440000	447.000000	0.000000	161.000000	59.000000	26.000000	-41.000000
1.890000	94.620000	45.200000	242.000000	0.000000	161.000000	59.000000	29.000000	-24.000000
1.900000	94.620000	45.200000	0.000000	1.000000	162.000000	60.000000	0.000000	0.000000
1.910000	95.350000	45.120000	0.000000	0.000000	162.000000	60.000000	73.000000	-8.000000
1.920000	95.650000	45.320000	0.000000	0.000000	162.000000	60.000000	30.000000	20.000000
1.930000	95.890000	45.630000	0.000000	0.000000	162.000000	60.000000	24.000000	31.000000
1.940000	96.120000	46.040000	0.000000	0.000000	164.000000	60.000000	23.000000	41.000000
1.950000	96.300000	46.400000	0.000000	0.000000	164.000000	60.000000	18.000000	36.000000
1.960000	96.440000	46.830000	0.000000	0.000000	164.000000	60.000000	14.000000	43.000000
1.970000	96.440000	46.830000	142.000000	1.000000	164.000000	60.000000	0.000000	0.000000
1.980000	96.390000	47.740000	214.000000	0.000000	164.000000	60.000000	-5.000000	91.000000
1.990000	96.220000	48.150000	305.000000	0.000000	165.000000	59.000000	-17.000000	41.000000
2.000000	96.050000	48.310000	388.000000	0.000000	165.000000	59.000000	-17.000000	16.000000
2.010000	95.800000	48.310000	445.000000	0.000000	165.000000	59.000000	-25.000000	0.000000
2.020000	95.500000	48.060000	474.000000	0.000000	165.000000	58.000000	-30.000000	-25.000000
2.030000	95.220000	47.540000	494.000000	0.000000	164.000000	58.000000	-28.000000	-52.000000
2.040000	94.950000	46.830000	510.000000	0.000000	164.000000	58.000000	-27.000000	-71.000000
2.050000	94.690000	46.110000	514.000000	0.000000	164.000000	58.000000	-26.000000	-72.000000
2.060000	94.690000	45.570000	517.000000	0.000000	161.000000	59.000000	0.000000	-54.000000
2.070000	94.910000	45.160000	522.000000	0.000000	161.000000	59.000000	22.000000	-41.000000
2.080000	95.210000	44.970000	512.000000	0.000000	161.000000	59.000000	30.000000	-19.000000
2.090000	95.390000	44.970000	512.000000	0.000000	161.000000	60.000000	18.000000	0.000000
2.100000	95.590000	44.970000	522.000000	0.000000	161.000000	60.000000	20.000000	0.000000
2.110000	95.840000	45.230000	512.000000	0.000000	162.000000	60.000000	25.000000	26.000000
2.120000	96.130000	45.650000	520.000000	0.000000	162.000000	60.000000	29.000000	42.000000
2.130000	96.310000	46.190000	512.000000	0.000000	162.000000	60.000000	18.000000	54.000000
2.140000	96.420000	46.810000	510.000000	0.000000	162.000000	60.000000	11.000000	62.000000
2.150000	96.520000	47.410000	514.000000	0.000000	162.000000	60.000000	10.000000	60.000000
2.160000	96.520000	48.000000	526.000000	0.000000	162.000000	60.000000	0.000000	59.000000
2.170000	96.520000	48.120000	533.000000	0.000000	162.000000	60.000000	0.000000	12.000000
2.180000	96.450000	48.020000	543.000000	0.000000	163.000000	59.000000	-7.000000	-10.000000
2.190000	96.370000	47.770000	561.000000	0.000000	163.000000	59.000000	-8.000000	-25.000000
