t	x	y	pressure	penup	azimuth	inclination	v_x	v_y
0.000000	92.230000	17.580000	3.000000	1.000000	183.000000	58.000000	0.000000	0.000000
0.010000	92.180000	17.360000	48.000000	1.000000	183.000000	58.000000	0.000000	0.000000
0.020000	92.180000	17.360000	88.000000	0.000000	183.000000	58.000000	0.000000	0.000000
0.030000	92.180000	17.360000	141.000000	0.000000	185.000000	58.000000	0.000000	0.000000
0.040000	92.180000	17.360000	200.000000	0.000000	185.000000	58.000000	0.000000	0.000000
0.050000	92.180000	17.360000	245.000000	0.000000	185.000000	58.000000	0.000000	0.000000
0.060000	92.180000	17.360000	292.000000	0.000000	185.000000	57.000000	0.000000	0.000000
0.070000	92.180000	17.360000	307.000000	0.000000	185.000000	57.000000	0.000000	0.000000
0.080000	92.370000	17.630000	319.000000	0.000000	185.000000	57.000000	19.000000	27.000000
0.090000	92.440000	17.800000	330.000000	0.000000	186.000000	57.000000	7.000000	17.000000
0.100000	92.530000	18.040000	334.000000	0.000000	186.000000	57.000000	9.000000	24.000000
0.110000	92.590000	18.360000	332.000000	0.000000	186.000000	57.000000	6.000000	32.000000
0.120000	92.590000	18.600000	327.000000	0.000000	186.000000	56.000000	0.000000	24.000000
0.130000	92.460000	18.790000	309.000000	0.000000	186.000000	56.000000	-13.000000	19.000000
0.140000	92.210000	19.530000	307.000000	0.000000	186.000000	56.000000	-25.000000	74.000000
0.150000	91.910000	20.000000	307.000000	0.000000	186.000000	55.000000	-30.000000	47.000000
0.160000	91.600000	20.280000	314.000000	0.000000	186.000000	55.000000	-31.000000	28.000000
0.170000	91.340000	20.460000	317.000000	0.000000	186.000000	55.000000	-26.000000	18.000000
0.180000	91.110000	20.580000	319.000000	0.000000	185.000000	54.000000	-23.000000	12.000000
0.190000	90.910000	20.580000	322.000000	0.000000	185.000000	54.000000	-20.000000	0.000000
0.200000	90.740000	20.420000	329.000000	0.000000	185.000000	54.000000	-17.000000	-16.000000
0.210000	90.600000	20.170000	345.000000	0.000000	185.000000	53.000000	-14.000000	-25.000000
0.220000	90.470000	19.720000	362.000000	0.000000	184.000000	53.000000	-13.000000	-45.000000
0.230000	90.470000	19.130000	387.000000	0.000000	184.000000	53.000000	0.000000	-59.000000
0.240000	90.470000	18.450000	413.000000	0.000000	184.000000	53.000000	0.000000	-68.000000
0.250000	90.470000	17.580000	453.000000	0.000000	184.000000	53.000000	0.000000	-87.000000
0.260000	90.520000	16.590000	483.000000	0.000000	184.000000	53.000000	5.000000	-99.000000
0.270000	90.660000	15.600000	502.000000	0.000000	184.000000	53.000000	14.000000	-99.000000
0.280000	90.860000	14.790000	516.000000	0.000000	184.000000	53.000000	20.000000	-81.000000
0.290000	91.160000	14.100000	535.000000	0.000000	184.000000	53.000000	30.000000	-69.000000
0.300000	91.440000	13.510000	538.000000	0.000000	185.000000	53.000000	28.000000	-59.000000
0.310000	91.720000	13.050000	542.000000	0.000000	185.000000	54.000000	28.000000	-46.000000
0.320000	92.010000	12.690000	543.000000	0.000000	185.000000	54.000000	29.000000	-36.000000
0.330000	92.300000	12.560000	550.000000	0.000000	186.000000	55.000000	29.000000	-13.000000
0.340000	92.490000	12.560000	561.000000	0.000000	187.000000	55.000000	19.000000	0.000000
0.350000	92.560000	12.560000	569.000000	0.000000	187.000000	56.000000	7.000000	0.000000
0.360000	92.560000	12.610000	561.000000	0.000000	187.000000	56.000000	0.000000	5.000000
0.370000	92.560000	12.990000	554.000000	0.000000	187.000000	56.000000	0.000000	38.000000
0.380000	92.560000	13.580000	546.000000	0.000000	187.000000	56.000000	0.000000	59.000000
0.390000	92.370000	14.170000	505.000000	0.000000	189.000000	56.000000	-19.000000	59.000000
0.400000	92.030000	14.850000	504.000000	0.000000	189.000000	56.000000	-34.000000	68.000000
0.410000	91.780000	15.580000	520.000000	0.000000	189.000000	56.000000	-25.000000	73.000000
0.420000	91.570000	15.860000	515.000000	0.000000	189.000000	55.000000	-21.000000	28.000000
0.430000	91.390000	16.090000	522.000000	0.000000	188.000000	54.000000	-18.000000	23.000000
0.440000	91.390000	16.160000	517.000000	0.000000	188.000000	53.000000	0.000000	7.000000
0.450000	91.390000	16.160000	514.000000	0.000000	188.000000	52.000000	0.000000	0.000000
0.460000	91.390000	15.980000	514.000000	0.000000	187.000000	51.000000	0.000000	-18.000000
0.470000	91.550000	15.780000	519.000000	0.000000	187.000000	51.000000	16.000000	-20.000000
0.480000	91.790000	15.570000	515.000000	0.000000	187.000000	51.000000	24.000000	-21.000000
0.490000	92.080000	15.380000	519.000000	0.000000	187.000000	51.000000	29.000000	-19.000000
0.500000	92.430000	15.300000	519.000000	0.000000	187.000000	51.000000	35.000000	-8.000000
0.510000	92.750000	15.380000	519.000000	0.000000	187.000000	51.000000	32.000000	8.000000
0.520000	93.050000	15.580000	521.000000	0.000000	187.000000	51.000000	30.000000	20.000000
0.530000	93.160000	15.690000	512.000000	0.000000	189.000000	51.000000	11.000000	11.000000
0.540000	93.090000	15.770000	509.000000	0.000000	189.000000	51.000000	-7.000000	8.000000
0.550000	92.910000	15.970000	496.000000	0.000000	189.000000	51.000000	-18.000000	20.000000
0.560000	92.680000	16.260000	489.000000	0.000000	189.000000	51.000000	-23.000000	29.000000
0.570000	92.430000	16.260000	492.000000	0.000000	189.000000	51.000000	-25.000000	0.000000
0.580000	92.160000	16.100000	494.000000	0.000000	189.000000	51.000000	-27.000000	-16.000000
0.590000	91.910000	15.750000	510.000000	0.000000	188.000000	50.000000	-25.000000	-35.000000
0.600000	91.690000	15.110000	516.000000	0.000000	189.000000	51.000000	-22.000000	-64.000000
0.610000	91.540000	14.220000	537.000000	0.000000	187.000000	51.000000	-15.000000	-89.000000
0.620000	91.410000	13.160000	539.000000	0.000000	188.000000	52.000000	-13.000000	-106.000000
0.630000	91.290000	11.950000	565.000000	0.000000	188.000000	53.000000	-12.000000	-121.000000
0.640000	91.290000	10.910000	569.000000	0.000000	187.000000	54.000000	0.000000	-104.000000
0.650000	91.290000	10.270000	589.000000	0.000000	187.000000	55.000000	0.000000	-64.000000
0.660000	91.290000	9.850000	586.000000	0.000000	186.000000	56.000000	0.000000	-42.000000
0.670000	91.380000	9.500000	592.000000	0.000000	186.000000	57.000000	9.000000	-35.000000
0.680000	91.440000	9.310000	581.000000	0.000000	185.000000	58.000000	6.000000	-19.000000
0.690000	91.440000	9.240000	551.000000	0.000000	185.000000	58.000000	0.000000	-7.000000
0.700000	91.440000	9.240000	485.000000	0.000000	183.000000	58.000000	0.000000	0.000000
0.710000	91.440000	9.240000	341.000000	0.000000	183.000000	58.000000	0.000000	0.000000
0.720000	91.570000	9.390000	24.000000	0.000000	183.000000	58.000000	13.000000	15.000000
0.730000	91.570000	9.390000	0.000000	1.000000	183.000000	58.000000	0.000000	0.000000
0.740000	91.910000	10.000000	0.000000	0.000000	183.000000	58.000000	34.000000	61.000000
0.750000	92.100000	10.360000	0.000000	0.000000	183.000000	58.000000	19.000000	36.000000
0.760000	92.250000	10.730000	0.000000	0.000000	185.000000	58.000000	15.000000	37.000000
0.770000	92.350000	11.120000	0.000000	0.000000	185.000000	58.000000	10.000000	39.000000
0.780000	92.430000	11.700000	0.000000	0.000000	185.000000	57.000000	8.000000	58.000000
0.790000	92.490000	12.410000	0.000000	0.000000	185.000000	57.000000	6.000000	71.000000
0.800000	92.550000	13.200000	0.000000	0.000000	184.000000	56.000000	6.000000	79.000000
0.810000	92.550000	14.060000	0.000000	0.000000	184.000000	55.000000	0.000000	86.000000
0.820000	92.650000	14.750000	0.000000	0.000000	185.000000	54.000000	10.000000	69.000000
0.830000	92.760000	15.320000	0.000000	0.000000	185.000000	53.000000	11.000000	57.000000
0.840000	92.850000	15.600000	0.000000	0.000000	185.000000	52.000000	9.000000	28.000000
0.850000	92.850000	15.660000	0.000000	0.000000	185.000000	51.000000	0.000000	6.000000
0.860000	92.850000	15.570000	0.000000	0.000000	186.000000	50.000000	0.000000	-9.000000
0.870000	92.900000	15.570000	0.000000	0.000000	186.000000	49.000000	5.000000	0.000000
0.880000	92.900000	15.570000	1.000000	0.000000	187.000000	49.000000	0.000000	0.000000
0.890000	92.900000	15.570000	65.000000	1.000000	187.000000	48.000000	0.000000	0.000000
0.900000	92.900000	15.570000	83.000000	0.000000	187.000000	49.000000	0.000000	0.000000
0.910000	92.900000	15.570000	134.000000	0.000000	188.000000	49.000000	0.000000	0.000000
0.920000	93.180000	15.310000	175.000000	0.000000	188.000000	50.000000	28.000000	-26.000000
0.930000	93.420000	15.160000	208.000000	0.000000	188.000000	50.000000	24.000000	-15.000000
0.940000	93.660000	15.000000	240.000000	0.000000	189.000000	51.000000	24.000000	-16.000000
0.950000	93.890000	14.840000	250.000000	0.000000	189.000000	51.000000	23.000000	-16.000000
0.960000	94.120000	14.770000	280.000000	0.000000	190.000000	52.000000	23.000000	-7.000000
0.970000	94.310000	14.770000	287.000000	0.000000	190.000000	52.000000	19.000000	0.000000
0.980000	94.450000	14.860000	309.000000	0.000000	190.000000	52.000000	14.000000	9.000000
0.990000	94.520000	14.990000	311.000000	0.000000	190.000000	52.000000	7.000000	13.000000
1.000000	94.520000	15.220000	307.000000	0.000000	190.000000	52.000000	0.000000	23.000000
1.010000	94.450000	15.510000	305.000000	0.000000	190.000000	52.000000	-7.000000	29.000000
1.020000	94.320000	15.800000	317.000000	0.000000	190.000000	52.000000	-13.000000	29.000000
1.030000	94.130000	16.120000	317.000000	0.000000	190.000000	52.000000	-19.000000	32.000000
1.040000	93.900000	16.460000	304.000000	0.000000	190.000000	51.000000	-23.000000	34.000000
1.050000	93.680000	16.580000	305.000000	0.000000	190.000000	51.000000	-22.000000	12.000000
1.060000	93.510000	16.580000	324.000000	0.000000	190.000000	50.000000	-17.000000	0.000000
1.070000	93.360000	16.390000	343.000000	0.000000	189.000000	49.000000	-15.000000	-19.000000
1.080000	93.190000	15.990000	394.000000	0.000000	189.000000	49.000000	-17.000000	-40.000000
1.090000	93.090000	15.450000	417.000000	0.000000	189.000000	49.000000	-10.000000	-54.000000
1.100000	93.030000	14.960000	460.000000	0.000000	189.000000	49.000000	-6.000000	-49.000000
1.110000	93.160000	14.470000	464.000000	0.000000	190.000000	50.000000	13.000000	-49.000000
1.120000	93.290000	14.060000	475.000000	0.000000	190.000000	51.000000	13.000000	-41.000000
1.130000	93.530000	13.700000	475.000000	0.000000	190.000000	52.000000	24.000000	-36.000000
1.140000	93.830000	13.420000	464.000000	0.000000	191.000000	53.000000	30.000000	-28.000000
1.150000	94.140000	13.340000	389.000000	0.000000	190.000000	54.000000	31.000000	-8.000000
1.160000	94.470000	13.390000	247.000000	0.000000	190.000000	54.000000	33.000000	5.000000
1.170000	94.800000	13.630000	119.000000	0.000000	190.000000	55.000000	33.000000	24.000000
1.180000	94.800000	13.630000	0.000000	1.000000	189.000000	55.000000	0.000000	0.000000
1.190000	95.040000	14.300000	0.000000	0.000000	189.000000	55.000000	24.000000	67.000000
1.200000	94.970000	14.750000	0.000000	0.000000	189.000000	55.000000	-7.000000	45.000000
1.210000	94.800000	15.220000	0.000000	0.000000	188.000000	54.000000	-17.000000	47.000000
1.220000	94.800000	15.220000	51.000000	1.000000	188.000000	54.000000	0.000000	0.000000
1.230000	94.670000	15.850000	81.000000	0.000000	188.000000	53.000000	-13.000000	63.000000
1.240000	94.670000	15.790000	142.000000	0.000000	188.000000	52.000000	0.000000	-6.000000
1.250000	94.670000	15.600000	185.000000	0.000000	187.000000	51.000000	0.000000	-19.000000
1.260000	94.830000	15.210000	223.000000	0.000000	187.000000	51.000000	16.000000	-39.000000
1.270000	94.990000	14.770000	274.000000	0.000000	187.000000	51.000000	16.000000	-44.000000
1.280000	95.170000	14.340000	314.000000	0.000000	187.000000	51.000000	18.000000	-43.000000
1.290000	95.310000	13.930000	349.000000	0.000000	187.000000	51.000000	14.000000	-41.000000
1.300000	95.420000	13.650000	387.000000	0.000000	186.000000	52.000000	11.000000	-28.000000
1.310000	95.520000	13.460000	402.000000	0.000000	186.000000	52.000000	10.000000	-19.000000
1.320000	95.520000	13.340000	441.000000	0.000000	187.000000	53.000000	0.000000	-12.000000
1.330000	95.520000	13.340000	496.000000	0.000000	185.000000	54.000000	0.000000	0.000000
1.340000	95.520000	13.410000	512.000000	0.000000	185.000000	54.000000	0.000000	7.000000
1.350000	95.470000	13.540000	524.000000	0.000000	186.000000	55.000000	-5.000000	13.000000
1.360000	95.470000	13.920000	542.000000	0.000000	186.000000	55.000000	0.000000	38.000000
1.370000	95.410000	14.500000	546.000000	0.000000	186.000000	55.000000	-6.000000	58.000000
1.380000	95.410000	15.210000	535.000000	0.000000	185.000000	54.000000	0.000000	71.000000
1.390000	95.250000	16.060000	526.000000	0.000000	185.000000	54.000000	-16.000000	85.000000
1.400000	95.300000	16.860000	475.000000	0.000000	185.000000	54.000000	5.000000	80.000000
1.410000	95.450000	17.310000	396.000000	0.000000	185.000000	53.000000	15.000000	45.000000
1.420000	95.570000	17.560000	245.000000	0.000000	187.000000	53.000000	12.000000	25.000000
1.430000	95.630000	17.560000	55.000000	0.000000	187.000000	53.000000	6.000000	0.000000
1.440000	95.630000	17.560000	0.000000	1.000000	187.000000	53.000000	0.000000	0.000000
1.450000	95.820000	16.950000	0.000000	0.000000	187.000000	53.000000	19.000000	-61.000000
1.460000	95.900000	16.700000	0.000000	0.000000	186.000000	52.000000	8.000000	-25.000000
1.470000	96.010000	16.530000	0.000000	0.000000	186.000000	51.000000	11.000000	-17.000000
1.480000	96.190000	16.420000	0.000000	0.000000	186.000000	51.000000	18.000000	-11.000000
1.490000	96.410000	16.350000	0.000000	0.000000	186.000000	50.000000	22.000000	-7.000000
1.500000	96.560000	16.280000	0.000000	0.000000	186.000000	48.000000	15.000000	-7.000000
1.510000	96.660000	16.200000	0.000000	0.000000	185.000000	47.000000	10.000000	-8.000000
1.520000	96.660000	16.090000	0.000000	0.000000	186.000000	46.000000	0.000000	-11.000000
1.530000	96.660000	15.990000	0.000000	0.000000	186.000000	46.000000	0.000000	-10.000000
1.540000	96.580000	15.910000	0.000000	0.000000	186.000000	45.000000	-8.000000	-8.000000
1.550000	96.580000	15.910000	39.000000	1.000000	186.000000	46.000000	0.000000	0.000000
1.560000	96.580000	15.910000	48.000000	0.000000	186.000000	46.000000	0.000000	0.000000
1.570000	96.580000	15.910000	98.000000	0.000000	185.000000	46.000000	0.000000	0.000000
1.580000	96.560000	15.530000	151.000000	0.000000	185.000000	47.000000	-2.000000	-38.000000
1.590000	96.650000	15.290000	200.000000	0.000000	185.000000	47.000000	9.000000	-24.000000
1.600000	96.740000	14.920000	246.000000	0.000000	186.000000	48.000000	9.000000	-37.000000
1.610000	96.820000	14.470000	277.000000	0.000000	186.000000	49.000000	8.000000	-45.000000
1.620000	96.890000	14.100000	307.000000	0.000000	186.000000	50.000000	7.000000	-37.000000
1.630000	96.960000	13.720000	343.000000	0.000000	186.000000	51.000000	7.000000	-38.000000
1.640000	97.040000	13.460000	366.000000	0.000000	186.000000	52.000000	8.000000	-26.000000
1.650000	97.100000	13.290000	371.000000	0.000000	187.000000	53.000000	6.000000	-17.000000
1.660000	97.210000	13.210000	399.000000	0.000000	187.000000	53.000000	11.000000	-8.000000
1.670000	97.340000	13.210000	398.000000	0.000000	187.000000	54.000000	13.000000	0.000000
1.680000	97.520000	13.360000	396.000000	0.000000	187.000000	54.000000	18.000000	15.000000
1.690000	97.690000	13.600000	346.000000	0.000000	187.000000	54.000000	17.000000	24.000000
1.700000	97.900000	13.980000	325.000000	0.000000	187.000000	54.000000	21.000000	38.000000
1.710000	98.130000	14.460000	273.000000	0.000000	187.000000	54.000000	23.000000	48.000000
1.720000	98.210000	14.990000	253.000000	0.000000	187.000000	54.000000	8.000000	53.000000
1.730000	98.210000	15.510000	223.000000	0.000000	187.000000	53.000000	0.000000	52.000000
1.740000	98.210000	16.030000	237.000000	0.000000	186.000000	52.000000	0.000000	52.000000
1.750000	98.110000	16.260000	249.000000	0.000000	186.000000	51.000000	-10.000000	23.000000
1.760000	98.110000	16.260000	256.000000	0.000000	186.000000	50.000000	0.000000	0.000000
1.770000	98.050000	16.260000	269.000000	0.000000	186.000000	49.000000	-6.000000	0.000000
1.780000	97.990000	16.030000	312.000000	0.000000	186.000000	48.000000	-6.000000	-23.000000
1.790000	97.990000	15.670000	330.000000	0.000000	186.000000	48.000000	0.000000	-36.000000
1.800000	97.990000	15.190000	373.000000	0.000000	186.000000	48.000000	0.000000	-48.000000
1.810000	97.990000	14.740000	381.000000	0.000000	186.000000	48.000000	0.000000	-45.000000
1.820000	98.070000	14.300000	398.000000	0.000000	186.000000	49.000000	8.000000	-44.000000
1.830000	98.160000	13.930000	404.000000	0.000000	186.000000	50.000000	9.000000	-37.000000
1.840000	98.310000	13.600000	430.000000	0.000000	186.000000	50.000000	15.000000	-33.000000
1.850000	98.480000	13.420000	439.000000	0.000000	186.000000	51.000000	17.000000	-18.000000
1.860000	98.670000	13.420000	458.000000	0.000000	186.000000	52.000000	19.000000	0.000000
1.870000	98.860000	13.480000	456.000000	0.000000	187.000000	53.000000	19.000000	6.000000
1.880000	99.050000	13.660000	450.000000	0.000000	187.000000	53.000000	19.000000	18.000000
1.890000	99.230000	13.990000	423.000000	0.000000	187.000000	53.000000	18.000000	33.000000
1.900000	99.380000	14.430000	417.000000	0.000000	187.000000	53.000000	15.000000	44.000000
1.910000	99.460000	14.910000	377.000000	0.000000	187.000000	53.000000	8.000000	48.000000
1.920000	99.460000	15.460000	367.000000	0.000000	188.000000	53.000000	0.000000	55.000000
1.930000	99.400000	16.050000	376.000000	0.000000	188.000000	52.000000	-6.000000	59.000000
1.940000	99.400000	16.220000	374.000000	0.000000	187.000000	51.000000	0.000000	17.000000
1.950000	99.400000	16.220000	381.000000	0.000000	187.000000	50.000000	0.000000	0.000000
1.960000	99.400000	16.070000	422.000000	0.000000	187.000000	49.000000	0.000000	-15.000000
1.970000	99.400000	15.630000	428.000000	0.000000	187.000000	49.000000	0.000000	-44.000000
1.980000	99.400000	15.150000	455.000000	0.000000	187.000000	48.000000	0.000000	-48.000000
1.990000	99.400000	14.640000	461.000000	0.000000	187.000000	48.000000	0.000000	-51.000000
2.000000	99.450000	14.150000	466.000000	0.000000	187.000000	49.000000	5.000000	-49.000000
2.010000	99.520000	13.750000	469.000000	0.000000	187.000000	49.000000	7.000000	-40.000000
2.020000	99.580000	13.410000	443.000000	0.000000	187.000000	50.000000	6.000000	-34.000000
2.030000	99.630000	13.210000	364.000000	0.000000	187.000000	51.000000	5.000000	-20.000000
2.040000	99.730000	13.150000	215.000000	0.000000	188.000000	52.000000	10.000000	-6.000000
2.050000	99.730000	13.150000	0.000000	1.000000	189.000000	53.000000	0.000000	0.000000
2.060000	99.900000	13.270000	0.000000	0.000000	189.000000	53.000000	17.000000	12.000000
2.070000	99.980000	13.510000	0.000000	0.000000	188.000000	53.000000	8.000000	24.000000
2.080000	100.120000	13.850000	0.000000	0.000000	188.000000	53.000000	14.000000	34.000000
2.090000	100.290000	14.190000	0.000000	0.000000	188.000000	53.000000	17.000000	34.000000
2.100000	100.560000	14.450000	0.000000	0.000000	186.000000	52.000000	27.000000	26.000000
2.110000	100.910000	14.660000	0.000000	0.000000	186.000000	50.000000	35.000000	21.000000
2.120000	101.320000	14.660000	0.000000	0.000000	186.000000	49.000000	41.000000	0.000000
2.130000	101.710000	14.570000	0.000000	0.000000	186.000000	48.000000	39.000000	-9.000000
2.140000	102.060000	14.380000	0.000000	0.000000	185.000000	46.000000	35.000000	-19.000000
2.150000	102.280000	14.190000	0.000000	0.000000	185.000000	45.000000	22.000000	-19.000000
2.160000	102.420000	14.070000	0.000000	0.000000	185.000000	45.000000	14.000000	-12.000000
2.170000	102.420000	14.010000	0.000000	0.000000	185.000000	44.000000	0.000000	-6.000000
2.180000	102.360000	14.010000	0.000000	0.000000	185.000000	45.000000	-6.000000	0.000000
2.190000	102.180000	14.070000	0.000000	0.000000	186.000000	45.000000	-18.000000	6.000000
2.200000	101.930000	14.180000	0.000000	0.000000	186.000000	45.000000	-25.000000	11.000000
2.210000	101.730000	14.300000	0.000000	0.000000	186.000000	45.000000	-20.000000	12.000000
2.220000	101.550000	14.370000	0.000000	0.000000	186.000000	45.000000	-18.000000	7.000000
