t	x	y	pressure	penup	azimuth	inclination	v_x	v_y
0.000000	13.530000	48.580000	78.000000	1.000000	120.000000	65.000000	0.000000	0.000000
0.010000	13.470000	49.000000	131.000000	0.000000	120.000000	65.000000	-6.000000	42.000000
0.020000	13.470000	49.190000	225.000000	0.000000	120.000000	64.000000	0.000000	19.000000
0.030000	13.410000	49.390000	279.000000	0.000000	120.000000	64.000000	-6.000000	20.000000
0.040000	13.410000	49.530000	310.000000	0.000000	120.000000	64.000000	0.000000	14.000000
0.050000	13.490000	49.610000	333.000000	0.000000	120.000000	64.000000	8.000000	8.000000
0.060000	13.540000	49.610000	354.000000	0.000000	120.000000	64.000000	5.000000	0.000000
0.070000	13.540000	49.610000	381.000000	0.000000	122.000000	63.000000	0.000000	0.000000
0.080000	13.540000	49.470000	415.000000	0.000000	122.000000	63.000000	0.000000	-14.000000
0.090000	13.460000	48.820000	455.000000	0.000000	122.000000	63.000000	-8.000000	-65.000000
0.100000	13.410000	47.830000	475.000000	0.000000	120.000000	64.000000	-5.000000	-99.000000
0.110000	13.360000	46.840000	495.000000	0.000000	120.000000	64.000000	-5.000000	-99.000000
0.120000	13.310000	45.850000	492.000000	0.000000	120.000000	64.000000	-5.000000	-99.000000
0.130000	13.310000	45.030000	499.000000	0.000000	119.000000	64.000000	0.000000	-82.000000
0.140000	13.400000	44.340000	502.000000	0.000000	117.000000	65.000000	9.000000	-69.000000
0.150000	13.510000	43.730000	504.000000	0.000000	116.000000	66.000000	11.000000	-61.000000
0.160000	13.640000	43.280000	510.000000	0.000000	114.000000	66.000000	13.000000	-45.000000
0.170000	13.800000	42.950000	514.000000	0.000000	111.000000	67.000000	16.000000	-33.000000
0.180000	13.870000	42.840000	516.000000	0.000000	111.000000	67.000000	7.000000	-11.000000
0.190000	13.870000	42.840000	540.000000	0.000000	112.000000	67.000000	0.000000	0.000000
0.200000	13.870000	42.840000	569.000000	0.000000	112.000000	67.000000	0.000000	0.000000
0.210000	13.760000	43.000000	569.000000	0.000000	112.000000	67.000000	-11.000000	16.000000
0.220000	13.600000	43.440000	565.000000	0.000000	112.000000	67.000000	-16.000000	44.000000
0.230000	13.320000	44.080000	546.000000	0.000000	112.000000	67.000000	-28.000000	64.000000
0.240000	12.950000	44.640000	526.000000	0.000000	112.000000	67.000000	-37.000000	56.000000
0.250000	12.520000	45.190000	519.000000	0.000000	112.000000	67.000000	-43.000000	55.000000
0.260000	12.000000	45.720000	504.000000	0.000000	112.000000	67.000000	-52.000000	53.000000
0.270000	11.300000	46.170000	499.000000	0.000000	112.000000	67.000000	-70.000000	45.000000
0.280000	10.470000	46.570000	507.000000	0.000000	112.000000	67.000000	-83.000000	40.000000
0.290000	9.740000	46.840000	512.000000	0.000000	111.000000	67.000000	-73.000000	27.000000
0.300000	9.240000	47.020000	542.000000	0.000000	112.000000	67.000000	-50.000000	18.000000
0.310000	8.900000	47.110000	568.000000	0.000000	112.000000	67.000000	-34.000000	9.000000
0.320000	8.900000	47.160000	569.000000	0.000000	112.000000	67.000000	0.000000	5.000000
0.330000	9.300000	47.160000	613.000000	0.000000	116.000000	68.000000	40.000000	0.000000
0.340000	10.000000	47.160000	670.000000	0.000000	116.000000	68.000000	70.000000	0.000000
0.350000	11.430000	47.210000	696.000000	0.000000	116.000000	68.000000	143.000000	5.000000
0.360000	13.090000	47.210000	737.000000	0.000000	118.000000	68.000000	166.000000	0.000000
0.370000	14.890000	47.090000	757.000000	0.000000	118.000000	68.000000	180.000000	-12.000000
0.380000	17.350000	47.010000	779.000000	0.000000	118.000000	68.000000	246.000000	-8.000000
0.390000	20.380000	47.010000	784.000000	0.000000	120.000000	67.000000	303.000000	0.000000
0.400000	23.780000	47.010000	746.000000	0.000000	120.000000	67.000000	340.000000	0.000000
0.410000	27.910000	47.090000	690.000000	0.000000	124.000000	67.000000	413.000000	8.000000
0.420000	32.050000	47.210000	450.000000	0.000000	124.000000	67.000000	414.000000	12.000000
0.430000	32.050000	47.210000	0.000000	1.000000	126.000000	67.000000	0.000000	0.000000
0.440000	39.290000	47.210000	0.000000	0.000000	128.000000	68.000000	724.000000	0.000000
0.450000	40.880000	47.080000	0.000000	0.000000	130.000000	67.000000	159.000000	-13.000000
0.460000	41.240000	47.340000	0.000000	0.000000	133.000000	67.000000	36.000000	26.000000
0.470000	40.780000	47.590000	0.000000	0.000000	135.000000	67.000000	-46.000000	25.000000
0.480000	40.700000	47.960000	0.000000	0.000000	133.000000	66.000000	-8.000000	37.000000
0.490000	40.380000	48.420000	0.000000	0.000000	135.000000	65.000000	-32.000000	46.000000
0.500000	39.910000	48.610000	0.000000	0.000000	135.000000	64.000000	-47.000000	19.000000
0.510000	39.610000	48.610000	0.000000	0.000000	135.000000	62.000000	-30.000000	0.000000
0.520000	39.120000	48.520000	0.000000	0.000000	135.000000	58.000000	-49.000000	-9.000000
0.530000	38.510000	48.350000	0.000000	0.000000	134.000000	54.000000	-61.000000	-17.000000
0.540000	37.660000	48.120000	0.000000	0.000000	134.000000	49.000000	-85.000000	-23.000000
0.550000	36.600000	47.920000	0.000000	0.000000	135.000000	45.000000	-106.000000	-20.000000
0.560000	35.400000	47.770000	0.000000	0.000000	137.000000	43.000000	-120.000000	-15.000000
0.570000	34.260000	47.550000	0.000000	0.000000	141.000000	41.000000	-114.000000	-22.000000
0.580000	33.060000	47.360000	0.000000	0.000000	145.000000	39.000000	-120.000000	-19.000000
0.590000	31.820000	47.250000	0.000000	0.000000	149.000000	38.000000	-124.000000	-11.000000
0.600000	30.360000	47.190000	0.000000	0.000000	151.000000	37.000000	-146.000000	-6.000000
0.610000	28.810000	47.190000	0.000000	0.000000	150.000000	38.000000	-155.000000	0.000000
0.620000	27.210000	47.110000	0.000000	0.000000	149.000000	40.000000	-160.000000	-8.000000
0.630000	25.790000	47.030000	0.000000	0.000000	145.000000	41.000000	-142.000000	-8.000000
0.640000	24.720000	47.030000	0.000000	0.000000	142.000000	42.000000	-107.000000	0.000000
0.650000	23.870000	47.080000	0.000000	0.000000	139.000000	43.000000	-85.000000	5.000000
0.660000	23.210000	47.160000	0.000000	0.000000	136.000000	44.000000	-66.000000	8.000000
0.670000	22.610000	47.220000	0.000000	0.000000	136.000000	45.000000	-60.000000	6.000000
0.680000	21.860000	47.360000	0.000000	0.000000	135.000000	46.000000	-75.000000	14.000000
0.690000	21.000000	47.570000	0.000000	0.000000	136.000000	48.000000	-86.000000	21.000000
0.700000	20.540000	47.740000	0.000000	0.000000	136.000000	49.000000	-46.000000	17.000000
0.710000	20.090000	47.910000	0.000000	0.000000	138.000000	50.000000	-45.000000	17.000000
0.720000	19.940000	48.060000	0.000000	0.000000	138.000000	51.000000	-15.000000	15.000000
0.730000	19.990000	48.230000	0.000000	0.000000	136.000000	52.000000	5.000000	17.000000
0.740000	19.930000	48.350000	0.000000	0.000000	131.000000	54.000000	-6.000000	12.000000
0.750000	19.840000	48.450000	0.000000	0.000000	125.000000	54.000000	-9.000000	10.000000
0.760000	19.720000	48.450000	0.000000	0.000000	119.000000	54.000000	-12.000000	0.000000
0.770000	19.560000	48.530000	0.000000	0.000000	114.000000	55.000000	-16.000000	8.000000
0.780000	19.040000	48.580000	0.000000	0.000000	108.000000	56.000000	-52.000000	5.000000
0.790000	18.280000	48.580000	0.000000	0.000000	103.000000	55.000000	-76.000000	0.000000
0.800000	17.520000	48.580000	0.000000	0.000000	97.000000	56.000000	-76.000000	0.000000
0.810000	16.760000	48.710000	0.000000	0.000000	94.000000	56.000000	-76.000000	13.000000
0.820000	16.010000	48.840000	0.000000	0.000000	91.000000	56.000000	-75.000000	13.000000
0.830000	15.760000	48.900000	0.000000	0.000000	90.000000	58.000000	-25.000000	6.000000
0.840000	15.760000	48.970000	0.000000	0.000000	90.000000	60.000000	0.000000	7.000000
0.850000	15.920000	49.070000	0.000000	0.000000	90.000000	61.000000	16.000000	10.000000
0.860000	15.920000	49.200000	0.000000	0.000000	90.000000	63.000000	0.000000	13.000000
0.870000	15.920000	49.350000	0.000000	0.000000	92.000000	64.000000	0.000000	15.000000
0.880000	15.920000	49.510000	0.000000	0.000000	92.000000	66.000000	0.000000	16.000000
0.890000	15.830000	49.670000	0.000000	0.000000	95.000000	68.000000	-9.000000	16.000000
0.900000	15.830000	49.760000	0.000000	0.000000	98.000000	70.000000	0.000000	9.000000
0.910000	15.830000	49.830000	0.000000	0.000000	101.000000	71.000000	0.000000	7.000000
0.920000	15.830000	49.760000	0.000000	0.000000	105.000000	71.000000	0.000000	-7.000000
0.930000	15.730000	49.600000	0.000000	0.000000	105.000000	71.000000	-10.000000	-16.000000
0.940000	15.580000	49.420000	0.000000	0.000000	109.000000	72.000000	-15.000000	-18.000000
0.950000	15.430000	49.220000	0.000000	0.000000	113.000000	73.000000	-15.000000	-20.000000
0.960000	15.290000	49.120000	0.000000	0.000000	115.000000	74.000000	-14.000000	-10.000000
0.970000	15.360000	49.120000	0.000000	0.000000	116.000000	72.000000	7.000000	0.000000
0.980000	15.360000	49.020000	0.000000	0.000000	116.000000	72.000000	0.000000	-10.000000
0.990000	15.360000	48.930000	0.000000	0.000000	115.000000	71.000000	0.000000	-9.000000
1.000000	15.270000	48.830000	0.000000	0.000000	116.000000	70.000000	-9.000000	-10.000000
1.010000	15.170000	48.830000	0.000000	0.000000	116.000000	70.000000	-10.000000	0.000000
1.020000	15.070000	48.780000	0.000000	0.000000	115.000000	69.000000	-10.000000	-5.000000
1.030000	14.990000	48.780000	0.000000	0.000000	115.000000	69.000000	-8.000000	0.000000
1.040000	14.920000	48.780000	0.000000	0.000000	115.000000	69.000000	-7.000000	0.000000
1.050000	14.870000	48.780000	0.000000	0.000000	114.000000	68.000000	-5.000000	0.000000
1.060000	14.820000	48.830000	0.000000	0.000000	114.000000	68.000000	-5.000000	5.000000
1.070000	14.820000	48.830000	0.000000	0.000000	114.000000	68.000000	0.000000	0.000000
1.080000	14.750000	48.830000	0.000000	0.000000	114.000000	68.000000	-7.000000	0.000000
1.090000	14.660000	48.830000	0.000000	0.000000	116.000000	68.000000	-9.000000	0.000000
1.100000	14.530000	48.750000	0.000000	0.000000	116.000000	68.000000	-13.000000	-8.000000
1.110000	14.360000	48.670000	0.000000	0.000000	116.000000	68.000000	-17.000000	-8.000000
1.120000	14.180000	48.620000	0.000000	0.000000	116.000000	68.000000	-18.000000	-5.000000
1.130000	14.000000	48.570000	0.000000	0.000000	116.000000	68.000000	-18.000000	-5.000000
1.140000	13.930000	48.570000	0.000000	0.000000	115.000000	67.000000	-7.000000	0.000000
1.150000	13.860000	48.570000	0.000000	0.000000	115.000000	67.000000	-7.000000	0.000000
1.160000	13.790000	48.660000	0.000000	0.000000	115.000000	67.000000	-7.000000	9.000000
1.170000	13.790000	48.760000	0.000000	0.000000	115.000000	67.000000	0.000000	10.000000
1.180000	13.790000	48.900000	0.000000	0.000000	114.000000	66.000000	0.000000	14.000000
1.190000	13.790000	49.030000	0.000000	0.000000	114.000000	66.000000	0.000000	13.000000
1.200000	13.790000	49.160000	0.000000	0.000000	114.000000	66.000000	0.000000	13.000000
1.210000	13.790000	49.260000	0.000000	0.000000	114.000000	66.000000	0.000000	10.000000
1.220000	13.720000	49.350000	0.000000	0.000000	113.000000	65.000000	-7.000000	9.000000
1.230000	13.720000	49.480000	0.000000	0.000000	113.000000	65.000000	0.000000	13.000000
1.240000	13.780000	49.630000	0.000000	0.000000	115.000000	65.000000	6.000000	15.000000
1.250000	13.780000	49.790000	0.000000	0.000000	115.000000	65.000000	0.000000	16.000000
1.260000	13.850000	49.990000	0.000000	0.000000	115.000000	65.000000	7.000000	20.000000
1.270000	13.850000	50.220000	0.000000	0.000000	117.000000	65.000000	0.000000	23.000000
1.280000	13.850000	50.420000	0.000000	0.000000	117.000000	65.000000	0.000000	20.000000
1.290000	13.850000	50.630000	0.000000	0.000000	117.000000	65.000000	0.000000	21.000000
1.300000	13.850000	50.940000	0.000000	0.000000	119.000000	64.000000	0.000000	31.000000
1.310000	13.850000	51.250000	0.000000	0.000000	119.000000	64.000000	0.000000	31.000000
1.320000	13.850000	51.500000	0.000000	0.000000	119.000000	64.000000	0.000000	25.000000
1.330000	13.900000	51.730000	0.000000	0.000000	120.000000	64.000000	5.000000	23.000000
1.340000	13.900000	51.730000	15.000000	1.000000	120.000000	64.000000	0.000000	0.000000
1.350000	13.950000	52.120000	44.000000	0.000000	122.000000	63.000000	5.000000	39.000000
1.360000	14.000000	52.260000	63.000000	0.000000	122.000000	63.000000	5.000000	14.000000
1.370000	14.000000	52.380000	91.000000	0.000000	122.000000	63.000000	0.000000	12.000000
1.380000	14.080000	52.430000	105.000000	0.000000	124.000000	63.000000	8.000000	5.000000
1.390000	14.080000	52.430000	137.000000	0.000000	124.000000	63.000000	0.000000	0.000000
1.400000	14.080000	52.200000	141.000000	0.000000	124.000000	63.000000	0.000000	-23.000000
1.410000	14.000000	51.790000	172.000000	0.000000	124.000000	63.000000	-8.000000	-41.000000
1.420000	13.870000	50.610000	180.000000	0.000000	122.000000	63.000000	-13.000000	-118.000000
1.430000	13.710000	49.310000	131.000000	0.000000	122.000000	63.000000	-16.000000	-130.000000
1.440000	13.590000	47.940000	91.000000	0.000000	120.000000	64.000000	-12.000000	-137.000000
1.450000	13.490000	46.870000	12.000000	1.000000	119.000000	64.000000	0.000000	0.000000
1.460000	13.490000	46.870000	0.000000	0.000000	117.000000	65.000000	0.000000	0.000000
1.470000	13.440000	45.660000	0.000000	0.000000	113.000000	65.000000	-5.000000	-121.000000
1.480000	13.440000	45.450000	0.000000	0.000000	110.000000	66.000000	0.000000	-21.000000
1.490000	13.510000	45.450000	0.000000	0.000000	108.000000	66.000000	7.000000	0.000000
1.500000	13.650000	45.660000	0.000000	0.000000	106.000000	66.000000	14.000000	21.000000
1.510000	13.840000	46.000000	0.000000	0.000000	106.000000	66.000000	19.000000	34.000000
1.520000	14.050000	46.400000	0.000000	0.000000	106.000000	66.000000	21.000000	40.000000
1.530000	14.260000	46.830000	0.000000	0.000000	107.000000	67.000000	21.000000	43.000000
1.540000	14.480000	47.390000	0.000000	0.000000	107.000000	67.000000	22.000000	56.000000
1.550000	14.720000	47.910000	0.000000	0.000000	109.000000	67.000000	24.000000	52.000000
1.560000	14.940000	48.230000	0.000000	0.000000	110.000000	68.000000	22.000000	32.000000
1.570000	15.200000	48.440000	0.000000	0.000000	112.000000	67.000000	26.000000	21.000000
1.580000	15.440000	48.610000	0.000000	0.000000	112.000000	67.000000	24.000000	17.000000
1.590000	15.700000	48.780000	0.000000	0.000000	114.000000	68.000000	26.000000	17.000000
1.600000	15.900000	48.940000	0.000000	0.000000	116.000000	68.000000	20.000000	16.000000
1.610000	16.050000	49.130000	0.000000	0.000000	116.000000	68.000000	15.000000	19.000000
1.620000	16.130000	49.350000	0.000000	0.000000	115.000000	67.000000	8.000000	22.000000
1.630000	16.130000	49.530000	0.000000	0.000000	114.000000	66.000000	0.000000	18.000000
1.640000	16.130000	49.700000	0.000000	0.000000	113.000000	65.000000	0.000000	17.000000
1.650000	16.130000	49.890000	0.000000	0.000000	114.000000	64.000000	0.000000	19.000000
1.660000	16.130000	50.100000	0.000000	0.000000	113.000000	63.000000	0.000000	21.000000
1.670000	16.130000	50.280000	0.000000	0.000000	114.000000	62.000000	0.000000	18.000000
1.680000	16.130000	50.430000	0.000000	0.000000	114.000000	62.000000	0.000000	15.000000
1.690000	16.130000	50.550000	0.000000	0.000000	114.000000	61.000000	0.000000	12.000000
1.700000	16.130000	50.660000	0.000000	0.000000	114.000000	61.000000	0.000000	11.000000
1.710000	16.080000	50.770000	0.000000	0.000000	115.000000	62.000000	-5.000000	11.000000
1.720000	16.030000	50.890000	0.000000	0.000000	118.000000	62.000000	-5.000000	12.000000
1.730000	15.980000	50.990000	0.000000	0.000000	119.000000	63.000000	-5.000000	10.000000
1.740000	15.980000	51.080000	0.000000	0.000000	120.000000	64.000000	0.000000	9.000000
1.750000	15.920000	50.990000	0.000000	0.000000	122.000000	65.000000	-6.000000	-9.000000
1.760000	15.870000	51.070000	0.000000	0.000000	125.000000	65.000000	-5.000000	8.000000
1.770000	15.870000	51.070000	0.000000	0.000000	126.000000	66.000000	0.000000	0.000000
1.780000	15.790000	51.070000	0.000000	0.000000	126.000000	66.000000	-8.000000	0.000000
1.790000	15.790000	51.070000	0.000000	0.000000	126.000000	66.000000	0.000000	0.000000
1.800000	15.790000	51.070000	46.000000	1.000000	126.000000	66.000000	0.000000	0.000000
1.810000	15.790000	51.070000	89.000000	0.000000	126.000000	66.000000	0.000000	0.000000
1.820000	15.790000	51.070000	127.000000	0.000000	126.000000	66.000000	0.000000	0.000000
1.830000	15.790000	51.070000	156.000000	0.000000	126.000000	66.000000	0.000000	0.000000
1.840000	15.790000	51.070000	207.000000	0.000000	126.000000	66.000000	0.000000	0.000000
1.850000	15.690000	50.780000	232.000000	0.000000	126.000000	66.000000	-10.000000	-29.000000
1.860000	15.770000	50.720000	275.000000	0.000000	126.000000	66.000000	8.000000	-6.000000
1.870000	15.890000	50.720000	309.000000	0.000000	126.000000	66.000000	12.000000	0.000000
1.880000	16.050000	50.810000	333.000000	0.000000	126.000000	66.000000	16.000000	9.000000
1.890000	16.280000	50.980000	356.000000	0.000000	125.000000	65.000000	23.000000	17.000000
1.900000	16.570000	51.250000	369.000000	0.000000	125.000000	65.000000	29.000000	27.000000
1.910000	16.810000	51.580000	374.000000	0.000000	124.000000	64.000000	24.000000	33.000000
1.920000	17.000000	51.880000	382.000000	0.000000	124.000000	64.000000	19.000000	30.000000
1.930000	17.160000	52.220000	387.000000	0.000000	124.000000	64.000000	16.000000	34.000000
1.940000	17.270000	52.540000	398.000000	0.000000	122.000000	63.000000	11.000000	32.000000
1.950000	17.340000	52.840000	394.000000	0.000000	124.000000	63.000000	7.000000	30.000000
1.960000	17.340000	52.940000	415.000000	0.000000	124.000000	63.000000	0.000000	10.000000
1.970000	17.340000	53.010000	443.000000	0.000000	124.000000	63.000000	0.000000	7.000000
1.980000	17.230000	53.010000	453.000000	0.000000	126.000000	62.000000	-11.000000	0.000000
1.990000	17.150000	53.010000	460.000000	0.000000	126.000000	62.000000	-8.000000	0.000000
2.000000	16.970000	52.870000	465.000000	0.000000	126.000000	62.000000	-18.000000	-14.000000
2.010000	16.720000	52.670000	464.000000	0.000000	126.000000	62.000000	-25.000000	-20.000000
2.020000	16.490000	52.390000	468.000000	0.000000	126.000000	62.000000	-23.000000	-28.000000
2.030000	16.200000	52.050000	468.000000	0.000000	126.000000	62.000000	-29.000000	-34.000000
2.040000	15.880000	51.480000	478.000000	0.000000	126.000000	62.000000	-32.000000	-57.000000
2.050000	15.640000	50.770000	481.000000	0.000000	124.000000	63.000000	-24.000000	-71.000000
2.060000	15.450000	50.180000	480.000000	0.000000	125.000000	64.000000	-19.000000	-59.000000
2.070000	15.370000	49.750000	480.000000	0.000000	125.000000	64.000000	-8.000000	-43.000000
2.080000	15.460000	49.430000	483.000000	0.000000	125.000000	65.000000	9.000000	-32.000000
2.090000	15.650000	49.270000	483.000000	0.000000	123.000000	65.000000	19.000000	-16.000000
2.100000	15.790000	49.210000	483.000000	0.000000	123.000000	65.000000	14.000000	-6.000000
2.110000	15.930000	49.210000	483.000000	0.000000	122.000000	67.000000	14.000000	0.000000
2.120000	16.040000	49.270000	488.000000	0.000000	122.000000	67.000000	11.000000	6.000000
2.130000	16.130000	49.350000	481.000000	0.000000	120.000000	67.000000	9.000000	8.000000
2.140000	16.280000	49.450000	477.000000	0.000000	119.000000	66.000000	15.000000	10.000000
2.150000	16.530000	49.620000	465.000000	0.000000	119.000000	66.000000	25.000000	17.000000
2.160000	16.840000	49.770000	435.000000	0.000000	118.000000	65.000000	31.000000	15.000000
2.170000	16.960000	49.900000	404.000000	0.000000	120.000000	65.000000	12.000000	13.000000
2.180000	16.960000	49.900000	371.000000	0.000000	119.000000	64.000000	0.000000	0.000000
2.190000	16.910000	49.800000	339.000000	0.000000	119.000000	64.000000	-5.000000	-10.000000
2.200000	16.820000	49.650000	249.000000	0.000000	117.000000	63.000000	-9.000000	-15.000000
2.210000	16.750000	49.460000	29.000000	0.000000	119.000000	63.000000	-7.000000	-19.000000
2.220000	16.750000	49.460000	0.000000	1.000000	118.000000	62.000000	0.000000	0.000000
2.230000	16.680000	49.200000	0.000000	0.000000	116.000000	63.000000	-7.000000	-26.000000
