t	x	y	pressure	penup	azimuth	inclination	v_x	v_y
0.000000	49.410000	48.120000	253.000000	1.000000	152.000000	56.000000	0.000000	0.000000
0.010000	49.410000	48.120000	160.000000	0.000000	153.000000	56.000000	0.000000	0.000000
0.020000	49.410000	48.120000	149.000000	0.000000	154.000000	56.000000	0.000000	0.000000
0.030000	49.410000	48.120000	143.000000	0.000000	157.000000	57.000000	0.000000	0.000000
0.040000	49.010000	47.550000	185.000000	0.000000	158.000000	58.000000	-40.000000	-57.000000
0.050000	48.570000	46.610000	230.000000	0.000000	158.000000	58.000000	-44.000000	-94.000000
0.060000	48.260000	45.500000	247.000000	0.000000	159.000000	59.000000	-31.000000	-111.000000
0.070000	48.320000	44.170000	267.000000	0.000000	158.000000	60.000000	6.000000	-133.000000
0.080000	48.630000	42.810000	280.000000	0.000000	158.000000	60.000000	31.000000	-136.000000
0.090000	49.100000	41.760000	302.000000	0.000000	157.000000	61.000000	47.000000	-105.000000
0.100000	49.560000	40.920000	324.000000	0.000000	157.000000	61.000000	46.000000	-84.000000
0.110000	50.000000	40.420000	344.000000	0.000000	156.000000	62.000000	44.000000	-50.000000
0.120000	50.420000	40.130000	349.000000	0.000000	156.000000	62.000000	42.000000	-29.000000
0.130000	50.630000	39.990000	353.000000	0.000000	155.000000	62.000000	21.000000	-14.000000
0.140000	50.710000	40.040000	344.000000	0.000000	154.000000	63.000000	8.000000	5.000000
0.150000	50.710000	40.360000	285.000000	0.000000	154.000000	63.000000	0.000000	32.000000
0.160000	50.550000	40.850000	212.000000	0.000000	154.000000	63.000000	-16.000000	49.000000
0.170000	50.240000	41.650000	173.000000	0.000000	154.000000	63.000000	-31.000000	80.000000
0.180000	49.660000	42.480000	187.000000	0.000000	154.000000	63.000000	-58.000000	83.000000
0.190000	48.770000	43.330000	214.000000	0.000000	154.000000	63.000000	-89.000000	85.000000
0.200000	47.680000	43.800000	235.000000	0.000000	155.000000	62.000000	-109.000000	47.000000
0.210000	46.330000	44.060000	223.000000	0.000000	153.000000	61.000000	-135.000000	26.000000
0.220000	44.950000	44.170000	273.000000	0.000000	153.000000	61.000000	-138.000000	11.000000
0.230000	43.540000	44.170000	297.000000	0.000000	151.000000	61.000000	-141.000000	0.000000
0.240000	42.750000	44.170000	302.000000	0.000000	150.000000	60.000000	-79.000000	0.000000
0.250000	42.570000	44.170000	296.000000	0.000000	148.000000	60.000000	-18.000000	0.000000
0.260000	42.790000	44.100000	302.000000	0.000000	146.000000	60.000000	22.000000	-7.000000
0.270000	43.430000	44.100000	304.000000	0.000000	146.000000	60.000000	64.000000	0.000000
0.280000	44.480000	44.020000	334.000000	0.000000	145.000000	59.000000	105.000000	-8.000000
0.290000	45.790000	44.020000	391.000000	0.000000	146.000000	60.000000	131.000000	0.000000
0.300000	47.670000	44.020000	425.000000	0.000000	146.000000	60.000000	188.000000	0.000000
0.310000	49.750000	44.070000	441.000000	0.000000	148.000000	60.000000	208.000000	5.000000
0.320000	51.970000	44.160000	474.000000	0.000000	150.000000	60.000000	222.000000	9.000000
0.330000	54.510000	44.250000	464.000000	0.000000	152.000000	60.000000	254.000000	9.000000
0.340000	57.070000	44.410000	475.000000	0.000000	154.000000	60.000000	256.000000	16.000000
0.350000	59.650000	44.610000	499.000000	0.000000	157.000000	61.000000	258.000000	20.000000
0.360000	62.150000	44.840000	499.000000	0.000000	159.000000	61.000000	250.000000	23.000000
0.370000	64.060000	45.060000	495.000000	0.000000	161.000000	62.000000	191.000000	22.000000
0.380000	65.620000	45.140000	471.000000	0.000000	163.000000	62.000000	156.000000	8.000000
0.390000	66.630000	45.140000	389.000000	0.000000	163.000000	62.000000	101.000000	0.000000
0.400000	67.080000	45.140000	223.000000	0.000000	165.000000	62.000000	45.000000	0.000000
0.410000	67.150000	45.230000	119.000000	0.000000	165.000000	62.000000	7.000000	9.000000
0.420000	67.150000	45.230000	0.000000	1.000000	165.000000	62.000000	0.000000	0.000000
0.430000	66.000000	45.410000	0.000000	0.000000	165.000000	61.000000	-115.000000	18.000000
0.440000	65.050000	45.530000	0.000000	0.000000	165.000000	61.000000	-95.000000	12.000000
0.450000	63.620000	45.720000	0.000000	0.000000	165.000000	61.000000	-143.000000	19.000000
0.460000	61.790000	45.970000	0.000000	0.000000	165.000000	61.000000	-183.000000	25.000000
0.470000	59.700000	45.970000	0.000000	0.000000	163.000000	61.000000	-209.000000	0.000000
0.480000	57.370000	46.180000	0.000000	0.000000	163.000000	61.000000	-233.000000	21.000000
0.490000	55.070000	46.460000	0.000000	0.000000	162.000000	60.000000	-230.000000	28.000000
0.500000	53.110000	46.650000	0.000000	0.000000	161.000000	60.000000	-196.000000	19.000000
0.510000	51.370000	46.800000	0.000000	0.000000	160.000000	58.000000	-174.000000	15.000000
0.520000	50.240000	46.900000	0.000000	0.000000	159.000000	57.000000	-113.000000	10.000000
0.530000	49.590000	46.950000	0.000000	0.000000	157.000000	57.000000	-65.000000	5.000000
0.540000	49.260000	46.950000	0.000000	0.000000	156.000000	57.000000	-33.000000	0.000000
0.550000	49.160000	46.890000	0.000000	0.000000	154.000000	56.000000	-10.000000	-6.000000
0.560000	49.100000	46.730000	0.000000	0.000000	154.000000	56.000000	-6.000000	-16.000000
0.570000	49.100000	46.730000	158.000000	1.000000	154.000000	57.000000	0.000000	0.000000
0.580000	49.100000	46.000000	170.000000	0.000000	153.000000	58.000000	0.000000	-73.000000
0.590000	49.100000	45.890000	173.000000	0.000000	153.000000	59.000000	0.000000	-11.000000
0.600000	49.170000	45.760000	213.000000	0.000000	154.000000	60.000000	7.000000	-13.000000
0.610000	49.250000	45.590000	273.000000	0.000000	153.000000	61.000000	8.000000	-17.000000
0.620000	49.380000	45.590000	361.000000	0.000000	155.000000	62.000000	13.000000	0.000000
0.630000	49.550000	45.690000	418.000000	0.000000	154.000000	63.000000	17.000000	10.000000
0.640000	49.790000	45.890000	446.000000	0.000000	154.000000	63.000000	24.000000	20.000000
0.650000	50.130000	46.280000	460.000000	0.000000	154.000000	63.000000	34.000000	39.000000
0.660000	50.500000	46.800000	466.000000	0.000000	154.000000	63.000000	37.000000	52.000000
0.670000	50.850000	47.320000	468.000000	0.000000	154.000000	63.000000	35.000000	52.000000
0.680000	51.080000	48.040000	439.000000	0.000000	154.000000	63.000000	23.000000	72.000000
0.690000	51.230000	48.900000	410.000000	0.000000	154.000000	63.000000	15.000000	86.000000
0.700000	51.310000	49.800000	396.000000	0.000000	155.000000	62.000000	8.000000	90.000000
0.710000	51.310000	50.700000	386.000000	0.000000	156.000000	61.000000	0.000000	90.000000
0.720000	51.200000	51.210000	394.000000	0.000000	157.000000	60.000000	-11.000000	51.000000
0.730000	50.980000	51.450000	389.000000	0.000000	157.000000	59.000000	-22.000000	24.000000
0.740000	50.760000	51.280000	393.000000	0.000000	158.000000	58.000000	-22.000000	-17.000000
0.750000	50.550000	50.700000	396.000000	0.000000	159.000000	57.000000	-21.000000	-58.000000
0.760000	50.190000	49.850000	399.000000	0.000000	159.000000	57.000000	-36.000000	-85.000000
0.770000	49.740000	48.640000	391.000000	0.000000	159.000000	57.000000	-45.000000	-121.000000
0.780000	49.590000	47.390000	392.000000	0.000000	159.000000	57.000000	-15.000000	-125.000000
0.790000	49.590000	46.490000	396.000000	0.000000	158.000000	58.000000	0.000000	-90.000000
0.800000	49.740000	45.840000	399.000000	0.000000	157.000000	59.000000	15.000000	-65.000000
0.810000	49.930000	45.470000	423.000000	0.000000	155.000000	60.000000	19.000000	-37.000000
0.820000	50.130000	45.320000	430.000000	0.000000	154.000000	60.000000	20.000000	-15.000000
0.830000	50.360000	45.320000	433.000000	0.000000	153.000000	61.000000	23.000000	0.000000
0.840000	50.660000	45.580000	435.000000	0.000000	152.000000	62.000000	30.000000	26.000000
0.850000	51.080000	45.990000	422.000000	0.000000	152.000000	62.000000	42.000000	41.000000
0.860000	51.440000	46.500000	412.000000	0.000000	151.000000	63.000000	36.000000	51.000000
0.870000	51.760000	47.110000	363.000000	0.000000	151.000000	63.000000	32.000000	61.000000
0.880000	51.980000	47.690000	354.000000	0.000000	150.000000	62.000000	22.000000	58.000000
0.890000	52.040000	48.250000	359.000000	0.000000	150.000000	62.000000	6.000000	56.000000
0.900000	52.040000	48.250000	361.000000	0.000000	151.000000	61.000000	0.000000	0.000000
0.910000	51.740000	47.730000	381.000000	0.000000	151.000000	61.000000	-30.000000	-52.000000
0.920000	51.350000	46.940000	418.000000	0.000000	151.000000	61.000000	-39.000000	-79.000000
0.930000	50.880000	45.950000	441.000000	0.000000	152.000000	60.000000	-47.000000	-99.000000
0.940000	50.450000	44.730000	450.000000	0.000000	152.000000	60.000000	-43.000000	-122.000000
0.950000	49.980000	43.360000	461.000000	0.000000	151.000000	61.000000	-47.000000	-137.000000
0.960000	49.570000	41.720000	458.000000	0.000000	151.000000	61.000000	-41.000000	-164.000000
0.970000	49.200000	40.360000	461.000000	0.000000	150.000000	62.000000	-37.000000	-136.000000
0.980000	49.200000	39.200000	460.000000	0.000000	150.000000	62.000000	0.000000	-116.000000
0.990000	49.310000	38.760000	418.000000	0.000000	149.000000	63.000000	11.000000	-44.000000
1.000000	49.510000	38.660000	343.000000	0.000000	148.000000	63.000000	20.000000	-10.000000
1.010000	49.690000	38.800000	158.000000	0.000000	148.000000	63.000000	18.000000	14.000000
1.020000	49.690000	38.800000	0.000000	1.000000	146.000000	64.000000	0.000000	0.000000
1.030000	50.160000	40.040000	0.000000	0.000000	146.000000	64.000000	47.000000	124.000000
1.040000	50.240000	41.070000	0.000000	0.000000	146.000000	64.000000	8.000000	103.000000
1.050000	50.240000	42.150000	0.000000	0.000000	146.000000	64.000000	0.000000	108.000000
1.060000	50.240000	43.430000	0.000000	0.000000	145.000000	64.000000	0.000000	128.000000
1.070000	50.240000	44.850000	0.000000	0.000000	146.000000	63.000000	0.000000	142.000000
1.080000	50.430000	45.480000	0.000000	0.000000	147.000000	62.000000	19.000000	63.000000
1.090000	50.680000	45.570000	0.000000	0.000000	147.000000	61.000000	25.000000	9.000000
1.100000	50.680000	45.570000	282.000000	1.000000	147.000000	61.000000	0.000000	0.000000
1.110000	51.130000	44.610000	255.000000	0.000000	147.000000	61.000000	45.000000	-96.000000
1.120000	51.230000	44.530000	249.000000	0.000000	146.000000	60.000000	10.000000	-8.000000
1.130000	51.230000	44.850000	285.000000	0.000000	148.000000	60.000000	0.000000	32.000000
1.140000	51.620000	44.740000	314.000000	0.000000	147.000000	61.000000	39.000000	-11.000000
1.150000	51.980000	44.850000	339.000000	0.000000	147.000000	61.000000	36.000000	11.000000
1.160000	52.200000	45.100000	346.000000	0.000000	148.000000	61.000000	22.000000	25.000000
1.170000	52.330000	45.450000	343.000000	0.000000	147.000000	62.000000	13.000000	35.000000
1.180000	52.600000	45.910000	335.000000	0.000000	147.000000	62.000000	27.000000	46.000000
1.190000	52.820000	46.440000	310.000000	0.000000	147.000000	62.000000	22.000000	53.000000
1.200000	53.000000	47.050000	282.000000	0.000000	147.000000	62.000000	18.000000	61.000000
1.210000	53.090000	47.800000	254.000000	0.000000	148.000000	61.000000	9.000000	75.000000
1.220000	53.180000	48.640000	259.000000	0.000000	148.000000	61.000000	9.000000	84.000000
1.230000	53.120000	49.240000	277.000000	0.000000	150.000000	60.000000	-6.000000	60.000000
1.240000	52.970000	49.290000	282.000000	0.000000	151.000000	60.000000	-15.000000	5.000000
1.250000	52.770000	48.980000	276.000000	0.000000	151.000000	60.000000	-20.000000	-31.000000
1.260000	52.450000	48.300000	292.000000	0.000000	152.000000	59.000000	-32.000000	-68.000000
1.270000	52.040000	47.520000	301.000000	0.000000	152.000000	59.000000	-41.000000	-78.000000
1.280000	51.720000	46.680000	312.000000	0.000000	152.000000	59.000000	-32.000000	-84.000000
1.290000	51.590000	45.950000	317.000000	0.000000	150.000000	58.000000	-13.000000	-73.000000
1.300000	51.590000	45.430000	307.000000	0.000000	149.000000	59.000000	0.000000	-52.000000
1.310000	51.730000	45.060000	324.000000	0.000000	148.000000	60.000000	14.000000	-37.000000
1.320000	51.900000	44.850000	349.000000	0.000000	148.000000	60.000000	17.000000	-21.000000
1.330000	52.110000	44.760000	371.000000	0.000000	147.000000	61.000000	21.000000	-9.000000
1.340000	52.320000	44.760000	387.000000	0.000000	147.000000	61.000000	21.000000	0.000000
1.350000	52.510000	44.920000	398.000000	0.000000	146.000000	62.000000	19.000000	16.000000
1.360000	52.840000	45.290000	391.000000	0.000000	146.000000	62.000000	33.000000	37.000000
1.370000	53.250000	45.790000	396.000000	0.000000	146.000000	62.000000	41.000000	50.000000
1.380000	53.510000	46.320000	362.000000	0.000000	146.000000	62.000000	26.000000	53.000000
1.390000	53.670000	46.890000	341.000000	0.000000	146.000000	62.000000	16.000000	57.000000
1.400000	53.770000	47.490000	345.000000	0.000000	147.000000	61.000000	10.000000	60.000000
1.410000	53.870000	48.130000	325.000000	0.000000	147.000000	61.000000	10.000000	64.000000
1.420000	53.870000	48.740000	332.000000	0.000000	148.000000	60.000000	0.000000	61.000000
1.430000	53.870000	48.920000	329.000000	0.000000	148.000000	60.000000	0.000000	18.000000
1.440000	53.790000	48.830000	332.000000	0.000000	149.000000	59.000000	-8.000000	-9.000000
1.450000	53.720000	48.570000	337.000000	0.000000	149.000000	59.000000	-7.000000	-26.000000
1.460000	53.560000	47.950000	333.000000	0.000000	150.000000	58.000000	-16.000000	-62.000000
1.470000	53.350000	47.100000	343.000000	0.000000	150.000000	58.000000	-21.000000	-85.000000
1.480000	53.270000	46.300000	351.000000	0.000000	149.000000	59.000000	-8.000000	-80.000000
1.490000	53.270000	45.680000	353.000000	0.000000	149.000000	59.000000	0.000000	-62.000000
1.500000	53.270000	45.170000	369.000000	0.000000	149.000000	59.000000	0.000000	-51.000000
1.510000	53.410000	44.880000	364.000000	0.000000	148.000000	60.000000	14.000000	-29.000000
1.520000	53.560000	44.780000	391.000000	0.000000	147.000000	61.000000	15.000000	-10.000000
1.530000	53.710000	44.780000	397.000000	0.000000	147.000000	61.000000	15.000000	0.000000
1.540000	53.870000	44.930000	397.000000	0.000000	146.000000	62.000000	16.000000	15.000000
1.550000	54.030000	45.270000	402.000000	0.000000	146.000000	62.000000	16.000000	34.000000
1.560000	54.280000	45.770000	394.000000	0.000000	146.000000	62.000000	25.000000	50.000000
1.570000	54.520000	46.370000	369.000000	0.000000	146.000000	62.000000	24.000000	60.000000
1.580000	54.730000	47.090000	334.000000	0.000000	147.000000	61.000000	21.000000	72.000000
1.590000	54.910000	47.900000	292.000000	0.000000	147.000000	61.000000	18.000000	81.000000
1.600000	55.050000	48.690000	281.000000	0.000000	147.000000	61.000000	14.000000	79.000000
1.610000	55.050000	49.000000	277.000000	0.000000	148.000000	60.000000	0.000000	31.000000
1.620000	54.960000	49.000000	284.000000	0.000000	151.000000	60.000000	-9.000000	0.000000
1.630000	54.850000	48.510000	314.000000	0.000000	151.000000	60.000000	-11.000000	-49.000000
1.640000	54.630000	47.720000	315.000000	0.000000	151.000000	60.000000	-22.000000	-79.000000
1.650000	54.450000	46.720000	336.000000	0.000000	152.000000	59.000000	-18.000000	-100.000000
1.660000	54.290000	45.980000	338.000000	0.000000	152.000000	59.000000	-16.000000	-74.000000
1.670000	54.290000	45.400000	333.000000	0.000000	151.000000	60.000000	0.000000	-58.000000
1.680000	54.360000	44.930000	343.000000	0.000000	151.000000	60.000000	7.000000	-47.000000
1.690000	54.450000	44.690000	351.000000	0.000000	150.000000	60.000000	9.000000	-24.000000
1.700000	54.560000	44.690000	386.000000	0.000000	150.000000	60.000000	11.000000	0.000000
1.710000	54.680000	44.750000	379.000000	0.000000	148.000000	61.000000	12.000000	6.000000
1.720000	54.910000	45.080000	369.000000	0.000000	148.000000	61.000000	23.000000	33.000000
1.730000	55.220000	45.560000	373.000000	0.000000	148.000000	61.000000	31.000000	48.000000
1.740000	55.500000	46.150000	339.000000	0.000000	148.000000	61.000000	28.000000	59.000000
1.750000	55.720000	46.870000	319.000000	0.000000	148.000000	61.000000	22.000000	72.000000
1.760000	55.910000	47.690000	274.000000	0.000000	148.000000	61.000000	19.000000	82.000000
1.770000	56.160000	48.570000	289.000000	0.000000	150.000000	62.000000	25.000000	88.000000
1.780000	56.220000	49.300000	307.000000	0.000000	151.000000	61.000000	6.000000	73.000000
1.790000	56.160000	49.400000	320.000000	0.000000	152.000000	60.000000	-6.000000	10.000000
1.800000	56.050000	49.070000	344.000000	0.000000	152.000000	60.000000	-11.000000	-33.000000
1.810000	55.900000	48.350000	361.000000	0.000000	153.000000	59.000000	-15.000000	-72.000000
1.820000	55.710000	47.490000	389.000000	0.000000	153.000000	59.000000	-19.000000	-86.000000
1.830000	55.610000	46.550000	389.000000	0.000000	153.000000	59.000000	-10.000000	-94.000000
1.840000	55.560000	45.930000	387.000000	0.000000	153.000000	59.000000	-5.000000	-62.000000
1.850000	55.610000	45.440000	372.000000	0.000000	153.000000	59.000000	5.000000	-49.000000
1.860000	55.730000	45.040000	330.000000	0.000000	152.000000	60.000000	12.000000	-40.000000
1.870000	55.920000	44.840000	254.000000	0.000000	151.000000	61.000000	19.000000	-20.000000
1.880000	56.140000	44.840000	155.000000	0.000000	151.000000	61.000000	22.000000	0.000000
1.890000	56.410000	44.840000	46.000000	0.000000	150.000000	62.000000	27.000000	0.000000
1.900000	56.410000	44.840000	0.000000	1.000000	150.000000	62.000000	0.000000	0.000000
1.910000	57.030000	45.590000	0.000000	0.000000	152.000000	62.000000	62.000000	75.000000
1.920000	57.360000	46.150000	0.000000	0.000000	152.000000	62.000000	33.000000	56.000000
1.930000	57.610000	46.880000	0.000000	0.000000	152.000000	62.000000	25.000000	73.000000
1.940000	57.830000	47.700000	0.000000	0.000000	154.000000	63.000000	22.000000	82.000000
1.950000	57.830000	47.700000	96.000000	1.000000	155.000000	62.000000	0.000000	0.000000
1.960000	58.010000	49.080000	155.000000	0.000000	155.000000	62.000000	18.000000	138.000000
1.970000	57.770000	49.240000	223.000000	0.000000	156.000000	61.000000	-24.000000	16.000000
1.980000	57.460000	49.170000	265.000000	0.000000	156.000000	61.000000	-31.000000	-7.000000
1.990000	57.150000	48.900000	282.000000	0.000000	157.000000	60.000000	-31.000000	-27.000000
2.000000	56.780000	48.330000	329.000000	0.000000	157.000000	60.000000	-37.000000	-57.000000
2.010000	56.370000	47.570000	349.000000	0.000000	157.000000	59.000000	-41.000000	-76.000000
2.020000	56.030000	46.710000	361.000000	0.000000	157.000000	60.000000	-34.000000	-86.000000
2.030000	55.960000	45.970000	364.000000	0.000000	155.000000	60.000000	-7.000000	-74.000000
2.040000	56.080000	45.320000	369.000000	0.000000	155.000000	60.000000	12.000000	-65.000000
2.050000	56.360000	44.880000	366.000000	0.000000	154.000000	60.000000	28.000000	-44.000000
2.060000	56.630000	44.670000	379.000000	0.000000	151.000000	61.000000	27.000000	-21.000000
2.070000	56.890000	44.610000	389.000000	0.000000	151.000000	61.000000	26.000000	-6.000000
2.080000	57.180000	44.750000	377.000000	0.000000	150.000000	62.000000	29.000000	14.000000
2.090000	57.510000	45.150000	361.000000	0.000000	150.000000	62.000000	33.000000	40.000000
2.100000	57.750000	45.730000	369.000000	0.000000	152.000000	62.000000	24.000000	58.000000
2.110000	57.920000	46.320000	333.000000	0.000000	152.000000	62.000000	17.000000	59.000000
2.120000	58.030000	47.050000	319.000000	0.000000	152.000000	62.000000	11.000000	73.000000
2.130000	58.080000	47.870000	325.000000	0.000000	154.000000	63.000000	5.000000	82.000000
2.140000	58.080000	48.690000	336.000000	0.000000	155.000000	62.000000	0.000000	82.000000
2.150000	57.960000	49.040000	361.000000	0.000000	156.000000	61.000000	-12.000000	35.000000
2.160000	57.880000	49.090000	363.000000	0.000000	157.000000	61.000000	-8.000000	5.000000
2.170000	57.880000	48.840000	366.000000	0.000000	158.000000	60.000000	0.000000	-25.000000
2.180000	57.740000	48.150000	379.000000	0.000000	158.000000	60.000000	-14.000000	-69.000000
2.190000	57.640000	47.170000	384.000000	0.000000	158.000000	60.000000	-10.000000	-98.000000
2.200000	57.560000	46.520000	381.000000	0.000000	157.000000	60.000000	-8.000000	-65.000000
