t	x	y	pressure	penup	azimuth	inclination	v_x	v_y
0.000000	89.880000	81.570000	78.000000	1.000000	161.000000	59.000000	0.000000	0.000000
0.010000	90.290000	82.650000	225.000000	0.000000	161.000000	59.000000	41.000000	108.000000
0.020000	90.200000	82.880000	206.000000	0.000000	161.000000	59.000000	-9.000000	23.000000
0.030000	90.100000	82.880000	216.000000	0.000000	161.000000	59.000000	-10.000000	0.000000
0.040000	90.000000	82.610000	255.000000	0.000000	163.000000	59.000000	-10.000000	-27.000000
0.050000	89.840000	82.030000	292.000000	0.000000	163.000000	59.000000	-16.000000	-58.000000
0.060000	89.650000	81.220000	329.000000	0.000000	163.000000	59.000000	-19.000000	-81.000000
0.070000	89.450000	80.030000	344.000000	0.000000	163.000000	59.000000	-20.000000	-119.000000
0.080000	89.320000	78.790000	369.000000	0.000000	164.000000	58.000000	-13.000000	-124.000000
0.090000	89.480000	77.510000	407.000000	0.000000	165.000000	59.000000	16.000000	-128.000000
0.100000	89.840000	76.730000	425.000000	0.000000	165.000000	59.000000	36.000000	-78.000000
0.110000	90.130000	76.180000	439.000000	0.000000	165.000000	59.000000	29.000000	-55.000000
0.120000	90.430000	75.780000	458.000000	0.000000	166.000000	59.000000	30.000000	-40.000000
0.130000	90.750000	75.610000	461.000000	0.000000	168.000000	59.000000	32.000000	-17.000000
0.140000	90.900000	75.610000	466.000000	0.000000	168.000000	59.000000	15.000000	0.000000
0.150000	90.900000	75.710000	423.000000	0.000000	169.000000	61.000000	0.000000	10.000000
0.160000	90.900000	76.020000	282.000000	0.000000	171.000000	61.000000	0.000000	31.000000
0.170000	90.480000	76.540000	180.000000	0.000000	171.000000	61.000000	-42.000000	52.000000
0.180000	89.880000	77.210000	173.000000	0.000000	171.000000	61.000000	-60.000000	67.000000
0.190000	88.820000	77.720000	244.000000	0.000000	171.000000	61.000000	-106.000000	51.000000
0.200000	87.540000	78.010000	279.000000	0.000000	169.000000	61.000000	-128.000000	29.000000
0.210000	86.120000	78.150000	314.000000	0.000000	169.000000	61.000000	-142.000000	14.000000
0.220000	84.650000	78.200000	362.000000	0.000000	168.000000	60.000000	-147.000000	5.000000
0.230000	83.720000	78.140000	381.000000	0.000000	166.000000	60.000000	-93.000000	-6.000000
0.240000	83.140000	78.000000	389.000000	0.000000	166.000000	60.000000	-58.000000	-14.000000
0.250000	83.390000	77.910000	410.000000	0.000000	165.000000	59.000000	25.000000	-9.000000
0.260000	84.430000	77.770000	415.000000	0.000000	165.000000	59.000000	104.000000	-14.000000
0.270000	86.000000	77.680000	445.000000	0.000000	165.000000	59.000000	157.000000	-9.000000
0.280000	88.400000	77.680000	512.000000	0.000000	165.000000	59.000000	240.000000	0.000000
0.290000	91.250000	77.740000	553.000000	0.000000	166.000000	59.000000	285.000000	6.000000
0.300000	94.390000	77.890000	589.000000	0.000000	168.000000	59.000000	314.000000	15.000000
0.310000	97.450000	78.080000	606.000000	0.000000	169.000000	61.000000	306.000000	19.000000
0.320000	100.170000	78.080000	627.000000	0.000000	171.000000	61.000000	272.000000	0.000000
0.330000	102.670000	78.190000	622.000000	0.000000	171.000000	61.000000	250.000000	11.000000
0.340000	104.470000	78.300000	613.000000	0.000000	173.000000	61.000000	180.000000	11.000000
0.350000	105.560000	78.420000	574.000000	0.000000	173.000000	61.000000	109.000000	12.000000
0.360000	106.180000	78.550000	359.000000	0.000000	173.000000	61.000000	62.000000	13.000000
0.370000	106.180000	78.550000	0.000000	1.000000	171.000000	61.000000	0.000000	0.000000
0.380000	105.330000	78.840000	0.000000	0.000000	171.000000	61.000000	-85.000000	29.000000
0.390000	104.090000	79.210000	0.000000	0.000000	169.000000	62.000000	-124.000000	37.000000
0.400000	102.120000	79.730000	0.000000	0.000000	169.000000	62.000000	-197.000000	52.000000
0.410000	99.990000	80.020000	0.000000	0.000000	169.000000	62.000000	-213.000000	29.000000
0.420000	97.740000	80.260000	0.000000	0.000000	166.000000	62.000000	-225.000000	24.000000
0.430000	95.900000	80.480000	0.000000	0.000000	166.000000	62.000000	-184.000000	22.000000
0.440000	94.340000	80.630000	0.000000	0.000000	166.000000	62.000000	-156.000000	15.000000
0.450000	92.960000	80.760000	0.000000	0.000000	164.000000	63.000000	-138.000000	13.000000
0.460000	92.030000	80.830000	0.000000	0.000000	162.000000	63.000000	-93.000000	7.000000
0.470000	91.310000	80.830000	0.000000	0.000000	159.000000	64.000000	-72.000000	0.000000
0.480000	90.730000	80.830000	0.000000	0.000000	157.000000	63.000000	-58.000000	0.000000
0.490000	90.160000	80.830000	0.000000	0.000000	155.000000	63.000000	-57.000000	0.000000
0.500000	89.600000	80.710000	0.000000	0.000000	154.000000	63.000000	-56.000000	-12.000000
0.510000	89.450000	80.620000	0.000000	0.000000	155.000000	62.000000	-15.000000	-9.000000
0.520000	89.560000	80.500000	0.000000	0.000000	155.000000	62.000000	11.000000	-12.000000
0.530000	89.370000	80.270000	0.000000	0.000000	155.000000	62.000000	-19.000000	-23.000000
0.540000	89.370000	80.270000	265.000000	1.000000	157.000000	61.000000	0.000000	0.000000
0.550000	89.060000	79.760000	284.000000	0.000000	157.000000	61.000000	-31.000000	-51.000000
0.560000	88.960000	79.630000	339.000000	0.000000	159.000000	61.000000	-10.000000	-13.000000
0.570000	89.210000	79.540000	448.000000	0.000000	159.000000	61.000000	25.000000	-9.000000
0.580000	89.370000	79.540000	516.000000	0.000000	161.000000	62.000000	16.000000	0.000000
0.590000	89.470000	79.450000	540.000000	0.000000	161.000000	62.000000	10.000000	-9.000000
0.600000	89.790000	79.600000	548.000000	0.000000	161.000000	62.000000	32.000000	15.000000
0.610000	90.120000	79.890000	551.000000	0.000000	161.000000	62.000000	33.000000	29.000000
0.620000	90.480000	80.210000	556.000000	0.000000	161.000000	62.000000	36.000000	32.000000
0.630000	90.800000	80.660000	553.000000	0.000000	161.000000	62.000000	32.000000	45.000000
0.640000	91.130000	81.200000	537.000000	0.000000	161.000000	62.000000	33.000000	54.000000
0.650000	91.330000	81.740000	514.000000	0.000000	162.000000	61.000000	20.000000	54.000000
0.660000	91.450000	82.410000	492.000000	0.000000	163.000000	61.000000	12.000000	67.000000
0.670000	91.510000	83.160000	494.000000	0.000000	164.000000	60.000000	6.000000	75.000000
0.680000	91.430000	83.740000	496.000000	0.000000	164.000000	60.000000	-8.000000	58.000000
0.690000	91.260000	83.900000	498.000000	0.000000	165.000000	59.000000	-17.000000	16.000000
0.700000	91.090000	83.770000	491.000000	0.000000	165.000000	59.000000	-17.000000	-13.000000
0.710000	90.790000	83.300000	497.000000	0.000000	165.000000	59.000000	-30.000000	-47.000000
0.720000	90.400000	82.640000	505.000000	0.000000	164.000000	58.000000	-39.000000	-66.000000
0.730000	90.000000	81.860000	514.000000	0.000000	164.000000	58.000000	-40.000000	-78.000000
0.740000	89.780000	80.970000	522.000000	0.000000	164.000000	58.000000	-22.000000	-89.000000
0.750000	89.670000	80.180000	512.000000	0.000000	164.000000	58.000000	-11.000000	-79.000000
0.760000	89.790000	79.690000	516.000000	0.000000	162.000000	58.000000	12.000000	-49.000000
0.770000	89.930000	79.360000	519.000000	0.000000	161.000000	59.000000	14.000000	-33.000000
0.780000	90.110000	79.230000	524.000000	0.000000	161.000000	59.000000	18.000000	-13.000000
0.790000	90.370000	79.280000	526.000000	0.000000	163.000000	59.000000	26.000000	5.000000
0.800000	90.730000	79.440000	518.000000	0.000000	163.000000	59.000000	36.000000	16.000000
0.810000	91.130000	79.900000	518.000000	0.000000	163.000000	59.000000	40.000000	46.000000
0.820000	91.460000	80.340000	522.000000	0.000000	163.000000	59.000000	33.000000	44.000000
0.830000	91.610000	80.710000	522.000000	0.000000	163.000000	59.000000	15.000000	37.000000
0.840000	91.690000	80.980000	520.000000	0.000000	163.000000	59.000000	8.000000	27.000000
0.850000	91.690000	80.890000	529.000000	0.000000	163.000000	59.000000	0.000000	-9.000000
0.860000	91.520000	80.580000	567.000000	0.000000	162.000000	60.000000	-17.000000	-31.000000
0.870000	91.280000	79.840000	588.000000	0.000000	162.000000	60.000000	-24.000000	-74.000000
0.880000	90.930000	78.790000	631.000000	0.000000	162.000000	60.000000	-35.000000	-105.000000
0.890000	90.580000	77.540000	638.000000	0.000000	164.000000	60.000000	-35.000000	-125.000000
0.900000	90.200000	75.820000	666.000000	0.000000	164.000000	60.000000	-38.000000	-172.000000
0.910000	89.800000	74.430000	682.000000	0.000000	164.000000	60.000000	-40.000000	-139.000000
0.920000	89.690000	73.250000	693.000000	0.000000	164.000000	60.000000	-11.000000	-118.000000
0.930000	89.590000	72.580000	687.000000	0.000000	164.000000	60.000000	-10.000000	-67.000000
0.940000	89.500000	72.300000	656.000000	0.000000	162.000000	60.000000	-9.000000	-28.000000
0.950000	89.580000	72.300000	535.000000	0.000000	162.000000	60.000000	8.000000	0.000000
0.960000	89.700000	72.410000	101.000000	0.000000	162.000000	60.000000	12.000000	11.000000
0.970000	89.700000	72.410000	0.000000	1.000000	162.000000	60.000000	0.000000	0.000000
0.980000	90.260000	73.690000	0.000000	0.000000	162.000000	60.000000	56.000000	128.000000
0.990000	90.260000	74.740000	0.000000	0.000000	161.000000	60.000000	0.000000	105.000000
1.000000	90.260000	75.920000	0.000000	0.000000	161.000000	60.000000	0.000000	118.000000
1.010000	90.260000	77.200000	0.000000	0.000000	161.000000	60.000000	0.000000	128.000000
1.020000	90.380000	78.400000	0.000000	0.000000	161.000000	60.000000	12.000000	120.000000
1.030000	90.540000	79.190000	0.000000	0.000000	161.000000	60.000000	16.000000	79.000000
1.040000	90.780000	79.710000	0.000000	0.000000	161.000000	60.000000	24.000000	52.000000
1.050000	91.040000	79.840000	0.000000	0.000000	161.000000	60.000000	26.000000	13.000000
1.060000	91.040000	79.840000	129.000000	1.000000	161.000000	60.000000	0.000000	0.000000
1.070000	91.360000	79.490000	141.000000	0.000000	158.000000	60.000000	32.000000	-35.000000
1.080000	91.360000	79.350000	247.000000	0.000000	158.000000	60.000000	0.000000	-14.000000
1.090000	91.460000	79.170000	334.000000	0.000000	157.000000	61.000000	10.000000	-18.000000
1.100000	91.590000	78.930000	396.000000	0.000000	157.000000	61.000000	13.000000	-24.000000
1.110000	91.740000	78.790000	445.000000	0.000000	159.000000	61.000000	15.000000	-14.000000
1.120000	91.900000	78.720000	489.000000	0.000000	161.000000	62.000000	16.000000	-7.000000
1.130000	92.110000	78.720000	514.000000	0.000000	162.000000	61.000000	21.000000	0.000000
1.140000	92.400000	78.880000	522.000000	0.000000	163.000000	61.000000	29.000000	16.000000
1.150000	92.690000	79.130000	512.000000	0.000000	163.000000	61.000000	29.000000	25.000000
1.160000	92.980000	79.430000	518.000000	0.000000	164.000000	60.000000	29.000000	30.000000
1.170000	93.150000	79.860000	522.000000	0.000000	164.000000	60.000000	17.000000	43.000000
1.180000	93.240000	80.370000	515.000000	0.000000	163.000000	61.000000	9.000000	51.000000
1.190000	93.240000	80.890000	512.000000	0.000000	162.000000	61.000000	0.000000	52.000000
1.200000	93.240000	81.280000	514.000000	0.000000	162.000000	61.000000	0.000000	39.000000
1.210000	93.150000	81.590000	519.000000	0.000000	160.000000	60.000000	-9.000000	31.000000
1.220000	92.920000	82.070000	515.000000	0.000000	160.000000	60.000000	-23.000000	48.000000
1.230000	92.800000	82.190000	510.000000	0.000000	160.000000	60.000000	-12.000000	12.000000
1.240000	92.680000	82.060000	515.000000	0.000000	159.000000	59.000000	-12.000000	-13.000000
1.250000	92.520000	81.640000	520.000000	0.000000	159.000000	59.000000	-16.000000	-42.000000
1.260000	92.340000	81.020000	519.000000	0.000000	159.000000	59.000000	-18.000000	-62.000000
1.270000	92.170000	80.280000	526.000000	0.000000	159.000000	59.000000	-17.000000	-74.000000
1.280000	92.170000	79.560000	540.000000	0.000000	160.000000	58.000000	0.000000	-72.000000
1.290000	92.350000	78.920000	540.000000	0.000000	161.000000	60.000000	18.000000	-64.000000
1.300000	92.450000	78.330000	544.000000	0.000000	161.000000	60.000000	10.000000	-59.000000
1.310000	92.590000	78.050000	542.000000	0.000000	161.000000	60.000000	14.000000	-28.000000
1.320000	92.780000	77.920000	553.000000	0.000000	162.000000	60.000000	19.000000	-13.000000
1.330000	92.960000	77.920000	574.000000	0.000000	162.000000	61.000000	18.000000	0.000000
1.340000	93.160000	77.980000	566.000000	0.000000	162.000000	61.000000	20.000000	6.000000
1.350000	93.390000	78.320000	563.000000	0.000000	163.000000	61.000000	23.000000	34.000000
1.360000	93.670000	78.830000	562.000000	0.000000	163.000000	61.000000	28.000000	51.000000
1.370000	93.870000	79.440000	537.000000	0.000000	164.000000	60.000000	20.000000	61.000000
1.380000	94.010000	80.140000	527.000000	0.000000	164.000000	60.000000	14.000000	70.000000
1.390000	94.010000	80.890000	518.000000	0.000000	162.000000	60.000000	0.000000	75.000000
1.400000	94.010000	81.580000	518.000000	0.000000	162.000000	60.000000	0.000000	69.000000
1.410000	93.930000	81.890000	518.000000	0.000000	161.000000	60.000000	-8.000000	31.000000
1.420000	93.930000	81.960000	518.000000	0.000000	159.000000	59.000000	0.000000	7.000000
1.430000	93.930000	81.790000	526.000000	0.000000	160.000000	58.000000	0.000000	-17.000000
1.440000	93.930000	81.290000	537.000000	0.000000	159.000000	59.000000	0.000000	-50.000000
1.450000	93.930000	80.570000	542.000000	0.000000	157.000000	59.000000	0.000000	-72.000000
1.460000	93.930000	79.820000	556.000000	0.000000	157.000000	59.000000	0.000000	-75.000000
1.470000	93.930000	79.070000	567.000000	0.000000	159.000000	59.000000	0.000000	-75.000000
1.480000	93.930000	78.600000	581.000000	0.000000	159.000000	59.000000	0.000000	-47.000000
1.490000	94.040000	78.310000	586.000000	0.000000	159.000000	59.000000	11.000000	-29.000000
1.500000	94.180000	78.150000	585.000000	0.000000	160.000000	60.000000	14.000000	-16.000000
1.510000	94.340000	78.150000	602.000000	0.000000	160.000000	60.000000	16.000000	0.000000
1.520000	94.510000	78.150000	603.000000	0.000000	162.000000	61.000000	17.000000	0.000000
1.530000	94.700000	78.370000	605.000000	0.000000	162.000000	61.000000	19.000000	22.000000
1.540000	94.890000	78.790000	597.000000	0.000000	162.000000	61.000000	19.000000	42.000000
1.550000	95.000000	79.360000	592.000000	0.000000	162.000000	61.000000	11.000000	57.000000
1.560000	95.060000	80.100000	588.000000	0.000000	162.000000	60.000000	6.000000	74.000000
1.570000	95.060000	80.830000	588.000000	0.000000	162.000000	60.000000	0.000000	73.000000
1.580000	95.060000	81.560000	591.000000	0.000000	161.000000	60.000000	0.000000	73.000000
1.590000	94.990000	81.920000	585.000000	0.000000	161.000000	60.000000	-7.000000	36.000000
1.600000	94.920000	82.010000	585.000000	0.000000	159.000000	59.000000	-7.000000	9.000000
1.610000	94.920000	81.930000	594.000000	0.000000	159.000000	59.000000	0.000000	-8.000000
1.620000	94.920000	81.530000	595.000000	0.000000	157.000000	59.000000	0.000000	-40.000000
1.630000	94.830000	80.910000	606.000000	0.000000	157.000000	59.000000	-9.000000	-62.000000
1.640000	94.750000	80.210000	609.000000	0.000000	157.000000	59.000000	-8.000000	-70.000000
1.650000	94.880000	79.610000	613.000000	0.000000	157.000000	59.000000	13.000000	-60.000000
1.660000	95.040000	79.160000	616.000000	0.000000	157.000000	59.000000	16.000000	-45.000000
1.670000	95.190000	78.790000	610.000000	0.000000	157.000000	59.000000	15.000000	-37.000000
1.680000	95.320000	78.660000	614.000000	0.000000	159.000000	59.000000	13.000000	-13.000000
1.690000	95.490000	78.600000	620.000000	0.000000	159.000000	59.000000	17.000000	-6.000000
1.700000	95.610000	78.600000	622.000000	0.000000	161.000000	60.000000	12.000000	0.000000
1.710000	95.740000	78.790000	620.000000	0.000000	161.000000	60.000000	13.000000	19.000000
1.720000	95.900000	79.200000	610.000000	0.000000	162.000000	60.000000	16.000000	41.000000
1.730000	96.020000	79.760000	614.000000	0.000000	162.000000	60.000000	12.000000	56.000000
1.740000	96.100000	80.400000	613.000000	0.000000	162.000000	60.000000	8.000000	64.000000
1.750000	96.150000	81.080000	614.000000	0.000000	162.000000	60.000000	5.000000	68.000000
1.760000	96.150000	81.800000	617.000000	0.000000	161.000000	60.000000	0.000000	72.000000
1.770000	96.150000	82.210000	611.000000	0.000000	161.000000	60.000000	0.000000	41.000000
1.780000	96.100000	82.300000	611.000000	0.000000	161.000000	60.000000	-5.000000	9.000000
1.790000	96.050000	82.170000	622.000000	0.000000	159.000000	59.000000	-5.000000	-13.000000
1.800000	95.990000	81.760000	628.000000	0.000000	159.000000	59.000000	-6.000000	-41.000000
1.810000	95.910000	81.160000	628.000000	0.000000	159.000000	59.000000	-8.000000	-60.000000
1.820000	95.820000	80.430000	630.000000	0.000000	157.000000	59.000000	-9.000000	-73.000000
1.830000	95.820000	79.770000	617.000000	0.000000	157.000000	59.000000	0.000000	-66.000000
1.840000	95.950000	79.280000	591.000000	0.000000	159.000000	59.000000	13.000000	-49.000000
1.850000	96.150000	78.900000	521.000000	0.000000	159.000000	59.000000	20.000000	-38.000000
1.860000	96.390000	78.700000	422.000000	0.000000	159.000000	59.000000	24.000000	-20.000000
1.870000	96.620000	78.640000	315.000000	0.000000	161.000000	60.000000	23.000000	-6.000000
1.880000	96.880000	78.640000	282.000000	0.000000	161.000000	60.000000	26.000000	0.000000
1.890000	97.170000	78.880000	247.000000	0.000000	162.000000	60.000000	29.000000	24.000000
1.900000	97.480000	79.280000	247.000000	0.000000	164.000000	60.000000	31.000000	40.000000
1.910000	97.720000	79.820000	254.000000	0.000000	164.000000	60.000000	24.000000	54.000000
1.920000	97.920000	80.510000	306.000000	0.000000	164.000000	60.000000	20.000000	69.000000
1.930000	98.030000	81.200000	356.000000	0.000000	164.000000	60.000000	11.000000	69.000000
1.940000	97.980000	81.900000	471.000000	0.000000	164.000000	60.000000	-5.000000	70.000000
1.950000	97.820000	82.220000	515.000000	0.000000	162.000000	60.000000	-16.000000	32.000000
1.960000	97.570000	82.220000	564.000000	0.000000	162.000000	60.000000	-25.000000	0.000000
1.970000	97.310000	82.120000	595.000000	0.000000	161.000000	60.000000	-26.000000	-10.000000
1.980000	97.030000	81.580000	611.000000	0.000000	161.000000	60.000000	-28.000000	-54.000000
1.990000	96.720000	81.000000	639.000000	0.000000	161.000000	60.000000	-31.000000	-58.000000
2.000000	96.570000	80.350000	636.000000	0.000000	159.000000	59.000000	-15.000000	-65.000000
2.010000	96.510000	79.650000	641.000000	0.000000	159.000000	59.000000	-6.000000	-70.000000
2.020000	96.690000	79.190000	643.000000	0.000000	159.000000	59.000000	18.000000	-46.000000
2.030000	96.920000	78.900000	641.000000	0.000000	159.000000	59.000000	23.000000	-29.000000
2.040000	97.170000	78.730000	644.000000	0.000000	161.000000	60.000000	25.000000	-17.000000
2.050000	97.400000	78.730000	611.000000	0.000000	161.000000	60.000000	23.000000	0.000000
2.060000	97.700000	78.840000	594.000000	0.000000	161.000000	60.000000	30.000000	11.000000
2.070000	97.950000	79.160000	588.000000	0.000000	162.000000	60.000000	25.000000	32.000000
2.080000	98.110000	79.640000	584.000000	0.000000	162.000000	60.000000	16.000000	48.000000
2.090000	98.210000	80.240000	586.000000	0.000000	162.000000	60.000000	10.000000	60.000000
2.100000	98.210000	80.920000	586.000000	0.000000	162.000000	60.000000	0.000000	68.000000
2.110000	98.210000	81.540000	594.000000	0.000000	162.000000	60.000000	0.000000	62.000000
2.120000	98.150000	82.120000	614.000000	0.000000	162.000000	60.000000	-6.000000	58.000000
2.130000	98.050000	82.120000	617.000000	0.000000	162.000000	60.000000	-10.000000	0.000000
2.140000	97.960000	82.120000	619.000000	0.000000	162.000000	60.000000	-9.000000	0.000000
2.150000	97.890000	81.820000	625.000000	0.000000	161.000000	60.000000	-7.000000	-30.000000
2.160000	97.810000	81.280000	625.000000	0.000000	161.000000	60.000000	-8.000000	-54.000000
2.170000	97.890000	80.590000	624.000000	0.000000	161.000000	60.000000	8.000000	-69.000000
2.180000	98.070000	79.970000	614.000000	0.000000	161.000000	60.000000	18.000000	-62.000000
2.190000	98.280000	79.480000	580.000000	0.000000	161.000000	60.000000	21.000000	-49.000000
