t	x	y	pressure	penup	azimuth	inclination	v_x	v_y
0.000000	11.240000	77.940000	108.000000	1.000000	155.000000	58.000000	0.000000	0.000000
0.010000	10.810000	77.600000	149.000000	0.000000	155.000000	58.000000	-43.000000	-34.000000
0.020000	10.650000	77.550000	247.000000	0.000000	154.000000	58.000000	-16.000000	-5.000000
0.030000	10.650000	77.550000	315.000000	0.000000	154.000000	58.000000	0.000000	0.000000
0.040000	10.650000	77.500000	398.000000	0.000000	154.000000	58.000000	0.000000	-5.000000
0.050000	10.960000	77.500000	448.000000	0.000000	154.000000	58.000000	31.000000	0.000000
0.060000	11.500000	77.710000	483.000000	0.000000	154.000000	58.000000	54.000000	21.000000
0.070000	12.210000	78.020000	504.000000	0.000000	154.000000	58.000000	71.000000	31.000000
0.080000	12.980000	78.520000	520.000000	0.000000	154.000000	58.000000	77.000000	50.000000
0.090000	13.850000	79.310000	540.000000	0.000000	154.000000	57.000000	87.000000	79.000000
0.100000	14.790000	80.290000	546.000000	0.000000	155.000000	58.000000	94.000000	98.000000
0.110000	15.570000	81.250000	556.000000	0.000000	156.000000	57.000000	78.000000	96.000000
0.120000	16.000000	82.210000	559.000000	0.000000	156.000000	57.000000	43.000000	96.000000
0.130000	16.190000	83.200000	551.000000	0.000000	157.000000	57.000000	19.000000	99.000000
0.140000	16.290000	84.220000	546.000000	0.000000	160.000000	56.000000	10.000000	102.000000
0.150000	16.110000	84.760000	537.000000	0.000000	161.000000	57.000000	-18.000000	54.000000
0.160000	15.750000	84.970000	529.000000	0.000000	161.000000	57.000000	-36.000000	21.000000
0.170000	15.320000	84.970000	519.000000	0.000000	163.000000	56.000000	-43.000000	0.000000
0.180000	14.830000	84.560000	524.000000	0.000000	163.000000	56.000000	-49.000000	-41.000000
0.190000	14.300000	83.740000	529.000000	0.000000	163.000000	56.000000	-53.000000	-82.000000
0.200000	13.860000	82.640000	545.000000	0.000000	163.000000	56.000000	-44.000000	-110.000000
0.210000	13.590000	81.290000	591.000000	0.000000	162.000000	56.000000	-27.000000	-135.000000
0.220000	13.420000	79.820000	617.000000	0.000000	161.000000	57.000000	-17.000000	-147.000000
0.230000	13.420000	78.260000	637.000000	0.000000	160.000000	56.000000	0.000000	-156.000000
0.240000	13.510000	76.710000	655.000000	0.000000	158.000000	56.000000	9.000000	-155.000000
0.250000	13.680000	75.000000	659.000000	0.000000	156.000000	57.000000	17.000000	-171.000000
0.260000	13.930000	73.190000	662.000000	0.000000	156.000000	57.000000	25.000000	-181.000000
0.270000	14.120000	71.820000	653.000000	0.000000	154.000000	56.000000	19.000000	-137.000000
0.280000	14.270000	70.660000	653.000000	0.000000	154.000000	57.000000	15.000000	-116.000000
0.290000	14.270000	69.630000	647.000000	0.000000	154.000000	57.000000	0.000000	-103.000000
0.300000	14.120000	68.720000	649.000000	0.000000	151.000000	58.000000	-15.000000	-91.000000
0.310000	13.710000	68.140000	644.000000	0.000000	151.000000	58.000000	-41.000000	-58.000000
0.320000	13.180000	67.770000	639.000000	0.000000	150.000000	58.000000	-53.000000	-37.000000
0.330000	12.560000	67.650000	605.000000	0.000000	147.000000	59.000000	-62.000000	-12.000000
0.340000	11.760000	67.920000	553.000000	0.000000	146.000000	60.000000	-80.000000	27.000000
0.350000	10.760000	68.440000	518.000000	0.000000	145.000000	60.000000	-100.000000	52.000000
0.360000	9.630000	69.120000	539.000000	0.000000	145.000000	60.000000	-113.000000	68.000000
0.370000	8.760000	69.800000	569.000000	0.000000	145.000000	60.000000	-87.000000	68.000000
0.380000	8.160000	70.370000	619.000000	0.000000	147.000000	61.000000	-60.000000	57.000000
0.390000	7.740000	70.860000	664.000000	0.000000	148.000000	60.000000	-42.000000	49.000000
0.400000	7.570000	71.320000	681.000000	0.000000	150.000000	60.000000	-17.000000	46.000000
0.410000	7.930000	71.970000	691.000000	0.000000	152.000000	60.000000	36.000000	65.000000
0.420000	8.630000	72.740000	696.000000	0.000000	155.000000	60.000000	70.000000	77.000000
0.430000	9.850000	73.640000	713.000000	0.000000	156.000000	59.000000	122.000000	90.000000
0.440000	11.480000	74.590000	721.000000	0.000000	157.000000	58.000000	163.000000	95.000000
0.450000	13.370000	75.580000	740.000000	0.000000	157.000000	58.000000	189.000000	99.000000
0.460000	15.380000	76.510000	759.000000	0.000000	157.000000	58.000000	201.000000	93.000000
0.470000	17.550000	77.380000	771.000000	0.000000	159.000000	57.000000	217.000000	87.000000
0.480000	19.830000	78.210000	803.000000	0.000000	159.000000	57.000000	228.000000	83.000000
0.490000	22.170000	79.010000	830.000000	0.000000	161.000000	57.000000	234.000000	80.000000
0.500000	24.960000	79.950000	819.000000	0.000000	163.000000	57.000000	279.000000	94.000000
0.510000	28.050000	80.990000	831.000000	0.000000	164.000000	57.000000	309.000000	104.000000
0.520000	30.680000	81.630000	842.000000	0.000000	168.000000	56.000000	263.000000	64.000000
0.530000	32.770000	82.070000	855.000000	0.000000	169.000000	57.000000	209.000000	44.000000
0.540000	34.510000	82.390000	867.000000	0.000000	171.000000	56.000000	174.000000	32.000000
0.550000	35.970000	82.660000	855.000000	0.000000	173.000000	55.000000	146.000000	27.000000
0.560000	36.990000	82.880000	863.000000	0.000000	174.000000	55.000000	102.000000	22.000000
0.570000	37.720000	82.970000	855.000000	0.000000	176.000000	54.000000	73.000000	9.000000
0.580000	37.950000	82.970000	817.000000	0.000000	176.000000	54.000000	23.000000	0.000000
0.590000	37.950000	82.970000	630.000000	0.000000	176.000000	54.000000	0.000000	0.000000
0.600000	37.950000	82.970000	0.000000	1.000000	176.000000	54.000000	0.000000	0.000000
0.610000	37.130000	82.900000	0.000000	0.000000	176.000000	53.000000	-82.000000	-7.000000
0.620000	35.910000	82.900000	0.000000	0.000000	176.000000	53.000000	-122.000000	0.000000
0.630000	34.330000	82.990000	0.000000	0.000000	176.000000	53.000000	-158.000000	9.000000
0.640000	32.280000	82.990000	0.000000	0.000000	176.000000	53.000000	-205.000000	0.000000
0.650000	29.950000	82.870000	0.000000	0.000000	175.000000	54.000000	-233.000000	-12.000000
0.660000	27.420000	82.350000	0.000000	0.000000	175.000000	54.000000	-253.000000	-52.000000
0.670000	25.150000	81.560000	0.000000	0.000000	173.000000	55.000000	-227.000000	-79.000000
0.680000	22.990000	80.720000	0.000000	0.000000	171.000000	56.000000	-216.000000	-84.000000
0.690000	20.910000	79.880000	0.000000	0.000000	170.000000	56.000000	-208.000000	-84.000000
0.700000	19.250000	79.040000	0.000000	0.000000	168.000000	56.000000	-166.000000	-84.000000
0.710000	18.010000	78.450000	0.000000	0.000000	166.000000	56.000000	-124.000000	-59.000000
0.720000	17.060000	78.020000	0.000000	0.000000	166.000000	56.000000	-95.000000	-43.000000
0.730000	16.290000	77.760000	0.000000	0.000000	166.000000	56.000000	-77.000000	-26.000000
0.740000	15.840000	77.680000	0.000000	0.000000	166.000000	56.000000	-45.000000	-8.000000
0.750000	15.600000	77.680000	0.000000	0.000000	166.000000	56.000000	-24.000000	0.000000
0.760000	15.520000	77.800000	0.000000	0.000000	167.000000	55.000000	-8.000000	12.000000
0.770000	15.460000	77.910000	0.000000	0.000000	167.000000	54.000000	-6.000000	11.000000
0.780000	15.400000	78.040000	0.000000	0.000000	169.000000	54.000000	-6.000000	13.000000
0.790000	15.400000	78.150000	0.000000	0.000000	169.000000	54.000000	0.000000	11.000000
0.800000	15.460000	78.260000	0.000000	0.000000	169.000000	54.000000	6.000000	11.000000
0.810000	15.460000	78.380000	0.000000	0.000000	168.000000	55.000000	0.000000	12.000000
0.820000	15.460000	78.470000	0.000000	0.000000	168.000000	55.000000	0.000000	9.000000
0.830000	15.400000	78.550000	0.000000	0.000000	168.000000	55.000000	-6.000000	8.000000
0.840000	15.400000	78.640000	0.000000	0.000000	167.000000	55.000000	0.000000	9.000000
0.850000	15.520000	78.740000	0.000000	0.000000	167.000000	55.000000	12.000000	10.000000
0.860000	15.750000	78.860000	0.000000	0.000000	167.000000	55.000000	23.000000	12.000000
0.870000	16.060000	78.920000	0.000000	0.000000	167.000000	55.000000	31.000000	6.000000
0.880000	16.060000	78.920000	37.000000	1.000000	167.000000	55.000000	0.000000	0.000000
0.890000	16.700000	78.920000	254.000000	0.000000	167.000000	55.000000	64.000000	0.000000
0.900000	16.830000	78.920000	310.000000	0.000000	167.000000	55.000000	13.000000	0.000000
0.910000	16.830000	78.920000	396.000000	0.000000	167.000000	55.000000	0.000000	0.000000
0.920000	16.710000	78.740000	447.000000	0.000000	167.000000	55.000000	-12.000000	-18.000000
0.930000	16.480000	78.480000	495.000000	0.000000	167.000000	55.000000	-23.000000	-26.000000
0.940000	16.240000	78.140000	509.000000	0.000000	167.000000	55.000000	-24.000000	-34.000000
0.950000	15.980000	77.730000	544.000000	0.000000	165.000000	55.000000	-26.000000	-41.000000
0.960000	15.710000	77.300000	554.000000	0.000000	163.000000	56.000000	-27.000000	-43.000000
0.970000	15.550000	76.920000	566.000000	0.000000	163.000000	56.000000	-16.000000	-38.000000
0.980000	15.550000	76.560000	577.000000	0.000000	162.000000	56.000000	0.000000	-36.000000
0.990000	15.680000	76.370000	584.000000	0.000000	161.000000	57.000000	13.000000	-19.000000
1.000000	15.980000	76.370000	595.000000	0.000000	161.000000	57.000000	30.000000	0.000000
1.010000	16.410000	76.370000	611.000000	0.000000	160.000000	56.000000	43.000000	0.000000
1.020000	16.930000	76.530000	630.000000	0.000000	161.000000	57.000000	52.000000	16.000000
1.030000	17.450000	76.730000	638.000000	0.000000	161.000000	57.000000	52.000000	20.000000
1.040000	17.830000	76.960000	639.000000	0.000000	163.000000	57.000000	38.000000	23.000000
1.050000	18.120000	77.080000	639.000000	0.000000	164.000000	57.000000	29.000000	12.000000
1.060000	18.270000	77.160000	617.000000	0.000000	166.000000	57.000000	15.000000	8.000000
1.070000	18.270000	77.160000	512.000000	0.000000	167.000000	57.000000	0.000000	0.000000
1.080000	18.270000	77.160000	286.000000	0.000000	169.000000	58.000000	0.000000	0.000000
1.090000	18.270000	77.160000	0.000000	1.000000	169.000000	58.000000	0.000000	0.000000
1.100000	18.150000	77.090000	0.000000	0.000000	170.000000	58.000000	-12.000000	-7.000000
1.110000	18.040000	77.210000	0.000000	0.000000	170.000000	58.000000	-11.000000	12.000000
1.120000	17.960000	77.460000	0.000000	0.000000	170.000000	58.000000	-8.000000	25.000000
1.130000	17.890000	77.830000	0.000000	0.000000	170.000000	58.000000	-7.000000	37.000000
1.140000	17.890000	78.270000	0.000000	0.000000	170.000000	58.000000	0.000000	44.000000
1.150000	17.890000	78.760000	0.000000	0.000000	171.000000	57.000000	0.000000	49.000000
1.160000	18.000000	79.310000	0.000000	0.000000	169.000000	57.000000	11.000000	55.000000
1.170000	18.000000	79.810000	0.000000	0.000000	170.000000	56.000000	0.000000	50.000000
1.180000	18.000000	80.240000	0.000000	0.000000	168.000000	55.000000	0.000000	43.000000
1.190000	18.000000	80.640000	0.000000	0.000000	168.000000	55.000000	0.000000	40.000000
1.200000	18.000000	80.640000	219.000000	1.000000	168.000000	55.000000	0.000000	0.000000
1.210000	18.000000	80.640000	319.000000	0.000000	167.000000	55.000000	0.000000	0.000000
1.220000	17.860000	81.010000	469.000000	0.000000	168.000000	55.000000	-14.000000	37.000000
1.230000	17.800000	81.250000	577.000000	0.000000	168.000000	55.000000	-6.000000	24.000000
1.240000	17.800000	81.320000	611.000000	0.000000	168.000000	56.000000	0.000000	7.000000
1.250000	17.800000	81.370000	611.000000	0.000000	168.000000	56.000000	0.000000	5.000000
1.260000	17.800000	81.370000	540.000000	0.000000	168.000000	56.000000	0.000000	0.000000
1.270000	17.800000	81.370000	250.000000	0.000000	168.000000	56.000000	0.000000	0.000000
1.280000	17.800000	81.370000	0.000000	1.000000	168.000000	55.000000	0.000000	0.000000
1.290000	17.860000	81.250000	0.000000	0.000000	170.000000	56.000000	6.000000	-12.000000
1.300000	17.940000	81.190000	0.000000	0.000000	169.000000	57.000000	8.000000	-6.000000
1.310000	18.090000	81.190000	0.000000	0.000000	169.000000	57.000000	15.000000	0.000000
1.320000	18.480000	81.050000	0.000000	0.000000	169.000000	57.000000	39.000000	-14.000000
1.330000	18.990000	80.870000	0.000000	0.000000	168.000000	56.000000	51.000000	-18.000000
1.340000	19.630000	80.660000	0.000000	0.000000	167.000000	57.000000	64.000000	-21.000000
1.350000	20.180000	80.410000	0.000000	0.000000	166.000000	57.000000	55.000000	-25.000000
1.360000	20.680000	80.080000	0.000000	0.000000	166.000000	57.000000	50.000000	-33.000000
1.370000	20.680000	80.080000	134.000000	1.000000	166.000000	57.000000	0.000000	0.000000
1.380000	20.850000	79.370000	307.000000	0.000000	164.000000	57.000000	17.000000	-71.000000
1.390000	20.720000	79.370000	431.000000	0.000000	164.000000	57.000000	-13.000000	0.000000
1.400000	20.620000	79.530000	472.000000	0.000000	164.000000	57.000000	-10.000000	16.000000
1.410000	20.390000	79.610000	480.000000	0.000000	166.000000	57.000000	-23.000000	8.000000
1.420000	20.060000	79.610000	483.000000	0.000000	166.000000	57.000000	-33.000000	0.000000
1.430000	19.760000	79.610000	483.000000	0.000000	166.000000	57.000000	-30.000000	0.000000
1.440000	19.390000	79.300000	485.000000	0.000000	167.000000	57.000000	-37.000000	-31.000000
1.450000	18.980000	78.860000	495.000000	0.000000	167.000000	57.000000	-41.000000	-44.000000
1.460000	18.650000	78.400000	512.000000	0.000000	169.000000	58.000000	-33.000000	-46.000000
1.470000	18.500000	77.940000	533.000000	0.000000	169.000000	57.000000	-15.000000	-46.000000
1.480000	18.500000	77.590000	541.000000	0.000000	171.000000	57.000000	0.000000	-35.000000
1.490000	18.500000	77.310000	527.000000	0.000000	171.000000	57.000000	0.000000	-28.000000
1.500000	18.790000	77.210000	443.000000	0.000000	171.000000	57.000000	29.000000	-10.000000
1.510000	19.150000	77.300000	200.000000	0.000000	171.000000	57.000000	36.000000	9.000000
1.520000	19.150000	77.300000	0.000000	1.000000	171.000000	57.000000	0.000000	0.000000
1.530000	19.990000	77.890000	0.000000	0.000000	171.000000	57.000000	84.000000	59.000000
1.540000	20.310000	78.370000	0.000000	0.000000	171.000000	57.000000	32.000000	48.000000
1.550000	20.620000	78.930000	0.000000	0.000000	171.000000	57.000000	31.000000	56.000000
1.560000	20.880000	79.650000	0.000000	0.000000	169.000000	57.000000	26.000000	72.000000
1.570000	21.060000	80.500000	0.000000	0.000000	169.000000	57.000000	18.000000	85.000000
1.580000	21.180000	81.430000	0.000000	0.000000	170.000000	56.000000	12.000000	93.000000
1.590000	21.290000	81.960000	0.000000	0.000000	168.000000	55.000000	11.000000	53.000000
1.600000	21.290000	81.960000	287.000000	1.000000	168.000000	55.000000	0.000000	0.000000
1.610000	21.400000	82.480000	333.000000	0.000000	169.000000	54.000000	11.000000	52.000000
1.620000	21.260000	82.670000	473.000000	0.000000	169.000000	54.000000	-14.000000	19.000000
1.630000	21.260000	82.720000	510.000000	0.000000	167.000000	54.000000	0.000000	5.000000
1.640000	21.200000	82.670000	546.000000	0.000000	169.000000	54.000000	-6.000000	-5.000000
1.650000	21.150000	82.490000	591.000000	0.000000	169.000000	54.000000	-5.000000	-18.000000
1.660000	20.960000	81.960000	622.000000	0.000000	169.000000	53.000000	-19.000000	-53.000000
1.670000	20.700000	81.210000	650.000000	0.000000	169.000000	53.000000	-26.000000	-75.000000
1.680000	20.430000	80.370000	662.000000	0.000000	169.000000	53.000000	-27.000000	-84.000000
1.690000	20.280000	79.560000	678.000000	0.000000	169.000000	53.000000	-15.000000	-81.000000
1.700000	20.210000	78.770000	699.000000	0.000000	169.000000	54.000000	-7.000000	-79.000000
1.710000	20.330000	78.300000	702.000000	0.000000	169.000000	54.000000	12.000000	-47.000000
1.720000	20.480000	78.030000	693.000000	0.000000	169.000000	54.000000	15.000000	-27.000000
1.730000	20.690000	77.890000	703.000000	0.000000	169.000000	54.000000	21.000000	-14.000000
1.740000	21.050000	77.890000	710.000000	0.000000	169.000000	54.000000	36.000000	0.000000
1.750000	21.510000	78.150000	705.000000	0.000000	169.000000	54.000000	46.000000	26.000000
1.760000	21.980000	78.500000	684.000000	0.000000	169.000000	54.000000	47.000000	35.000000
1.770000	22.380000	78.990000	675.000000	0.000000	169.000000	54.000000	40.000000	49.000000
1.780000	22.730000	79.520000	668.000000	0.000000	169.000000	54.000000	35.000000	53.000000
1.790000	22.880000	80.090000	664.000000	0.000000	169.000000	54.000000	15.000000	57.000000
1.800000	22.980000	80.480000	668.000000	0.000000	169.000000	54.000000	10.000000	39.000000
1.810000	23.050000	80.590000	667.000000	0.000000	167.000000	54.000000	7.000000	11.000000
1.820000	23.050000	80.590000	666.000000	0.000000	167.000000	54.000000	0.000000	0.000000
1.830000	22.950000	80.290000	682.000000	0.000000	167.000000	54.000000	-10.000000	-30.000000
1.840000	22.870000	79.820000	696.000000	0.000000	166.000000	54.000000	-8.000000	-47.000000
1.850000	22.750000	79.190000	707.000000	0.000000	166.000000	54.000000	-12.000000	-63.000000
1.860000	22.750000	78.770000	716.000000	0.000000	166.000000	54.000000	0.000000	-42.000000
1.870000	22.810000	78.440000	719.000000	0.000000	166.000000	54.000000	6.000000	-33.000000
1.880000	22.960000	78.180000	717.000000	0.000000	166.000000	54.000000	15.000000	-26.000000
1.890000	23.160000	78.070000	685.000000	0.000000	167.000000	54.000000	20.000000	-11.000000
1.900000	23.400000	78.120000	561.000000	0.000000	167.000000	54.000000	24.000000	5.000000
1.910000	23.640000	78.270000	51.000000	0.000000	167.000000	54.000000	24.000000	15.000000
1.920000	23.640000	78.270000	0.000000	1.000000	167.000000	54.000000	0.000000	0.000000
1.930000	24.030000	79.110000	0.000000	0.000000	167.000000	54.000000	39.000000	84.000000
1.940000	24.140000	79.840000	0.000000	0.000000	168.000000	53.000000	11.000000	73.000000
1.950000	24.250000	80.870000	0.000000	0.000000	169.000000	53.000000	11.000000	103.000000
1.960000	24.370000	81.690000	0.000000	0.000000	169.000000	53.000000	12.000000	82.000000
1.970000	24.530000	82.380000	0.000000	0.000000	169.000000	53.000000	16.000000	69.000000
1.980000	24.530000	82.750000	0.000000	0.000000	169.000000	53.000000	0.000000	37.000000
1.990000	24.440000	82.830000	0.000000	0.000000	169.000000	53.000000	-9.000000	8.000000
2.000000	24.160000	82.720000	0.000000	0.000000	169.000000	53.000000	-28.000000	-11.000000
2.010000	24.160000	82.720000	373.000000	1.000000	169.000000	53.000000	0.000000	0.000000
2.020000	23.630000	82.570000	545.000000	0.000000	169.000000	53.000000	-53.000000	-15.000000
2.030000	23.370000	82.570000	670.000000	0.000000	169.000000	53.000000	-26.000000	0.000000
2.040000	23.290000	82.570000	722.000000	0.000000	169.000000	53.000000	-8.000000	0.000000
2.050000	23.290000	82.570000	710.000000	0.000000	169.000000	53.000000	0.000000	0.000000
2.060000	23.290000	82.570000	575.000000	0.000000	169.000000	53.000000	0.000000	0.000000
2.070000	23.400000	82.630000	36.000000	0.000000	168.000000	52.000000	11.000000	6.000000
2.080000	23.400000	82.630000	0.000000	1.000000	168.000000	52.000000	0.000000	0.000000
2.090000	23.740000	82.790000	0.000000	0.000000	168.000000	52.000000	34.000000	16.000000
2.100000	23.950000	82.930000	0.000000	0.000000	168.000000	52.000000	21.000000	14.000000
2.110000	24.400000	83.070000	0.000000	0.000000	169.000000	53.000000	45.000000	14.000000
2.120000	25.020000	83.160000	0.000000	0.000000	169.000000	53.000000	62.000000	9.000000
2.130000	25.730000	83.210000	0.000000	0.000000	169.000000	53.000000	71.000000	5.000000
2.140000	26.440000	83.210000	0.000000	0.000000	171.000000	53.000000	71.000000	0.000000
2.150000	27.010000	83.310000	0.000000	0.000000	172.000000	53.000000	57.000000	10.000000
2.160000	27.490000	83.310000	0.000000	0.000000	172.000000	53.000000	48.000000	0.000000
2.170000	27.830000	83.310000	0.000000	0.000000	172.000000	53.000000	34.000000	0.000000
2.180000	27.910000	83.310000	0.000000	0.000000	172.000000	53.000000	8.000000	0.000000
2.190000	27.810000	83.310000	0.000000	0.000000	172.000000	52.000000	-10.000000	0.000000
2.200000	27.690000	83.310000	0.000000	0.000000	172.000000	52.000000	-12.000000	0.000000
2.210000	27.690000	83.310000	0.000000	0.000000	172.000000	52.000000	0.000000	0.000000
