t	x	y	pressure	penup	azimuth	inclination	v_x	v_y
0.000000	50.910000	27.200000	83.000000	1.000000	127.000000	52.000000	0.000000	0.000000
0.010000	50.910000	27.200000	88.000000	0.000000	128.000000	53.000000	0.000000	0.000000
0.020000	50.910000	27.200000	96.000000	0.000000	129.000000	53.000000	0.000000	0.000000
0.030000	51.320000	27.490000	119.000000	0.000000	130.000000	54.000000	41.000000	29.000000
0.040000	51.850000	27.840000	139.000000	0.000000	130.000000	54.000000	53.000000	35.000000
0.050000	52.470000	28.260000	190.000000	0.000000	133.000000	54.000000	62.000000	42.000000
0.060000	53.100000	28.920000	214.000000	0.000000	133.000000	54.000000	63.000000	66.000000
0.070000	53.610000	29.750000	254.000000	0.000000	134.000000	54.000000	51.000000	83.000000
0.080000	54.030000	29.960000	245.000000	0.000000	134.000000	54.000000	42.000000	21.000000
0.090000	54.140000	30.470000	257.000000	0.000000	135.000000	53.000000	11.000000	51.000000
0.100000	54.070000	31.170000	274.000000	0.000000	135.000000	52.000000	-7.000000	70.000000
0.110000	53.870000	31.530000	274.000000	0.000000	135.000000	52.000000	-20.000000	36.000000
0.120000	53.430000	31.690000	277.000000	0.000000	136.000000	51.000000	-44.000000	16.000000
0.130000	52.850000	31.690000	314.000000	0.000000	136.000000	51.000000	-58.000000	0.000000
0.140000	52.170000	31.500000	317.000000	0.000000	137.000000	52.000000	-68.000000	-19.000000
0.150000	51.690000	31.080000	307.000000	0.000000	138.000000	51.000000	-48.000000	-42.000000
0.160000	51.600000	30.510000	317.000000	0.000000	138.000000	51.000000	-9.000000	-57.000000
0.170000	51.780000	29.590000	260.000000	0.000000	140.000000	52.000000	18.000000	-92.000000
0.180000	52.200000	28.530000	253.000000	0.000000	140.000000	52.000000	42.000000	-106.000000
0.190000	52.630000	27.370000	249.000000	0.000000	139.000000	52.000000	43.000000	-116.000000
0.200000	53.060000	26.490000	251.000000	0.000000	139.000000	52.000000	43.000000	-88.000000
0.210000	53.220000	25.850000	241.000000	0.000000	137.000000	53.000000	16.000000	-64.000000
0.220000	53.220000	25.380000	272.000000	0.000000	136.000000	54.000000	0.000000	-47.000000
0.230000	52.750000	24.930000	291.000000	0.000000	135.000000	54.000000	-47.000000	-45.000000
0.240000	51.900000	24.470000	317.000000	0.000000	134.000000	55.000000	-85.000000	-46.000000
0.250000	50.770000	24.120000	354.000000	0.000000	134.000000	56.000000	-113.000000	-35.000000
0.260000	49.520000	23.840000	389.000000	0.000000	132.000000	57.000000	-125.000000	-28.000000
0.270000	48.050000	23.520000	405.000000	0.000000	132.000000	57.000000	-147.000000	-32.000000
0.280000	46.440000	23.190000	438.000000	0.000000	132.000000	57.000000	-161.000000	-33.000000
0.290000	45.090000	22.870000	446.000000	0.000000	132.000000	57.000000	-135.000000	-32.000000
0.300000	44.280000	22.720000	445.000000	0.000000	131.000000	56.000000	-81.000000	-15.000000
0.310000	43.830000	22.660000	447.000000	0.000000	131.000000	56.000000	-45.000000	-6.000000
0.320000	44.000000	22.710000	447.000000	0.000000	130.000000	55.000000	17.000000	5.000000
0.330000	44.700000	22.760000	458.000000	0.000000	130.000000	55.000000	70.000000	5.000000
0.340000	45.740000	23.260000	465.000000	0.000000	130.000000	55.000000	104.000000	50.000000
0.350000	48.130000	24.060000	481.000000	0.000000	130.000000	55.000000	239.000000	80.000000
0.360000	51.140000	25.190000	486.000000	0.000000	130.000000	55.000000	301.000000	113.000000
0.370000	54.560000	26.400000	492.000000	0.000000	130.000000	55.000000	342.000000	121.000000
0.380000	58.040000	27.660000	502.000000	0.000000	131.000000	56.000000	348.000000	126.000000
0.390000	61.290000	28.940000	519.000000	0.000000	134.000000	56.000000	325.000000	128.000000
0.400000	64.390000	29.840000	514.000000	0.000000	135.000000	57.000000	310.000000	90.000000
0.410000	66.980000	30.500000	499.000000	0.000000	138.000000	57.000000	259.000000	66.000000
0.420000	69.270000	31.070000	466.000000	0.000000	140.000000	56.000000	229.000000	57.000000
0.430000	71.360000	31.620000	366.000000	0.000000	144.000000	56.000000	209.000000	55.000000
0.440000	72.790000	32.160000	181.000000	0.000000	146.000000	55.000000	143.000000	54.000000
0.450000	72.790000	32.160000	0.000000	1.000000	147.000000	55.000000	0.000000	0.000000
0.460000	73.530000	32.590000	0.000000	0.000000	149.000000	55.000000	74.000000	43.000000
0.470000	72.360000	32.590000	0.000000	0.000000	150.000000	54.000000	-117.000000	0.000000
0.480000	70.530000	32.290000	0.000000	0.000000	150.000000	54.000000	-183.000000	-30.000000
0.490000	68.260000	31.680000	0.000000	0.000000	150.000000	54.000000	-227.000000	-61.000000
0.500000	65.600000	30.870000	0.000000	0.000000	150.000000	54.000000	-266.000000	-81.000000
0.510000	63.000000	30.620000	0.000000	0.000000	148.000000	54.000000	-260.000000	-25.000000
0.520000	60.720000	30.080000	0.000000	0.000000	146.000000	54.000000	-228.000000	-54.000000
0.530000	58.640000	29.350000	0.000000	0.000000	143.000000	53.000000	-208.000000	-73.000000
0.540000	56.870000	28.750000	0.000000	0.000000	141.000000	53.000000	-177.000000	-60.000000
0.550000	55.440000	28.130000	0.000000	0.000000	139.000000	54.000000	-143.000000	-62.000000
0.560000	54.230000	27.480000	0.000000	0.000000	137.000000	54.000000	-121.000000	-65.000000
0.570000	53.470000	26.990000	0.000000	0.000000	135.000000	54.000000	-76.000000	-49.000000
0.580000	53.320000	26.610000	0.000000	0.000000	134.000000	54.000000	-15.000000	-38.000000
0.590000	53.580000	26.370000	0.000000	0.000000	134.000000	54.000000	26.000000	-24.000000
0.600000	53.230000	26.130000	0.000000	0.000000	133.000000	54.000000	-35.000000	-24.000000
0.610000	53.230000	26.080000	0.000000	0.000000	133.000000	54.000000	0.000000	-5.000000
0.620000	53.510000	26.150000	0.000000	0.000000	133.000000	54.000000	28.000000	7.000000
0.630000	53.570000	26.250000	0.000000	0.000000	133.000000	54.000000	6.000000	10.000000
0.640000	53.570000	26.400000	0.000000	0.000000	130.000000	54.000000	0.000000	15.000000
0.650000	53.570000	26.580000	0.000000	0.000000	130.000000	54.000000	0.000000	18.000000
0.660000	53.570000	26.780000	0.000000	0.000000	129.000000	55.000000	0.000000	20.000000
0.670000	53.630000	27.010000	0.000000	0.000000	128.000000	54.000000	6.000000	23.000000
0.680000	53.820000	27.270000	0.000000	0.000000	126.000000	54.000000	19.000000	26.000000
0.690000	53.230000	27.560000	0.000000	0.000000	126.000000	54.000000	-59.000000	29.000000
0.700000	53.090000	27.890000	0.000000	0.000000	126.000000	54.000000	-14.000000	33.000000
0.710000	53.090000	27.890000	54.000000	1.000000	128.000000	54.000000	0.000000	0.000000
0.720000	53.330000	28.530000	78.000000	0.000000	128.000000	54.000000	24.000000	64.000000
0.730000	53.410000	28.680000	107.000000	0.000000	130.000000	54.000000	8.000000	15.000000
0.740000	53.490000	28.740000	172.000000	0.000000	130.000000	54.000000	8.000000	6.000000
0.750000	53.600000	28.740000	251.000000	0.000000	131.000000	54.000000	11.000000	0.000000
0.760000	53.660000	28.560000	299.000000	0.000000	131.000000	54.000000	6.000000	-18.000000
0.770000	53.660000	28.300000	373.000000	0.000000	131.000000	54.000000	0.000000	-26.000000
0.780000	53.710000	27.790000	391.000000	0.000000	133.000000	53.000000	5.000000	-51.000000
0.790000	53.710000	27.270000	388.000000	0.000000	131.000000	54.000000	0.000000	-52.000000
0.800000	53.710000	26.760000	391.000000	0.000000	131.000000	54.000000	0.000000	-51.000000
0.810000	53.710000	26.450000	228.000000	0.000000	131.000000	54.000000	0.000000	-31.000000
0.820000	53.710000	26.450000	0.000000	1.000000	130.000000	54.000000	0.000000	0.000000
0.830000	53.920000	26.260000	0.000000	0.000000	129.000000	55.000000	21.000000	-19.000000
0.840000	54.030000	26.670000	0.000000	0.000000	129.000000	55.000000	11.000000	41.000000
0.850000	54.110000	27.330000	0.000000	0.000000	127.000000	55.000000	8.000000	66.000000
0.860000	54.200000	28.090000	0.000000	0.000000	127.000000	55.000000	9.000000	76.000000
0.870000	54.310000	28.840000	0.000000	0.000000	127.000000	55.000000	11.000000	75.000000
0.880000	54.420000	29.580000	0.000000	0.000000	129.000000	55.000000	11.000000	74.000000
0.890000	54.600000	30.310000	0.000000	0.000000	129.000000	55.000000	18.000000	73.000000
0.900000	54.760000	30.500000	0.000000	0.000000	130.000000	54.000000	16.000000	19.000000
0.910000	54.760000	30.500000	242.000000	1.000000	131.000000	54.000000	0.000000	0.000000
0.920000	54.810000	30.820000	233.000000	0.000000	134.000000	54.000000	5.000000	32.000000
0.930000	54.530000	30.820000	237.000000	0.000000	135.000000	53.000000	-28.000000	0.000000
0.940000	54.440000	30.460000	232.000000	0.000000	135.000000	53.000000	-9.000000	-36.000000
0.950000	54.370000	29.950000	200.000000	0.000000	136.000000	52.000000	-7.000000	-51.000000
0.960000	54.320000	29.530000	141.000000	0.000000	136.000000	52.000000	-5.000000	-42.000000
0.970000	54.510000	29.180000	51.000000	0.000000	136.000000	52.000000	19.000000	-35.000000
0.980000	54.510000	29.180000	0.000000	1.000000	136.000000	52.000000	0.000000	0.000000
0.990000	55.190000	28.780000	0.000000	0.000000	136.000000	52.000000	68.000000	-40.000000
1.000000	55.480000	28.780000	0.000000	0.000000	136.000000	52.000000	29.000000	0.000000
1.010000	55.640000	28.960000	0.000000	0.000000	136.000000	52.000000	16.000000	18.000000
1.020000	55.700000	29.090000	0.000000	0.000000	136.000000	52.000000	6.000000	13.000000
1.030000	55.700000	29.090000	80.000000	1.000000	136.000000	52.000000	0.000000	0.000000
1.040000	55.350000	29.040000	146.000000	0.000000	136.000000	52.000000	-35.000000	-5.000000
1.050000	54.930000	28.770000	181.000000	0.000000	136.000000	52.000000	-42.000000	-27.000000
1.060000	54.590000	28.250000	216.000000	0.000000	135.000000	53.000000	-34.000000	-52.000000
1.070000	54.320000	27.720000	244.000000	0.000000	135.000000	53.000000	-27.000000	-53.000000
1.080000	54.170000	27.180000	250.000000	0.000000	135.000000	53.000000	-15.000000	-54.000000
1.090000	54.170000	26.860000	257.000000	0.000000	134.000000	54.000000	0.000000	-32.000000
1.100000	54.360000	26.680000	285.000000	0.000000	134.000000	54.000000	19.000000	-18.000000
1.110000	54.680000	26.680000	282.000000	0.000000	133.000000	54.000000	32.000000	0.000000
1.120000	55.100000	26.960000	281.000000	0.000000	131.000000	55.000000	42.000000	28.000000
1.130000	55.590000	27.500000	286.000000	0.000000	131.000000	55.000000	49.000000	54.000000
1.140000	56.020000	28.290000	291.000000	0.000000	131.000000	55.000000	43.000000	79.000000
1.150000	56.230000	29.060000	302.000000	0.000000	131.000000	55.000000	21.000000	77.000000
1.160000	56.290000	29.800000	314.000000	0.000000	131.000000	55.000000	6.000000	74.000000
1.170000	56.290000	30.530000	319.000000	0.000000	131.000000	55.000000	0.000000	73.000000
1.180000	56.290000	31.220000	351.000000	0.000000	133.000000	54.000000	0.000000	69.000000
1.190000	56.290000	31.550000	386.000000	0.000000	135.000000	54.000000	0.000000	33.000000
1.200000	56.290000	31.660000	387.000000	0.000000	136.000000	54.000000	0.000000	11.000000
1.210000	56.230000	31.660000	389.000000	0.000000	137.000000	53.000000	-6.000000	0.000000
1.220000	56.230000	31.160000	388.000000	0.000000	137.000000	53.000000	0.000000	-50.000000
1.230000	56.130000	30.420000	415.000000	0.000000	139.000000	52.000000	-10.000000	-74.000000
1.240000	55.970000	29.520000	418.000000	0.000000	139.000000	52.000000	-16.000000	-90.000000
1.250000	55.970000	28.620000	425.000000	0.000000	139.000000	52.000000	0.000000	-90.000000
1.260000	56.080000	28.060000	425.000000	0.000000	137.000000	53.000000	11.000000	-56.000000
1.270000	56.320000	27.730000	422.000000	0.000000	137.000000	53.000000	24.000000	-33.000000
1.280000	56.760000	27.630000	427.000000	0.000000	137.000000	53.000000	44.000000	-10.000000
1.290000	57.220000	27.810000	430.000000	0.000000	136.000000	54.000000	46.000000	18.000000
1.300000	57.530000	28.180000	440.000000	0.000000	136.000000	54.000000	31.000000	37.000000
1.310000	57.720000	28.650000	450.000000	0.000000	137.000000	54.000000	19.000000	47.000000
1.320000	57.770000	29.080000	475.000000	0.000000	137.000000	54.000000	5.000000	43.000000
1.330000	57.700000	29.420000	512.000000	0.000000	137.000000	54.000000	-7.000000	34.000000
1.340000	57.550000	29.520000	543.000000	0.000000	139.000000	55.000000	-15.000000	10.000000
1.350000	57.550000	29.470000	538.000000	0.000000	139.000000	55.000000	0.000000	-5.000000
1.360000	57.550000	29.380000	546.000000	0.000000	139.000000	55.000000	0.000000	-9.000000
1.370000	57.550000	29.140000	544.000000	0.000000	140.000000	54.000000	0.000000	-24.000000
1.380000	57.620000	28.790000	470.000000	0.000000	140.000000	54.000000	7.000000	-35.000000
1.390000	57.770000	28.580000	342.000000	0.000000	140.000000	54.000000	15.000000	-21.000000
1.400000	58.030000	28.440000	136.000000	0.000000	140.000000	54.000000	26.000000	-14.000000
1.410000	58.030000	28.440000	0.000000	1.000000	140.000000	54.000000	0.000000	0.000000
1.420000	58.620000	28.400000	0.000000	0.000000	139.000000	55.000000	59.000000	-4.000000
1.430000	58.860000	28.680000	0.000000	0.000000	139.000000	55.000000	24.000000	28.000000
1.440000	58.960000	29.120000	0.000000	0.000000	139.000000	55.000000	10.000000	44.000000
1.450000	59.020000	29.560000	0.000000	0.000000	139.000000	55.000000	6.000000	44.000000
1.460000	59.020000	29.960000	0.000000	0.000000	140.000000	55.000000	0.000000	40.000000
1.470000	59.020000	29.960000	187.000000	1.000000	140.000000	55.000000	0.000000	0.000000
1.480000	58.900000	30.390000	242.000000	0.000000	140.000000	55.000000	-12.000000	43.000000
1.490000	58.620000	30.390000	281.000000	0.000000	140.000000	55.000000	-28.000000	0.000000
1.500000	58.510000	30.310000	307.000000	0.000000	141.000000	55.000000	-11.000000	-8.000000
1.510000	58.420000	30.110000	324.000000	0.000000	141.000000	55.000000	-9.000000	-20.000000
1.520000	58.420000	29.870000	325.000000	0.000000	141.000000	55.000000	0.000000	-24.000000
1.530000	58.420000	29.620000	317.000000	0.000000	142.000000	54.000000	0.000000	-25.000000
1.540000	58.710000	29.460000	245.000000	0.000000	142.000000	54.000000	29.000000	-16.000000
1.550000	59.100000	29.370000	214.000000	0.000000	142.000000	54.000000	39.000000	-9.000000
1.560000	59.420000	29.370000	212.000000	0.000000	142.000000	54.000000	32.000000	0.000000
1.570000	59.570000	29.420000	228.000000	0.000000	142.000000	54.000000	15.000000	5.000000
1.580000	59.570000	29.470000	257.000000	0.000000	142.000000	54.000000	0.000000	5.000000
1.590000	59.520000	29.470000	310.000000	0.000000	144.000000	54.000000	-5.000000	0.000000
1.600000	59.350000	29.470000	344.000000	0.000000	144.000000	54.000000	-17.000000	0.000000
1.610000	59.130000	29.280000	369.000000	0.000000	144.000000	54.000000	-22.000000	-19.000000
1.620000	59.000000	29.070000	361.000000	0.000000	144.000000	54.000000	-13.000000	-21.000000
1.630000	58.920000	28.980000	366.000000	0.000000	144.000000	54.000000	-8.000000	-9.000000
1.640000	59.020000	28.880000	359.000000	0.000000	144.000000	54.000000	10.000000	-10.000000
1.650000	59.230000	28.880000	322.000000	0.000000	143.000000	55.000000	21.000000	0.000000
1.660000	59.630000	28.980000	267.000000	0.000000	143.000000	55.000000	40.000000	10.000000
1.670000	60.040000	29.190000	210.000000	0.000000	143.000000	55.000000	41.000000	21.000000
1.680000	60.430000	29.500000	184.000000	0.000000	143.000000	55.000000	39.000000	31.000000
1.690000	60.630000	29.870000	161.000000	0.000000	141.000000	55.000000	20.000000	37.000000
1.700000	60.720000	30.240000	160.000000	0.000000	141.000000	55.000000	9.000000	37.000000
1.710000	60.720000	30.740000	141.000000	0.000000	143.000000	55.000000	0.000000	50.000000
1.720000	60.720000	31.340000	120.000000	0.000000	143.000000	55.000000	0.000000	60.000000
1.730000	60.770000	32.170000	134.000000	0.000000	143.000000	55.000000	5.000000	83.000000
1.740000	60.770000	32.990000	191.000000	0.000000	144.000000	54.000000	0.000000	82.000000
1.750000	60.630000	33.450000	257.000000	0.000000	144.000000	54.000000	-14.000000	46.000000
1.760000	60.560000	33.660000	296.000000	0.000000	144.000000	54.000000	-7.000000	21.000000
1.770000	60.490000	33.590000	312.000000	0.000000	145.000000	55.000000	-7.000000	-7.000000
1.780000	60.440000	33.050000	334.000000	0.000000	145.000000	55.000000	-5.000000	-54.000000
1.790000	60.330000	32.200000	376.000000	0.000000	145.000000	55.000000	-11.000000	-85.000000
1.800000	60.170000	31.100000	418.000000	0.000000	145.000000	55.000000	-16.000000	-110.000000
1.810000	59.950000	29.790000	460.000000	0.000000	145.000000	55.000000	-22.000000	-131.000000
1.820000	59.670000	28.330000	477.000000	0.000000	145.000000	55.000000	-28.000000	-146.000000
1.830000	59.350000	26.700000	495.000000	0.000000	144.000000	56.000000	-32.000000	-163.000000
1.840000	59.160000	25.220000	491.000000	0.000000	144.000000	56.000000	-19.000000	-148.000000
1.850000	58.960000	24.090000	491.000000	0.000000	143.000000	56.000000	-20.000000	-113.000000
1.860000	58.740000	23.150000	493.000000	0.000000	142.000000	57.000000	-22.000000	-94.000000
1.870000	58.510000	22.660000	464.000000	0.000000	139.000000	57.000000	-23.000000	-49.000000
1.880000	58.510000	22.660000	373.000000	0.000000	138.000000	58.000000	0.000000	0.000000
1.890000	58.510000	22.900000	172.000000	0.000000	135.000000	58.000000	0.000000	24.000000
1.900000	58.510000	22.900000	0.000000	1.000000	134.000000	58.000000	0.000000	0.000000
1.910000	59.180000	25.070000	0.000000	0.000000	132.000000	59.000000	67.000000	217.000000
1.920000	59.640000	26.570000	0.000000	0.000000	131.000000	58.000000	46.000000	150.000000
1.930000	60.080000	27.970000	0.000000	0.000000	132.000000	59.000000	44.000000	140.000000
1.940000	60.480000	28.830000	0.000000	0.000000	134.000000	58.000000	40.000000	86.000000
1.950000	60.480000	28.830000	63.000000	1.000000	134.000000	58.000000	0.000000	0.000000
1.960000	61.120000	29.640000	139.000000	0.000000	135.000000	58.000000	64.000000	81.000000
1.970000	61.240000	29.900000	170.000000	0.000000	136.000000	57.000000	12.000000	26.000000
1.980000	61.340000	30.040000	277.000000	0.000000	138.000000	57.000000	10.000000	14.000000
1.990000	61.340000	30.040000	334.000000	0.000000	139.000000	56.000000	0.000000	0.000000
2.000000	61.210000	30.040000	377.000000	0.000000	140.000000	55.000000	-13.000000	0.000000
2.010000	60.930000	29.760000	392.000000	0.000000	140.000000	55.000000	-28.000000	-28.000000
2.020000	60.670000	29.320000	402.000000	0.000000	141.000000	55.000000	-26.000000	-44.000000
2.030000	60.420000	28.940000	394.000000	0.000000	141.000000	55.000000	-25.000000	-38.000000
2.040000	60.540000	28.740000	373.000000	0.000000	141.000000	55.000000	12.000000	-20.000000
2.050000	60.710000	28.650000	349.000000	0.000000	141.000000	55.000000	17.000000	-9.000000
2.060000	61.000000	28.770000	330.000000	0.000000	141.000000	55.000000	29.000000	12.000000
2.070000	61.340000	29.020000	314.000000	0.000000	141.000000	55.000000	34.000000	25.000000
2.080000	61.630000	29.370000	314.000000	0.000000	141.000000	55.000000	29.000000	35.000000
2.090000	61.770000	29.770000	316.000000	0.000000	141.000000	55.000000	14.000000	40.000000
2.100000	61.830000	30.180000	315.000000	0.000000	141.000000	55.000000	6.000000	41.000000
2.110000	61.830000	30.600000	314.000000	0.000000	140.000000	54.000000	0.000000	42.000000
2.120000	61.830000	30.710000	341.000000	0.000000	140.000000	54.000000	0.000000	11.000000
2.130000	61.830000	30.770000	341.000000	0.000000	140.000000	54.000000	0.000000	6.000000
2.140000	61.830000	30.770000	354.000000	0.000000	140.000000	54.000000	0.000000	0.000000
2.150000	61.830000	30.510000	361.000000	0.000000	140.000000	54.000000	0.000000	-26.000000
2.160000	61.830000	30.150000	368.000000	0.000000	140.000000	54.000000	0.000000	-36.000000
2.170000	61.830000	29.840000	371.000000	0.000000	140.000000	54.000000	0.000000	-31.000000
2.180000	61.940000	29.680000	362.000000	0.000000	140.000000	54.000000	11.000000	-16.000000
2.190000	62.100000	29.610000	373.000000	0.000000	140.000000	54.000000	16.000000	-7.000000
2.200000	62.350000	29.680000	367.000000	0.000000	139.000000	54.000000	25.000000	7.000000
2.210000	62.650000	29.910000	369.000000	0.000000	139.000000	54.000000	30.000000	23.000000
