t	x	y	pressure	penup	azimuth	inclination	v_x	v_y
0.000000	51.910000	48.940000	168.000000	1.000000	133.000000	54.000000	0.000000	0.000000
0.010000	52.580000	49.000000	165.000000	0.000000	134.000000	55.000000	67.000000	6.000000
0.020000	52.700000	49.120000	155.000000	0.000000	134.000000	55.000000	12.000000	12.000000
0.030000	52.700000	49.040000	168.000000	0.000000	136.000000	55.000000	0.000000	-8.000000
0.040000	53.180000	49.120000	182.000000	0.000000	136.000000	55.000000	48.000000	8.000000
0.050000	53.850000	49.320000	178.000000	0.000000	138.000000	55.000000	67.000000	20.000000
0.060000	54.650000	49.620000	200.000000	0.000000	139.000000	55.000000	80.000000	30.000000
0.070000	55.570000	50.020000	214.000000	0.000000	140.000000	55.000000	92.000000	40.000000
0.080000	56.430000	50.490000	226.000000	0.000000	141.000000	55.000000	86.000000	47.000000
0.090000	56.900000	50.840000	244.000000	0.000000	143.000000	55.000000	47.000000	35.000000
0.100000	57.130000	51.170000	304.000000	0.000000	143.000000	55.000000	23.000000	33.000000
0.110000	57.060000	51.470000	319.000000	0.000000	144.000000	54.000000	-7.000000	30.000000
0.120000	56.650000	51.770000	339.000000	0.000000	145.000000	55.000000	-41.000000	30.000000
0.130000	56.000000	51.890000	371.000000	0.000000	145.000000	55.000000	-65.000000	12.000000
0.140000	55.110000	51.890000	402.000000	0.000000	146.000000	54.000000	-89.000000	0.000000
0.150000	54.260000	51.740000	428.000000	0.000000	146.000000	54.000000	-85.000000	-15.000000
0.160000	53.440000	51.460000	438.000000	0.000000	146.000000	54.000000	-82.000000	-28.000000
0.170000	52.980000	51.110000	433.000000	0.000000	146.000000	53.000000	-46.000000	-35.000000
0.180000	52.880000	50.740000	420.000000	0.000000	146.000000	53.000000	-10.000000	-37.000000
0.190000	53.020000	50.130000	404.000000	0.000000	146.000000	53.000000	14.000000	-61.000000
0.200000	53.320000	49.360000	396.000000	0.000000	145.000000	54.000000	30.000000	-77.000000
0.210000	53.770000	48.770000	399.000000	0.000000	145.000000	54.000000	45.000000	-59.000000
0.220000	54.330000	48.300000	398.000000	0.000000	145.000000	54.000000	56.000000	-47.000000
0.230000	54.820000	47.900000	391.000000	0.000000	144.000000	54.000000	49.000000	-40.000000
0.240000	54.920000	47.550000	386.000000	0.000000	145.000000	55.000000	10.000000	-35.000000
0.250000	54.760000	47.280000	382.000000	0.000000	144.000000	56.000000	-16.000000	-27.000000
0.260000	54.030000	47.070000	388.000000	0.000000	144.000000	56.000000	-73.000000	-21.000000
0.270000	52.740000	46.780000	394.000000	0.000000	143.000000	56.000000	-129.000000	-29.000000
0.280000	51.070000	46.450000	443.000000	0.000000	144.000000	57.000000	-167.000000	-33.000000
0.290000	49.190000	46.060000	468.000000	0.000000	143.000000	57.000000	-188.000000	-39.000000
0.300000	47.360000	45.670000	509.000000	0.000000	143.000000	57.000000	-183.000000	-39.000000
0.310000	45.850000	45.290000	519.000000	0.000000	142.000000	58.000000	-151.000000	-38.000000
0.320000	44.530000	44.880000	535.000000	0.000000	140.000000	58.000000	-132.000000	-41.000000
0.330000	44.010000	44.730000	540.000000	0.000000	138.000000	58.000000	-52.000000	-15.000000
0.340000	44.440000	44.730000	550.000000	0.000000	138.000000	58.000000	43.000000	0.000000
0.350000	45.500000	45.120000	568.000000	0.000000	138.000000	58.000000	106.000000	39.000000
0.360000	48.210000	45.970000	581.000000	0.000000	136.000000	57.000000	271.000000	85.000000
0.370000	51.840000	47.130000	603.000000	0.000000	136.000000	57.000000	363.000000	116.000000
0.380000	56.070000	48.640000	617.000000	0.000000	138.000000	58.000000	423.000000	151.000000
0.390000	60.850000	50.090000	611.000000	0.000000	140.000000	58.000000	478.000000	145.000000
0.400000	65.550000	51.490000	613.000000	0.000000	143.000000	57.000000	470.000000	140.000000
0.410000	70.190000	52.500000	581.000000	0.000000	147.000000	58.000000	464.000000	101.000000
0.420000	74.110000	53.320000	468.000000	0.000000	151.000000	58.000000	392.000000	82.000000
0.430000	77.070000	54.020000	193.000000	0.000000	155.000000	58.000000	296.000000	70.000000
0.440000	77.070000	54.020000	0.000000	1.000000	158.000000	58.000000	0.000000	0.000000
0.450000	80.230000	54.550000	0.000000	0.000000	161.000000	57.000000	316.000000	53.000000
0.460000	79.490000	54.550000	0.000000	0.000000	163.000000	57.000000	-74.000000	0.000000
0.470000	77.690000	54.270000	0.000000	0.000000	164.000000	57.000000	-180.000000	-28.000000
0.480000	75.530000	53.840000	0.000000	0.000000	166.000000	56.000000	-216.000000	-43.000000
0.490000	72.910000	53.310000	0.000000	0.000000	166.000000	56.000000	-262.000000	-53.000000
0.500000	69.980000	52.690000	0.000000	0.000000	165.000000	56.000000	-293.000000	-62.000000
0.510000	66.890000	51.890000	0.000000	0.000000	164.000000	55.000000	-309.000000	-80.000000
0.520000	64.040000	50.970000	0.000000	0.000000	161.000000	55.000000	-285.000000	-92.000000
0.530000	61.350000	50.410000	0.000000	0.000000	158.000000	55.000000	-269.000000	-56.000000
0.540000	59.050000	49.730000	0.000000	0.000000	153.000000	54.000000	-230.000000	-68.000000
0.550000	57.050000	48.870000	0.000000	0.000000	150.000000	54.000000	-200.000000	-86.000000
0.560000	55.260000	48.200000	0.000000	0.000000	146.000000	54.000000	-179.000000	-67.000000
0.570000	54.190000	47.630000	0.000000	0.000000	144.000000	54.000000	-107.000000	-57.000000
0.580000	53.810000	47.320000	0.000000	0.000000	141.000000	55.000000	-38.000000	-31.000000
0.590000	53.900000	47.370000	0.000000	0.000000	140.000000	55.000000	9.000000	5.000000
0.600000	54.270000	47.660000	0.000000	0.000000	140.000000	55.000000	37.000000	29.000000
0.610000	54.760000	48.060000	0.000000	0.000000	140.000000	55.000000	49.000000	40.000000
0.620000	55.330000	48.450000	0.000000	0.000000	140.000000	55.000000	57.000000	39.000000
0.630000	55.920000	48.830000	0.000000	0.000000	141.000000	56.000000	59.000000	38.000000
0.640000	56.520000	49.240000	0.000000	0.000000	143.000000	56.000000	60.000000	41.000000
0.650000	56.920000	49.550000	0.000000	0.000000	144.000000	57.000000	40.000000	31.000000
0.660000	57.180000	49.800000	0.000000	0.000000	144.000000	57.000000	26.000000	25.000000
0.670000	57.180000	50.000000	0.000000	0.000000	146.000000	57.000000	0.000000	20.000000
0.680000	57.110000	50.180000	0.000000	0.000000	146.000000	57.000000	-7.000000	18.000000
0.690000	56.980000	50.340000	0.000000	0.000000	147.000000	58.000000	-13.000000	16.000000
0.700000	56.980000	50.480000	0.000000	0.000000	148.000000	57.000000	0.000000	14.000000
0.710000	56.980000	50.610000	0.000000	0.000000	148.000000	57.000000	0.000000	13.000000
0.720000	57.030000	50.720000	0.000000	0.000000	148.000000	57.000000	5.000000	11.000000
0.730000	57.030000	50.720000	141.000000	1.000000	149.000000	56.000000	0.000000	0.000000
0.740000	57.090000	50.970000	161.000000	0.000000	149.000000	56.000000	6.000000	25.000000
0.750000	56.960000	50.970000	193.000000	0.000000	148.000000	56.000000	-13.000000	0.000000
0.760000	56.960000	50.970000	244.000000	0.000000	149.000000	55.000000	0.000000	0.000000
0.770000	56.960000	50.810000	305.000000	0.000000	149.000000	55.000000	0.000000	-16.000000
0.780000	56.960000	50.610000	371.000000	0.000000	149.000000	55.000000	0.000000	-20.000000
0.790000	56.960000	50.320000	371.000000	0.000000	149.000000	55.000000	0.000000	-29.000000
0.800000	57.010000	49.970000	361.000000	0.000000	149.000000	55.000000	5.000000	-35.000000
0.810000	57.010000	49.620000	246.000000	0.000000	149.000000	55.000000	0.000000	-35.000000
0.820000	57.010000	49.620000	0.000000	1.000000	147.000000	55.000000	0.000000	0.000000
0.830000	57.010000	49.220000	0.000000	0.000000	146.000000	55.000000	0.000000	-40.000000
0.840000	57.100000	49.280000	0.000000	0.000000	146.000000	55.000000	9.000000	6.000000
0.850000	57.170000	49.710000	0.000000	0.000000	148.000000	56.000000	7.000000	43.000000
0.860000	57.260000	50.170000	0.000000	0.000000	148.000000	56.000000	9.000000	46.000000
0.870000	57.450000	50.660000	0.000000	0.000000	148.000000	56.000000	19.000000	49.000000
0.880000	57.700000	51.170000	0.000000	0.000000	148.000000	56.000000	25.000000	51.000000
0.890000	57.910000	51.650000	0.000000	0.000000	148.000000	56.000000	21.000000	48.000000
0.900000	58.040000	52.070000	0.000000	0.000000	148.000000	56.000000	13.000000	42.000000
0.910000	58.040000	52.070000	36.000000	1.000000	149.000000	55.000000	0.000000	0.000000
0.920000	58.040000	52.070000	312.000000	0.000000	149.000000	55.000000	0.000000	0.000000
0.930000	57.790000	52.570000	315.000000	0.000000	149.000000	55.000000	-25.000000	50.000000
0.940000	57.500000	52.780000	305.000000	0.000000	150.000000	54.000000	-29.000000	21.000000
0.950000	57.420000	52.660000	233.000000	0.000000	150.000000	54.000000	-8.000000	-12.000000
0.960000	57.480000	52.590000	188.000000	0.000000	150.000000	54.000000	6.000000	-7.000000
0.970000	57.630000	52.490000	90.000000	0.000000	150.000000	54.000000	15.000000	-10.000000
0.980000	57.630000	52.490000	0.000000	1.000000	151.000000	53.000000	0.000000	0.000000
0.990000	58.270000	52.040000	0.000000	0.000000	151.000000	53.000000	64.000000	-45.000000
1.000000	58.600000	51.840000	0.000000	0.000000	152.000000	54.000000	33.000000	-20.000000
1.010000	58.710000	51.650000	0.000000	0.000000	152.000000	54.000000	11.000000	-19.000000
1.020000	58.710000	51.650000	89.000000	1.000000	152.000000	54.000000	0.000000	0.000000
1.030000	58.420000	51.180000	146.000000	0.000000	151.000000	54.000000	-29.000000	-47.000000
1.040000	58.170000	50.860000	195.000000	0.000000	151.000000	54.000000	-25.000000	-32.000000
1.050000	57.900000	50.480000	250.000000	0.000000	151.000000	54.000000	-27.000000	-38.000000
1.060000	57.620000	50.080000	265.000000	0.000000	151.000000	54.000000	-28.000000	-40.000000
1.070000	57.620000	49.880000	267.000000	0.000000	151.000000	54.000000	0.000000	-20.000000
1.080000	57.700000	49.820000	274.000000	0.000000	150.000000	55.000000	8.000000	-6.000000
1.090000	57.990000	49.890000	281.000000	0.000000	150.000000	55.000000	29.000000	7.000000
1.100000	58.420000	50.230000	286.000000	0.000000	150.000000	55.000000	43.000000	34.000000
1.110000	58.860000	50.740000	289.000000	0.000000	150.000000	55.000000	44.000000	51.000000
1.120000	59.200000	51.320000	299.000000	0.000000	150.000000	55.000000	34.000000	58.000000
1.130000	59.470000	51.900000	302.000000	0.000000	152.000000	56.000000	27.000000	58.000000
1.140000	59.580000	52.510000	311.000000	0.000000	152.000000	56.000000	11.000000	61.000000
1.150000	59.580000	53.150000	358.000000	0.000000	152.000000	56.000000	0.000000	64.000000
1.160000	59.580000	53.460000	399.000000	0.000000	154.000000	55.000000	0.000000	31.000000
1.170000	59.580000	53.530000	399.000000	0.000000	154.000000	55.000000	0.000000	7.000000
1.180000	59.520000	53.440000	404.000000	0.000000	155.000000	55.000000	-6.000000	-9.000000
1.190000	59.430000	53.070000	420.000000	0.000000	155.000000	55.000000	-9.000000	-37.000000
1.200000	59.300000	52.450000	415.000000	0.000000	155.000000	55.000000	-13.000000	-62.000000
1.210000	59.140000	51.660000	423.000000	0.000000	156.000000	55.000000	-16.000000	-79.000000
1.220000	59.050000	50.930000	414.000000	0.000000	156.000000	55.000000	-9.000000	-73.000000
1.230000	59.190000	50.530000	425.000000	0.000000	156.000000	55.000000	14.000000	-40.000000
1.240000	59.460000	50.360000	430.000000	0.000000	156.000000	55.000000	27.000000	-17.000000
1.250000	59.790000	50.290000	438.000000	0.000000	154.000000	55.000000	33.000000	-7.000000
1.260000	60.140000	50.510000	435.000000	0.000000	154.000000	55.000000	35.000000	22.000000
1.270000	60.490000	50.930000	438.000000	0.000000	154.000000	55.000000	35.000000	42.000000
1.280000	60.750000	51.480000	441.000000	0.000000	153.000000	55.000000	26.000000	55.000000
1.290000	60.950000	51.990000	440.000000	0.000000	154.000000	55.000000	20.000000	51.000000
1.300000	61.020000	52.220000	473.000000	0.000000	154.000000	55.000000	7.000000	23.000000
1.310000	61.020000	52.280000	473.000000	0.000000	154.000000	55.000000	0.000000	6.000000
1.320000	61.020000	52.220000	486.000000	0.000000	154.000000	55.000000	0.000000	-6.000000
1.330000	60.890000	51.870000	495.000000	0.000000	155.000000	54.000000	-13.000000	-35.000000
1.340000	60.800000	51.340000	486.000000	0.000000	155.000000	54.000000	-9.000000	-53.000000
1.350000	60.710000	50.970000	472.000000	0.000000	155.000000	54.000000	-9.000000	-37.000000
1.360000	60.920000	50.690000	427.000000	0.000000	155.000000	54.000000	21.000000	-28.000000
1.370000	61.280000	50.470000	334.000000	0.000000	154.000000	55.000000	36.000000	-22.000000
1.380000	61.740000	50.470000	245.000000	0.000000	154.000000	55.000000	46.000000	0.000000
1.390000	62.530000	50.560000	202.000000	0.000000	153.000000	55.000000	79.000000	9.000000
1.400000	62.770000	50.800000	132.000000	0.000000	153.000000	55.000000	24.000000	24.000000
1.410000	62.640000	51.080000	108.000000	0.000000	153.000000	55.000000	-13.000000	28.000000
1.420000	62.530000	51.440000	47.000000	0.000000	151.000000	54.000000	-11.000000	36.000000
1.430000	62.350000	51.860000	53.000000	0.000000	151.000000	54.000000	-18.000000	42.000000
1.440000	62.110000	52.170000	55.000000	0.000000	151.000000	54.000000	-24.000000	31.000000
1.450000	61.900000	52.440000	88.000000	0.000000	151.000000	54.000000	-21.000000	27.000000
1.460000	61.730000	52.620000	117.000000	0.000000	153.000000	55.000000	-17.000000	18.000000
1.470000	61.640000	52.710000	158.000000	0.000000	153.000000	55.000000	-9.000000	9.000000
1.480000	61.640000	52.710000	172.000000	0.000000	153.000000	55.000000	0.000000	0.000000
1.490000	61.590000	52.710000	184.000000	0.000000	153.000000	54.000000	-5.000000	0.000000
1.500000	61.590000	52.580000	173.000000	0.000000	153.000000	54.000000	0.000000	-13.000000
1.510000	61.730000	52.450000	180.000000	0.000000	153.000000	54.000000	14.000000	-13.000000
1.520000	61.890000	52.320000	83.000000	0.000000	153.000000	54.000000	16.000000	-13.000000
1.530000	61.890000	52.320000	0.000000	1.000000	153.000000	54.000000	0.000000	0.000000
1.540000	62.720000	52.100000	0.000000	0.000000	153.000000	54.000000	83.000000	-22.000000
1.550000	63.050000	52.100000	0.000000	0.000000	153.000000	54.000000	33.000000	0.000000
1.560000	63.300000	52.100000	0.000000	0.000000	153.000000	54.000000	25.000000	0.000000
1.570000	63.490000	52.100000	0.000000	0.000000	152.000000	54.000000	19.000000	0.000000
1.580000	63.650000	52.100000	0.000000	0.000000	152.000000	54.000000	16.000000	0.000000
1.590000	63.650000	52.100000	119.000000	1.000000	152.000000	54.000000	0.000000	0.000000
1.600000	63.240000	51.940000	170.000000	0.000000	152.000000	54.000000	-41.000000	-16.000000
1.610000	62.850000	51.870000	232.000000	0.000000	151.000000	53.000000	-39.000000	-7.000000
1.620000	62.490000	51.690000	274.000000	0.000000	151.000000	53.000000	-36.000000	-18.000000
1.630000	62.200000	51.480000	342.000000	0.000000	152.000000	54.000000	-29.000000	-21.000000
1.640000	61.990000	51.200000	337.000000	0.000000	151.000000	54.000000	-21.000000	-28.000000
1.650000	62.080000	51.020000	344.000000	0.000000	151.000000	54.000000	9.000000	-18.000000
1.660000	62.350000	50.910000	341.000000	0.000000	151.000000	54.000000	27.000000	-11.000000
1.670000	62.890000	50.910000	333.000000	0.000000	151.000000	54.000000	54.000000	0.000000
1.680000	63.440000	51.010000	337.000000	0.000000	151.000000	54.000000	55.000000	10.000000
1.690000	63.980000	51.240000	335.000000	0.000000	151.000000	54.000000	54.000000	23.000000
1.700000	64.260000	51.420000	337.000000	0.000000	151.000000	54.000000	28.000000	18.000000
1.710000	64.400000	51.420000	339.000000	0.000000	150.000000	54.000000	14.000000	0.000000
1.720000	64.400000	51.420000	339.000000	0.000000	150.000000	54.000000	0.000000	0.000000
1.730000	64.330000	51.290000	302.000000	0.000000	150.000000	54.000000	-7.000000	-13.000000
1.740000	64.260000	51.160000	186.000000	0.000000	150.000000	54.000000	-7.000000	-13.000000
1.750000	64.260000	51.160000	0.000000	1.000000	150.000000	54.000000	0.000000	0.000000
1.760000	64.370000	51.020000	0.000000	0.000000	150.000000	54.000000	11.000000	-14.000000
1.770000	64.480000	51.100000	0.000000	0.000000	150.000000	54.000000	11.000000	8.000000
1.780000	64.610000	51.440000	0.000000	0.000000	150.000000	54.000000	13.000000	34.000000
1.790000	64.770000	51.910000	0.000000	0.000000	150.000000	54.000000	16.000000	47.000000
1.800000	64.970000	52.460000	0.000000	0.000000	150.000000	54.000000	20.000000	55.000000
1.810000	65.170000	53.250000	0.000000	0.000000	151.000000	54.000000	20.000000	79.000000
1.820000	65.360000	54.260000	0.000000	0.000000	151.000000	54.000000	19.000000	101.000000
1.830000	65.550000	55.430000	0.000000	0.000000	151.000000	54.000000	19.000000	117.000000
1.840000	65.550000	55.430000	186.000000	1.000000	151.000000	54.000000	0.000000	0.000000
1.850000	65.570000	56.380000	225.000000	0.000000	151.000000	54.000000	2.000000	95.000000
1.860000	65.390000	56.460000	239.000000	0.000000	151.000000	54.000000	-18.000000	8.000000
1.870000	65.300000	56.290000	259.000000	0.000000	151.000000	54.000000	-9.000000	-17.000000
1.880000	65.190000	55.680000	312.000000	0.000000	150.000000	55.000000	-11.000000	-61.000000
1.890000	65.030000	54.790000	391.000000	0.000000	150.000000	55.000000	-16.000000	-89.000000
1.900000	64.830000	53.580000	425.000000	0.000000	150.000000	55.000000	-20.000000	-121.000000
1.910000	64.700000	52.170000	443.000000	0.000000	150.000000	55.000000	-13.000000	-141.000000
1.920000	64.530000	50.640000	439.000000	0.000000	150.000000	55.000000	-17.000000	-153.000000
1.930000	64.330000	49.060000	455.000000	0.000000	150.000000	55.000000	-20.000000	-158.000000
1.940000	64.120000	47.850000	450.000000	0.000000	150.000000	55.000000	-21.000000	-121.000000
1.950000	63.950000	46.880000	450.000000	0.000000	150.000000	55.000000	-17.000000	-97.000000
1.960000	63.770000	46.500000	425.000000	0.000000	149.000000	56.000000	-18.000000	-38.000000
1.970000	63.600000	46.450000	255.000000	0.000000	147.000000	56.000000	-17.000000	-5.000000
1.980000	63.460000	46.630000	67.000000	0.000000	146.000000	57.000000	-14.000000	18.000000
1.990000	63.460000	46.630000	0.000000	1.000000	146.000000	57.000000	0.000000	0.000000
2.000000	63.600000	48.120000	0.000000	0.000000	143.000000	57.000000	14.000000	149.000000
2.010000	64.050000	49.160000	0.000000	0.000000	143.000000	57.000000	45.000000	104.000000
2.020000	64.600000	49.920000	0.000000	0.000000	144.000000	58.000000	55.000000	76.000000
2.030000	65.140000	50.620000	0.000000	0.000000	144.000000	58.000000	54.000000	70.000000
2.040000	65.140000	50.620000	3.000000	0.000000	146.000000	57.000000	0.000000	0.000000
2.050000	66.140000	51.770000	48.000000	1.000000	148.000000	57.000000	0.000000	0.000000
2.060000	66.440000	52.290000	99.000000	0.000000	149.000000	56.000000	30.000000	52.000000
2.070000	66.620000	52.780000	182.000000	0.000000	150.000000	55.000000	18.000000	49.000000
2.080000	66.690000	53.000000	277.000000	0.000000	153.000000	55.000000	7.000000	22.000000
2.090000	66.610000	53.060000	363.000000	0.000000	153.000000	55.000000	-8.000000	6.000000
2.100000	66.420000	53.060000	422.000000	0.000000	153.000000	55.000000	-19.000000	0.000000
2.110000	66.190000	53.010000	446.000000	0.000000	153.000000	54.000000	-23.000000	-5.000000
2.120000	65.890000	52.750000	446.000000	0.000000	153.000000	54.000000	-30.000000	-26.000000
2.130000	65.550000	52.340000	439.000000	0.000000	152.000000	54.000000	-34.000000	-41.000000
2.140000	65.350000	51.980000	448.000000	0.000000	152.000000	54.000000	-20.000000	-36.000000
2.150000	65.350000	51.700000	414.000000	0.000000	152.000000	54.000000	0.000000	-28.000000
2.160000	65.490000	51.480000	382.000000	0.000000	152.000000	54.000000	14.000000	-22.000000
2.170000	65.790000	51.410000	353.000000	0.000000	151.000000	53.000000	30.000000	-7.000000
2.180000	66.140000	51.520000	330.000000	0.000000	150.000000	54.000000	35.000000	11.000000
2.190000	66.480000	51.760000	305.000000	0.000000	150.000000	54.000000	34.000000	24.000000
2.200000	66.810000	52.110000	307.000000	0.000000	150.000000	54.000000	33.000000	35.000000
2.210000	67.030000	52.470000	304.000000	0.000000	150.000000	54.000000	22.000000	36.000000
