t	x	y	pressure	penup	azimuth	inclination	v_x	v_y
0.000000	13.290000	34.320000	20.000000	1.000000	312.000000	61.000000	0.000000	0.000000
0.010000	14.230000	34.490000	34.000000	0.000000	312.000000	61.000000	94.000000	17.000000
0.020000	14.850000	34.780000	49.000000	0.000000	312.000000	61.000000	62.000000	29.000000
0.030000	15.520000	35.190000	55.000000	0.000000	311.000000	61.000000	67.000000	41.000000
0.040000	16.190000	35.860000	56.000000	0.000000	309.000000	60.000000	67.000000	67.000000
0.050000	16.840000	36.730000	80.000000	0.000000	309.000000	60.000000	65.000000	87.000000
0.060000	17.260000	37.730000	88.000000	0.000000	306.000000	60.000000	42.000000	100.000000
0.070000	17.520000	38.550000	91.000000	0.000000	305.000000	59.000000	26.000000	82.000000
0.080000	17.520000	39.140000	91.000000	0.000000	305.000000	59.000000	0.000000	59.000000
0.090000	17.260000	39.580000	96.000000	0.000000	303.000000	59.000000	-26.000000	44.000000
0.100000	16.930000	39.760000	101.000000	0.000000	303.000000	59.000000	-33.000000	18.000000
0.110000	16.610000	39.760000	95.000000	0.000000	303.000000	59.000000	-32.000000	0.000000
0.120000	16.250000	39.760000	112.000000	0.000000	301.000000	58.000000	-36.000000	0.000000
0.130000	15.810000	39.590000	146.000000	0.000000	301.000000	58.000000	-44.000000	-17.000000
0.140000	15.440000	39.390000	160.000000	0.000000	300.000000	58.000000	-37.000000	-20.000000
0.150000	15.100000	39.150000	173.000000	0.000000	301.000000	59.000000	-34.000000	-24.000000
0.160000	14.720000	38.800000	178.000000	0.000000	301.000000	59.000000	-38.000000	-35.000000
0.170000	14.390000	38.300000	186.000000	0.000000	301.000000	59.000000	-33.000000	-50.000000
0.180000	14.090000	37.690000	193.000000	0.000000	302.000000	60.000000	-30.000000	-61.000000
0.190000	13.820000	36.860000	203.000000	0.000000	303.000000	61.000000	-27.000000	-83.000000
0.200000	13.550000	35.910000	206.000000	0.000000	304.000000	62.000000	-27.000000	-95.000000
0.210000	13.320000	34.890000	213.000000	0.000000	306.000000	62.000000	-23.000000	-102.000000
0.220000	13.120000	33.850000	220.000000	0.000000	307.000000	63.000000	-20.000000	-104.000000
0.230000	13.000000	32.820000	222.000000	0.000000	309.000000	63.000000	-12.000000	-103.000000
0.240000	12.870000	31.830000	215.000000	0.000000	309.000000	63.000000	-13.000000	-99.000000
0.250000	12.720000	30.850000	210.000000	0.000000	310.000000	62.000000	-15.000000	-98.000000
0.260000	12.550000	29.960000	202.000000	0.000000	312.000000	61.000000	-17.000000	-89.000000
0.270000	12.350000	29.190000	180.000000	0.000000	312.000000	61.000000	-20.000000	-77.000000
0.280000	12.080000	28.510000	180.000000	0.000000	312.000000	61.000000	-27.000000	-68.000000
0.290000	11.770000	27.950000	153.000000	0.000000	314.000000	61.000000	-31.000000	-56.000000
0.300000	11.410000	27.500000	155.000000	0.000000	312.000000	60.000000	-36.000000	-45.000000
0.310000	11.040000	27.160000	139.000000	0.000000	312.000000	60.000000	-37.000000	-34.000000
0.320000	10.660000	27.010000	130.000000	0.000000	312.000000	60.000000	-38.000000	-15.000000
0.330000	10.190000	27.010000	108.000000	0.000000	311.000000	60.000000	-47.000000	0.000000
0.340000	9.750000	27.140000	99.000000	0.000000	311.000000	60.000000	-44.000000	13.000000
0.350000	9.350000	27.370000	101.000000	0.000000	309.000000	59.000000	-40.000000	23.000000
0.360000	8.960000	27.660000	103.000000	0.000000	309.000000	59.000000	-39.000000	29.000000
0.370000	8.640000	27.960000	104.000000	0.000000	308.000000	58.000000	-32.000000	30.000000
0.380000	8.370000	28.260000	108.000000	0.000000	308.000000	58.000000	-27.000000	30.000000
0.390000	8.150000	28.500000	103.000000	0.000000	307.000000	57.000000	-22.000000	24.000000
0.400000	8.050000	28.700000	134.000000	0.000000	306.000000	58.000000	-10.000000	20.000000
0.410000	8.050000	28.850000	185.000000	0.000000	306.000000	58.000000	0.000000	15.000000
0.420000	8.200000	28.970000	220.000000	0.000000	304.000000	57.000000	15.000000	12.000000
0.430000	8.520000	29.060000	253.000000	0.000000	304.000000	57.000000	32.000000	9.000000
0.440000	8.940000	29.150000	301.000000	0.000000	306.000000	58.000000	42.000000	9.000000
0.450000	9.510000	29.210000	341.000000	0.000000	307.000000	57.000000	57.000000	6.000000
0.460000	10.240000	29.260000	366.000000	0.000000	308.000000	58.000000	73.000000	5.000000
0.470000	11.080000	29.260000	367.000000	0.000000	308.000000	58.000000	84.000000	0.000000
0.480000	12.320000	29.350000	372.000000	0.000000	309.000000	59.000000	124.000000	9.000000
0.490000	13.730000	29.460000	367.000000	0.000000	309.000000	59.000000	141.000000	11.000000
0.500000	15.240000	29.560000	367.000000	0.000000	311.000000	60.000000	151.000000	10.000000
0.510000	16.870000	29.670000	377.000000	0.000000	311.000000	60.000000	163.000000	11.000000
0.520000	18.530000	29.820000	381.000000	0.000000	309.000000	59.000000	166.000000	15.000000
0.530000	20.210000	30.030000	379.000000	0.000000	309.000000	59.000000	168.000000	21.000000
0.540000	21.990000	30.410000	379.000000	0.000000	309.000000	59.000000	178.000000	38.000000
0.550000	23.700000	30.910000	351.000000	0.000000	309.000000	59.000000	171.000000	50.000000
0.560000	25.350000	31.260000	341.000000	0.000000	308.000000	58.000000	165.000000	35.000000
0.570000	26.970000	31.650000	337.000000	0.000000	308.000000	58.000000	162.000000	39.000000
0.580000	28.490000	31.910000	315.000000	0.000000	308.000000	58.000000	152.000000	26.000000
0.590000	29.950000	32.070000	285.000000	0.000000	308.000000	58.000000	146.000000	16.000000
0.600000	31.020000	32.230000	228.000000	0.000000	308.000000	58.000000	107.000000	16.000000
0.610000	31.900000	32.400000	85.000000	0.000000	310.000000	58.000000	88.000000	17.000000
0.620000	31.900000	32.400000	0.000000	1.000000	310.000000	58.000000	0.000000	0.000000
0.630000	33.120000	32.830000	0.000000	0.000000	310.000000	58.000000	122.000000	43.000000
0.640000	33.520000	32.970000	0.000000	0.000000	310.000000	58.000000	40.000000	14.000000
0.650000	33.670000	33.050000	0.000000	0.000000	311.000000	57.000000	15.000000	8.000000
0.660000	33.670000	33.050000	0.000000	0.000000	311.000000	57.000000	0.000000	0.000000
0.670000	33.400000	33.050000	0.000000	0.000000	311.000000	57.000000	-27.000000	0.000000
0.680000	32.890000	33.100000	0.000000	0.000000	311.000000	57.000000	-51.000000	5.000000
0.690000	32.210000	33.100000	0.000000	0.000000	311.000000	57.000000	-68.000000	0.000000
0.700000	31.450000	33.200000	0.000000	0.000000	310.000000	56.000000	-76.000000	10.000000
0.710000	30.500000	33.200000	0.000000	0.000000	312.000000	57.000000	-95.000000	0.000000
0.720000	29.410000	33.200000	0.000000	0.000000	312.000000	57.000000	-109.000000	0.000000
0.730000	28.190000	33.070000	0.000000	0.000000	312.000000	57.000000	-122.000000	-13.000000
0.740000	26.910000	32.940000	0.000000	0.000000	312.000000	57.000000	-128.000000	-13.000000
0.750000	25.820000	32.790000	0.000000	0.000000	311.000000	57.000000	-109.000000	-15.000000
0.760000	24.870000	32.570000	0.000000	0.000000	311.000000	57.000000	-95.000000	-22.000000
0.770000	23.990000	32.320000	0.000000	0.000000	311.000000	57.000000	-88.000000	-25.000000
0.780000	23.100000	32.040000	0.000000	0.000000	311.000000	57.000000	-89.000000	-28.000000
0.790000	22.270000	31.760000	0.000000	0.000000	310.000000	56.000000	-83.000000	-28.000000
0.800000	21.490000	31.500000	0.000000	0.000000	310.000000	56.000000	-78.000000	-26.000000
0.810000	20.740000	31.270000	0.000000	0.000000	309.000000	56.000000	-75.000000	-23.000000
0.820000	20.070000	31.110000	0.000000	0.000000	309.000000	56.000000	-67.000000	-16.000000
0.830000	19.440000	30.990000	0.000000	0.000000	309.000000	56.000000	-63.000000	-12.000000
0.840000	18.900000	30.890000	0.000000	0.000000	309.000000	56.000000	-54.000000	-10.000000
0.850000	18.420000	30.890000	0.000000	0.000000	309.000000	56.000000	-48.000000	0.000000
0.860000	17.990000	30.890000	0.000000	0.000000	310.000000	56.000000	-43.000000	0.000000
0.870000	17.640000	30.890000	0.000000	0.000000	311.000000	57.000000	-35.000000	0.000000
0.880000	17.270000	30.890000	0.000000	0.000000	311.000000	57.000000	-37.000000	0.000000
0.890000	16.990000	30.990000	0.000000	0.000000	311.000000	57.000000	-28.000000	10.000000
0.900000	16.760000	31.110000	0.000000	0.000000	311.000000	57.000000	-23.000000	12.000000
0.910000	16.670000	31.260000	0.000000	0.000000	310.000000	56.000000	-9.000000	15.000000
0.920000	16.570000	31.430000	0.000000	0.000000	310.000000	55.000000	-10.000000	17.000000
0.930000	16.520000	31.580000	0.000000	0.000000	309.000000	55.000000	-5.000000	15.000000
0.940000	16.520000	31.670000	0.000000	0.000000	309.000000	55.000000	0.000000	9.000000
0.950000	16.520000	31.720000	0.000000	0.000000	308.000000	54.000000	0.000000	5.000000
0.960000	16.520000	31.720000	0.000000	0.000000	305.000000	54.000000	0.000000	0.000000
0.970000	16.520000	31.720000	0.000000	0.000000	305.000000	54.000000	0.000000	0.000000
0.980000	16.520000	31.620000	0.000000	0.000000	304.000000	53.000000	0.000000	-10.000000
0.990000	16.570000	31.620000	0.000000	0.000000	303.000000	53.000000	5.000000	0.000000
1.000000	16.570000	31.620000	0.000000	0.000000	303.000000	53.000000	0.000000	0.000000
1.010000	16.570000	31.620000	0.000000	0.000000	303.000000	53.000000	0.000000	0.000000
1.020000	16.570000	31.620000	0.000000	0.000000	303.000000	53.000000	0.000000	0.000000
1.030000	16.470000	31.620000	0.000000	0.000000	303.000000	53.000000	-10.000000	0.000000
1.040000	16.410000	31.670000	0.000000	0.000000	303.000000	53.000000	-6.000000	5.000000
1.050000	16.350000	31.670000	0.000000	0.000000	303.000000	53.000000	-6.000000	0.000000
1.060000	16.240000	31.670000	0.000000	0.000000	303.000000	53.000000	-11.000000	0.000000
1.070000	16.100000	31.740000	0.000000	0.000000	303.000000	53.000000	-14.000000	7.000000
1.080000	15.920000	31.740000	0.000000	0.000000	303.000000	53.000000	-18.000000	0.000000
1.090000	15.750000	31.790000	0.000000	0.000000	303.000000	53.000000	-17.000000	5.000000
1.100000	15.580000	31.870000	0.000000	0.000000	303.000000	53.000000	-17.000000	8.000000
1.110000	15.420000	31.870000	0.000000	0.000000	303.000000	53.000000	-16.000000	0.000000
1.120000	15.260000	31.820000	0.000000	0.000000	302.000000	54.000000	-16.000000	-5.000000
1.130000	15.120000	31.760000	0.000000	0.000000	302.000000	54.000000	-14.000000	-6.000000
1.140000	15.010000	31.760000	0.000000	0.000000	302.000000	54.000000	-11.000000	0.000000
1.150000	14.920000	31.700000	0.000000	0.000000	302.000000	54.000000	-9.000000	-6.000000
1.160000	14.920000	31.700000	0.000000	0.000000	302.000000	54.000000	0.000000	0.000000
1.170000	14.860000	31.700000	0.000000	0.000000	302.000000	54.000000	-6.000000	0.000000
1.180000	14.860000	31.700000	0.000000	0.000000	302.000000	54.000000	0.000000	0.000000
1.190000	14.860000	31.700000	0.000000	0.000000	302.000000	54.000000	0.000000	0.000000
1.200000	14.860000	31.760000	0.000000	0.000000	302.000000	54.000000	0.000000	6.000000
1.210000	14.860000	31.760000	0.000000	0.000000	302.000000	54.000000	0.000000	0.000000
1.220000	14.860000	31.710000	0.000000	0.000000	302.000000	54.000000	0.000000	-5.000000
1.230000	14.860000	31.710000	0.000000	0.000000	302.000000	54.000000	0.000000	0.000000
1.240000	14.860000	31.660000	0.000000	0.000000	302.000000	54.000000	0.000000	-5.000000
1.250000	14.860000	31.660000	0.000000	0.000000	302.000000	54.000000	0.000000	0.000000
1.260000	14.860000	31.660000	0.000000	0.000000	302.000000	54.000000	0.000000	0.000000
1.270000	14.920000	31.660000	0.000000	0.000000	302.000000	54.000000	6.000000	0.000000
1.280000	14.970000	31.660000	0.000000	0.000000	302.000000	54.000000	5.000000	0.000000
1.290000	14.970000	31.660000	0.000000	0.000000	303.000000	55.000000	0.000000	0.000000
1.300000	14.970000	31.660000	0.000000	0.000000	303.000000	55.000000	0.000000	0.000000
1.310000	14.970000	31.660000	0.000000	0.000000	303.000000	55.000000	0.000000	0.000000
1.320000	14.970000	31.660000	0.000000	0.000000	303.000000	55.000000	0.000000	0.000000
1.330000	14.970000	31.660000	0.000000	0.000000	303.000000	55.000000	0.000000	0.000000
1.340000	14.970000	31.660000	0.000000	0.000000	303.000000	55.000000	0.000000	0.000000
1.350000	14.970000	31.660000	0.000000	0.000000	303.000000	55.000000	0.000000	0.000000
1.360000	14.970000	31.660000	0.000000	0.000000	303.000000	55.000000	0.000000	0.000000
1.370000	14.970000	31.660000	0.000000	0.000000	304.000000	55.000000	0.000000	0.000000
1.380000	14.970000	31.660000	0.000000	0.000000	304.000000	55.000000	0.000000	0.000000
1.390000	15.070000	31.960000	0.000000	0.000000	304.000000	55.000000	10.000000	30.000000
1.400000	15.070000	32.050000	0.000000	0.000000	304.000000	55.000000	0.000000	9.000000
1.410000	15.130000	32.140000	0.000000	0.000000	304.000000	55.000000	6.000000	9.000000
1.420000	15.130000	32.230000	0.000000	0.000000	304.000000	55.000000	0.000000	9.000000
1.430000	15.130000	32.230000	15.000000	1.000000	304.000000	55.000000	0.000000	0.000000
1.440000	15.130000	32.230000	75.000000	0.000000	305.000000	56.000000	0.000000	0.000000
1.450000	15.130000	32.230000	137.000000	0.000000	305.000000	56.000000	0.000000	0.000000
1.460000	15.130000	32.230000	213.000000	0.000000	303.000000	56.000000	0.000000	0.000000
1.470000	15.130000	32.230000	255.000000	0.000000	303.000000	56.000000	0.000000	0.000000
1.480000	15.130000	32.230000	297.000000	0.000000	304.000000	57.000000	0.000000	0.000000
1.490000	15.130000	32.230000	309.000000	0.000000	304.000000	57.000000	0.000000	0.000000
1.500000	15.130000	32.230000	315.000000	0.000000	304.000000	57.000000	0.000000	0.000000
1.510000	15.000000	31.660000	332.000000	0.000000	304.000000	57.000000	-13.000000	-57.000000
1.520000	15.000000	31.280000	342.000000	0.000000	304.000000	57.000000	0.000000	-38.000000
1.530000	15.000000	30.870000	342.000000	0.000000	306.000000	57.000000	0.000000	-41.000000
1.540000	15.090000	30.570000	340.000000	0.000000	306.000000	57.000000	9.000000	-30.000000
1.550000	15.160000	30.330000	296.000000	0.000000	306.000000	57.000000	7.000000	-24.000000
1.560000	15.230000	30.220000	168.000000	0.000000	306.000000	57.000000	7.000000	-11.000000
1.570000	15.230000	30.220000	0.000000	1.000000	307.000000	56.000000	0.000000	0.000000
1.580000	15.430000	30.360000	0.000000	0.000000	307.000000	56.000000	20.000000	14.000000
1.590000	15.600000	30.640000	0.000000	0.000000	307.000000	56.000000	17.000000	28.000000
1.600000	15.790000	30.940000	0.000000	0.000000	307.000000	55.000000	19.000000	30.000000
1.610000	15.970000	31.250000	0.000000	0.000000	306.000000	54.000000	18.000000	31.000000
1.620000	16.180000	31.580000	0.000000	0.000000	306.000000	54.000000	21.000000	33.000000
1.630000	16.400000	31.940000	0.000000	0.000000	304.000000	54.000000	22.000000	36.000000
1.640000	16.630000	32.270000	0.000000	0.000000	304.000000	54.000000	23.000000	33.000000
1.650000	16.840000	32.580000	0.000000	0.000000	303.000000	53.000000	21.000000	31.000000
1.660000	17.030000	32.900000	0.000000	0.000000	303.000000	53.000000	19.000000	32.000000
1.670000	17.250000	33.210000	0.000000	0.000000	302.000000	54.000000	22.000000	31.000000
1.680000	17.480000	33.500000	0.000000	0.000000	302.000000	54.000000	23.000000	29.000000
1.690000	17.690000	33.770000	0.000000	0.000000	303.000000	55.000000	21.000000	27.000000
1.700000	17.860000	34.040000	0.000000	0.000000	302.000000	56.000000	17.000000	27.000000
1.710000	17.990000	34.330000	0.000000	0.000000	302.000000	56.000000	13.000000	29.000000
1.720000	18.060000	34.620000	0.000000	0.000000	303.000000	56.000000	7.000000	29.000000
1.730000	18.060000	34.840000	0.000000	0.000000	303.000000	58.000000	0.000000	22.000000
1.740000	18.060000	34.840000	36.000000	1.000000	303.000000	58.000000	0.000000	0.000000
1.750000	18.060000	35.100000	68.000000	0.000000	303.000000	58.000000	0.000000	26.000000
1.760000	18.060000	35.190000	98.000000	0.000000	303.000000	58.000000	0.000000	9.000000
1.770000	18.000000	35.190000	137.000000	0.000000	303.000000	58.000000	-6.000000	0.000000
1.780000	18.000000	35.190000	195.000000	0.000000	303.000000	58.000000	0.000000	0.000000
1.790000	18.000000	35.190000	218.000000	0.000000	303.000000	58.000000	0.000000	0.000000
1.800000	18.000000	35.030000	256.000000	0.000000	303.000000	58.000000	0.000000	-16.000000
1.810000	17.940000	34.770000	247.000000	0.000000	303.000000	58.000000	-6.000000	-26.000000
1.820000	17.890000	34.390000	259.000000	0.000000	303.000000	58.000000	-5.000000	-38.000000
1.830000	17.890000	33.960000	274.000000	0.000000	303.000000	58.000000	0.000000	-43.000000
1.840000	18.000000	33.510000	281.000000	0.000000	303.000000	58.000000	11.000000	-45.000000
1.850000	18.060000	33.020000	276.000000	0.000000	303.000000	58.000000	6.000000	-49.000000
1.860000	18.200000	32.560000	277.000000	0.000000	303.000000	58.000000	14.000000	-46.000000
1.870000	18.390000	32.170000	262.000000	0.000000	303.000000	58.000000	19.000000	-39.000000
1.880000	18.580000	31.870000	262.000000	0.000000	304.000000	57.000000	19.000000	-30.000000
1.890000	18.740000	31.730000	245.000000	0.000000	304.000000	57.000000	16.000000	-14.000000
1.900000	18.860000	31.730000	256.000000	0.000000	303.000000	56.000000	12.000000	0.000000
1.910000	18.860000	31.730000	253.000000	0.000000	303.000000	56.000000	0.000000	0.000000
1.920000	18.860000	31.800000	254.000000	0.000000	303.000000	56.000000	0.000000	7.000000
1.930000	18.760000	31.870000	254.000000	0.000000	305.000000	56.000000	-10.000000	7.000000
1.940000	18.570000	31.940000	247.000000	0.000000	305.000000	56.000000	-19.000000	7.000000
1.950000	18.300000	31.940000	257.000000	0.000000	305.000000	56.000000	-27.000000	0.000000
1.960000	17.940000	32.010000	269.000000	0.000000	305.000000	56.000000	-36.000000	7.000000
1.970000	17.540000	32.010000	279.000000	0.000000	305.000000	56.000000	-40.000000	0.000000
1.980000	17.120000	31.920000	279.000000	0.000000	305.000000	56.000000	-42.000000	-9.000000
1.990000	16.830000	31.830000	289.000000	0.000000	305.000000	56.000000	-29.000000	-9.000000
2.000000	16.620000	31.720000	299.000000	0.000000	305.000000	56.000000	-21.000000	-11.000000
2.010000	16.390000	31.590000	297.000000	0.000000	304.000000	55.000000	-23.000000	-13.000000
2.020000	16.390000	31.430000	301.000000	0.000000	304.000000	55.000000	0.000000	-16.000000
2.030000	16.390000	31.270000	289.000000	0.000000	303.000000	55.000000	0.000000	-16.000000
2.040000	16.600000	31.080000	281.000000	0.000000	303.000000	55.000000	21.000000	-19.000000
2.050000	16.850000	30.860000	269.000000	0.000000	304.000000	54.000000	25.000000	-22.000000
2.060000	17.160000	30.780000	211.000000	0.000000	304.000000	54.000000	31.000000	-8.000000
2.070000	17.550000	30.780000	113.000000	0.000000	304.000000	54.000000	39.000000	0.000000
2.080000	18.000000	30.940000	20.000000	0.000000	305.000000	55.000000	45.000000	16.000000
2.090000	18.000000	30.940000	0.000000	1.000000	305.000000	55.000000	0.000000	0.000000
2.100000	18.920000	31.660000	0.000000	0.000000	305.000000	56.000000	92.000000	72.000000
2.110000	19.290000	32.030000	0.000000	0.000000	305.000000	56.000000	37.000000	37.000000
2.120000	19.560000	32.370000	0.000000	0.000000	306.000000	57.000000	27.000000	34.000000
2.130000	19.710000	32.610000	0.000000	0.000000	306.000000	57.000000	15.000000	24.000000
2.140000	19.780000	32.750000	0.000000	0.000000	305.000000	56.000000	7.000000	14.000000
2.150000	19.780000	32.830000	0.000000	0.000000	305.000000	56.000000	0.000000	8.000000
2.160000	19.780000	32.830000	0.000000	0.000000	305.000000	56.000000	0.000000	0.000000
2.170000	19.780000	32.740000	0.000000	0.000000	304.000000	55.000000	0.000000	-9.000000
2.180000	19.780000	32.670000	0.000000	0.000000	304.000000	55.000000	0.000000	-7.000000
2.190000	19.780000	32.670000	0.000000	0.000000	305.000000	55.000000	0.000000	0.000000
2.200000	19.850000	32.600000	0.000000	0.000000	305.000000	55.000000	7.000000	-7.000000
2.210000	19.930000	32.600000	0.000000	0.000000	304.000000	54.000000	8.000000	0.000000
2.220000	20.000000	32.550000	0.000000	0.000000	304.000000	54.000000	7.000000	-5.000000
2.230000	20.110000	32.490000	0.000000	0.000000	304.000000	54.000000	11.000000	-6.000000
