t	x	y	pressure	penup	azimuth	inclination	v_x	v_y
0.000000	14.160000	29.070000	3.000000	1.000000	149.000000	58.000000	0.000000	0.000000
0.010000	14.300000	28.810000	25.000000	1.000000	149.000000	58.000000	0.000000	0.000000
0.020000	14.490000	28.810000	50.000000	0.000000	149.000000	58.000000	19.000000	0.000000
0.030000	14.730000	28.810000	106.000000	0.000000	149.000000	58.000000	24.000000	0.000000
0.040000	15.060000	28.810000	137.000000	0.000000	150.000000	58.000000	33.000000	0.000000
0.050000	15.420000	28.910000	161.000000	0.000000	150.000000	58.000000	36.000000	10.000000
0.060000	15.800000	29.020000	175.000000	0.000000	152.000000	59.000000	38.000000	11.000000
0.070000	16.220000	29.230000	182.000000	0.000000	152.000000	59.000000	42.000000	21.000000
0.080000	16.690000	29.500000	170.000000	0.000000	152.000000	59.000000	47.000000	27.000000
0.090000	17.160000	29.830000	171.000000	0.000000	152.000000	59.000000	47.000000	33.000000
0.100000	17.520000	30.200000	181.000000	0.000000	153.000000	58.000000	36.000000	37.000000
0.110000	17.820000	30.600000	190.000000	0.000000	153.000000	58.000000	30.000000	40.000000
0.120000	17.900000	30.920000	209.000000	0.000000	154.000000	57.000000	8.000000	32.000000
0.130000	17.820000	31.220000	232.000000	0.000000	152.000000	57.000000	-8.000000	30.000000
0.140000	17.620000	31.460000	251.000000	0.000000	152.000000	56.000000	-20.000000	24.000000
0.150000	17.150000	31.620000	254.000000	0.000000	152.000000	56.000000	-47.000000	16.000000
0.160000	16.500000	31.620000	284.000000	0.000000	153.000000	55.000000	-65.000000	0.000000
0.170000	15.740000	31.470000	277.000000	0.000000	153.000000	55.000000	-76.000000	-15.000000
0.180000	15.230000	31.250000	281.000000	0.000000	154.000000	55.000000	-51.000000	-22.000000
0.190000	15.020000	30.810000	277.000000	0.000000	154.000000	56.000000	-21.000000	-44.000000
0.200000	15.020000	30.230000	274.000000	0.000000	154.000000	56.000000	0.000000	-58.000000
0.210000	15.300000	29.550000	255.000000	0.000000	156.000000	57.000000	28.000000	-68.000000
0.220000	15.780000	28.870000	245.000000	0.000000	157.000000	58.000000	48.000000	-68.000000
0.230000	16.380000	28.200000	251.000000	0.000000	157.000000	58.000000	60.000000	-67.000000
0.240000	17.010000	27.650000	249.000000	0.000000	157.000000	58.000000	63.000000	-55.000000
0.250000	17.330000	27.170000	246.000000	0.000000	156.000000	59.000000	32.000000	-48.000000
0.260000	17.450000	26.790000	219.000000	0.000000	154.000000	58.000000	12.000000	-38.000000
0.270000	17.010000	26.440000	226.000000	0.000000	153.000000	59.000000	-44.000000	-35.000000
0.280000	16.050000	26.100000	247.000000	0.000000	152.000000	59.000000	-96.000000	-34.000000
0.290000	14.740000	25.780000	275.000000	0.000000	152.000000	59.000000	-131.000000	-32.000000
0.300000	13.170000	25.420000	314.000000	0.000000	151.000000	60.000000	-157.000000	-36.000000
0.310000	11.310000	24.960000	394.000000	0.000000	151.000000	60.000000	-186.000000	-46.000000
0.320000	9.260000	24.450000	427.000000	0.000000	151.000000	60.000000	-205.000000	-51.000000
0.330000	7.920000	24.160000	445.000000	0.000000	151.000000	60.000000	-134.000000	-29.000000
0.340000	7.370000	24.010000	480.000000	0.000000	152.000000	60.000000	-55.000000	-15.000000
0.350000	7.370000	24.010000	514.000000	0.000000	154.000000	60.000000	0.000000	0.000000
0.360000	8.180000	24.320000	521.000000	0.000000	154.000000	60.000000	81.000000	31.000000
0.370000	10.400000	24.840000	538.000000	0.000000	156.000000	61.000000	222.000000	52.000000
0.380000	13.540000	25.770000	562.000000	0.000000	156.000000	61.000000	314.000000	93.000000
0.390000	17.430000	26.880000	572.000000	0.000000	156.000000	61.000000	389.000000	111.000000
0.400000	21.510000	28.100000	566.000000	0.000000	156.000000	61.000000	408.000000	122.000000
0.410000	25.720000	29.100000	565.000000	0.000000	156.000000	61.000000	421.000000	100.000000
0.420000	29.490000	29.860000	546.000000	0.000000	156.000000	61.000000	377.000000	76.000000
0.430000	32.990000	30.450000	496.000000	0.000000	157.000000	60.000000	350.000000	59.000000
0.440000	36.310000	31.020000	448.000000	0.000000	157.000000	60.000000	332.000000	57.000000
0.450000	39.230000	31.570000	339.000000	0.000000	157.000000	59.000000	292.000000	55.000000
0.460000	41.210000	32.060000	136.000000	0.000000	157.000000	59.000000	198.000000	49.000000
0.470000	41.210000	32.060000	0.000000	1.000000	158.000000	58.000000	0.000000	0.000000
0.480000	42.310000	32.420000	0.000000	0.000000	157.000000	58.000000	110.000000	36.000000
0.490000	40.790000	32.190000	0.000000	0.000000	157.000000	57.000000	-152.000000	-23.000000
0.500000	38.420000	31.780000	0.000000	0.000000	157.000000	57.000000	-237.000000	-41.000000
0.510000	35.470000	31.250000	0.000000	0.000000	157.000000	57.000000	-295.000000	-53.000000
0.520000	32.330000	30.680000	0.000000	0.000000	157.000000	57.000000	-314.000000	-57.000000
0.530000	29.060000	30.080000	0.000000	0.000000	156.000000	57.000000	-327.000000	-60.000000
0.540000	25.850000	29.410000	0.000000	0.000000	155.000000	58.000000	-321.000000	-67.000000
0.550000	22.940000	28.610000	0.000000	0.000000	154.000000	57.000000	-291.000000	-80.000000
0.560000	20.240000	27.730000	0.000000	0.000000	151.000000	58.000000	-270.000000	-88.000000
0.570000	18.110000	26.920000	0.000000	0.000000	150.000000	57.000000	-213.000000	-81.000000
0.580000	16.490000	26.320000	0.000000	0.000000	148.000000	57.000000	-162.000000	-60.000000
0.590000	15.200000	25.870000	0.000000	0.000000	148.000000	57.000000	-129.000000	-45.000000
0.600000	14.720000	25.690000	0.000000	0.000000	148.000000	57.000000	-48.000000	-18.000000
0.610000	14.720000	25.740000	0.000000	0.000000	150.000000	57.000000	0.000000	5.000000
0.620000	15.150000	25.940000	0.000000	0.000000	151.000000	58.000000	43.000000	20.000000
0.630000	15.730000	26.160000	0.000000	0.000000	153.000000	58.000000	58.000000	22.000000
0.640000	16.360000	26.430000	0.000000	0.000000	154.000000	58.000000	63.000000	27.000000
0.650000	16.920000	26.730000	0.000000	0.000000	154.000000	58.000000	56.000000	30.000000
0.660000	17.420000	27.030000	0.000000	0.000000	154.000000	58.000000	50.000000	30.000000
0.670000	17.740000	27.330000	0.000000	0.000000	153.000000	58.000000	32.000000	30.000000
0.680000	17.950000	27.610000	0.000000	0.000000	150.000000	58.000000	21.000000	28.000000
0.690000	18.090000	27.950000	0.000000	0.000000	149.000000	58.000000	14.000000	34.000000
0.700000	18.090000	28.320000	0.000000	0.000000	147.000000	58.000000	0.000000	37.000000
0.710000	18.190000	28.550000	0.000000	0.000000	144.000000	58.000000	10.000000	23.000000
0.720000	18.280000	28.770000	0.000000	0.000000	144.000000	58.000000	9.000000	22.000000
0.730000	18.280000	28.770000	53.000000	1.000000	143.000000	57.000000	0.000000	0.000000
0.740000	18.460000	29.140000	142.000000	0.000000	146.000000	57.000000	18.000000	37.000000
0.750000	18.460000	29.290000	177.000000	0.000000	146.000000	57.000000	0.000000	15.000000
0.760000	18.460000	29.290000	215.000000	0.000000	146.000000	57.000000	0.000000	0.000000
0.770000	18.460000	29.190000	287.000000	0.000000	147.000000	58.000000	0.000000	-10.000000
0.780000	18.460000	28.930000	334.000000	0.000000	147.000000	58.000000	0.000000	-26.000000
0.790000	18.530000	28.620000	362.000000	0.000000	148.000000	57.000000	7.000000	-31.000000
0.800000	18.530000	28.240000	366.000000	0.000000	148.000000	57.000000	0.000000	-38.000000
0.810000	18.580000	27.800000	354.000000	0.000000	148.000000	57.000000	5.000000	-44.000000
0.820000	18.630000	27.380000	181.000000	0.000000	148.000000	57.000000	5.000000	-42.000000
0.830000	18.630000	27.380000	0.000000	1.000000	148.000000	57.000000	0.000000	0.000000
0.840000	18.890000	27.220000	0.000000	0.000000	147.000000	58.000000	26.000000	-16.000000
0.850000	19.020000	27.580000	0.000000	0.000000	147.000000	58.000000	13.000000	36.000000
0.860000	19.150000	28.080000	0.000000	0.000000	147.000000	58.000000	13.000000	50.000000
0.870000	19.280000	28.680000	0.000000	0.000000	146.000000	57.000000	13.000000	60.000000
0.880000	19.490000	29.270000	0.000000	0.000000	146.000000	57.000000	21.000000	59.000000
0.890000	19.690000	29.840000	0.000000	0.000000	144.000000	57.000000	20.000000	57.000000
0.900000	19.800000	30.350000	0.000000	0.000000	144.000000	57.000000	11.000000	51.000000
0.910000	19.800000	30.350000	172.000000	1.000000	144.000000	56.000000	0.000000	0.000000
0.920000	19.850000	30.830000	301.000000	0.000000	144.000000	56.000000	5.000000	48.000000
0.930000	19.700000	31.020000	301.000000	0.000000	145.000000	55.000000	-15.000000	19.000000
0.940000	19.390000	31.120000	304.000000	0.000000	145.000000	55.000000	-31.000000	10.000000
0.950000	19.210000	31.040000	299.000000	0.000000	145.000000	55.000000	-18.000000	-8.000000
0.960000	19.060000	30.880000	249.000000	0.000000	147.000000	55.000000	-15.000000	-16.000000
0.970000	18.970000	30.600000	96.000000	0.000000	149.000000	55.000000	-9.000000	-28.000000
0.980000	18.970000	30.600000	0.000000	1.000000	149.000000	55.000000	0.000000	0.000000
0.990000	19.400000	29.930000	0.000000	0.000000	149.000000	55.000000	43.000000	-67.000000
1.000000	19.720000	29.710000	0.000000	0.000000	149.000000	55.000000	32.000000	-22.000000
1.010000	20.040000	29.580000	0.000000	0.000000	149.000000	55.000000	32.000000	-13.000000
1.020000	20.210000	29.470000	0.000000	0.000000	149.000000	55.000000	17.000000	-11.000000
1.030000	20.280000	29.330000	0.000000	0.000000	148.000000	56.000000	7.000000	-14.000000
1.040000	20.280000	29.330000	161.000000	1.000000	148.000000	56.000000	0.000000	0.000000
1.050000	19.860000	28.860000	186.000000	0.000000	148.000000	56.000000	-42.000000	-47.000000
1.060000	19.490000	28.610000	214.000000	0.000000	146.000000	55.000000	-37.000000	-25.000000
1.070000	19.330000	28.310000	252.000000	0.000000	146.000000	55.000000	-16.000000	-30.000000
1.080000	19.210000	27.950000	273.000000	0.000000	147.000000	56.000000	-12.000000	-36.000000
1.090000	19.210000	27.640000	289.000000	0.000000	147.000000	56.000000	0.000000	-31.000000
1.100000	19.270000	27.480000	291.000000	0.000000	147.000000	56.000000	6.000000	-16.000000
1.110000	19.430000	27.400000	294.000000	0.000000	146.000000	57.000000	16.000000	-8.000000
1.120000	19.750000	27.540000	307.000000	0.000000	146.000000	57.000000	32.000000	14.000000
1.130000	20.160000	27.940000	304.000000	0.000000	146.000000	57.000000	41.000000	40.000000
1.140000	20.600000	28.510000	307.000000	0.000000	146.000000	57.000000	44.000000	57.000000
1.150000	20.880000	29.150000	316.000000	0.000000	146.000000	57.000000	28.000000	64.000000
1.160000	21.060000	29.820000	317.000000	0.000000	146.000000	57.000000	18.000000	67.000000
1.170000	21.110000	30.520000	315.000000	0.000000	145.000000	56.000000	5.000000	70.000000
1.180000	21.110000	31.130000	373.000000	0.000000	145.000000	56.000000	0.000000	61.000000
1.190000	21.110000	31.420000	407.000000	0.000000	146.000000	55.000000	0.000000	29.000000
1.200000	21.040000	31.490000	412.000000	0.000000	146.000000	55.000000	-7.000000	7.000000
1.210000	20.990000	31.490000	417.000000	0.000000	146.000000	55.000000	-5.000000	0.000000
1.220000	20.930000	31.060000	425.000000	0.000000	147.000000	55.000000	-6.000000	-43.000000
1.230000	20.800000	30.440000	417.000000	0.000000	147.000000	55.000000	-13.000000	-62.000000
1.240000	20.700000	29.750000	423.000000	0.000000	147.000000	55.000000	-10.000000	-69.000000
1.250000	20.700000	29.090000	420.000000	0.000000	147.000000	55.000000	0.000000	-66.000000
1.260000	20.840000	28.670000	422.000000	0.000000	147.000000	55.000000	14.000000	-42.000000
1.270000	21.110000	28.400000	418.000000	0.000000	147.000000	55.000000	27.000000	-27.000000
1.280000	21.490000	28.400000	415.000000	0.000000	146.000000	55.000000	38.000000	0.000000
1.290000	21.870000	28.600000	413.000000	0.000000	146.000000	55.000000	38.000000	20.000000
1.300000	22.140000	28.990000	415.000000	0.000000	145.000000	55.000000	27.000000	39.000000
1.310000	22.330000	29.360000	417.000000	0.000000	145.000000	55.000000	19.000000	37.000000
1.320000	22.330000	29.730000	449.000000	0.000000	145.000000	55.000000	0.000000	37.000000
1.330000	22.330000	29.850000	460.000000	0.000000	145.000000	55.000000	0.000000	12.000000
1.340000	22.330000	29.850000	465.000000	0.000000	145.000000	55.000000	0.000000	0.000000
1.350000	22.330000	29.660000	468.000000	0.000000	146.000000	55.000000	0.000000	-19.000000
1.360000	22.280000	29.450000	466.000000	0.000000	146.000000	55.000000	-5.000000	-21.000000
1.370000	22.280000	29.120000	446.000000	0.000000	147.000000	55.000000	0.000000	-33.000000
1.380000	22.360000	28.880000	399.000000	0.000000	147.000000	55.000000	8.000000	-24.000000
1.390000	22.630000	28.710000	341.000000	0.000000	146.000000	55.000000	27.000000	-17.000000
1.400000	23.010000	28.640000	304.000000	0.000000	146.000000	55.000000	38.000000	-7.000000
1.410000	23.430000	28.720000	259.000000	0.000000	146.000000	55.000000	42.000000	8.000000
1.420000	23.640000	28.900000	270.000000	0.000000	146.000000	55.000000	21.000000	18.000000
1.430000	23.710000	29.150000	287.000000	0.000000	146.000000	55.000000	7.000000	25.000000
1.440000	23.710000	29.390000	274.000000	0.000000	145.000000	55.000000	0.000000	24.000000
1.450000	23.620000	29.610000	279.000000	0.000000	145.000000	55.000000	-9.000000	22.000000
1.460000	23.550000	29.780000	289.000000	0.000000	145.000000	55.000000	-7.000000	17.000000
1.470000	23.550000	29.780000	292.000000	0.000000	145.000000	55.000000	0.000000	0.000000
1.480000	23.550000	29.780000	294.000000	0.000000	145.000000	55.000000	0.000000	0.000000
1.490000	23.670000	29.670000	299.000000	0.000000	145.000000	55.000000	12.000000	-11.000000
1.500000	23.760000	29.520000	299.000000	0.000000	145.000000	55.000000	9.000000	-15.000000
1.510000	23.840000	29.350000	301.000000	0.000000	146.000000	54.000000	8.000000	-17.000000
1.520000	23.950000	29.270000	299.000000	0.000000	146.000000	54.000000	11.000000	-8.000000
1.530000	24.060000	29.270000	296.000000	0.000000	146.000000	54.000000	11.000000	0.000000
1.540000	24.170000	29.270000	289.000000	0.000000	146.000000	54.000000	11.000000	0.000000
1.550000	24.170000	29.370000	284.000000	0.000000	146.000000	54.000000	0.000000	10.000000
1.560000	24.170000	29.450000	291.000000	0.000000	146.000000	54.000000	0.000000	8.000000
1.570000	24.170000	29.550000	299.000000	0.000000	146.000000	54.000000	0.000000	10.000000
1.580000	24.170000	29.550000	311.000000	0.000000	145.000000	55.000000	0.000000	0.000000
1.590000	24.110000	29.320000	317.000000	0.000000	145.000000	55.000000	-6.000000	-23.000000
1.600000	24.020000	29.000000	343.000000	0.000000	146.000000	55.000000	-9.000000	-32.000000
1.610000	24.080000	28.750000	353.000000	0.000000	146.000000	55.000000	6.000000	-25.000000
1.620000	24.190000	28.620000	359.000000	0.000000	146.000000	55.000000	11.000000	-13.000000
1.630000	24.390000	28.560000	309.000000	0.000000	146.000000	55.000000	20.000000	-6.000000
1.640000	24.590000	28.560000	103.000000	0.000000	146.000000	55.000000	20.000000	0.000000
1.650000	24.590000	28.560000	0.000000	1.000000	146.000000	55.000000	0.000000	0.000000
1.660000	24.990000	28.960000	0.000000	0.000000	148.000000	56.000000	40.000000	40.000000
1.670000	25.150000	29.360000	0.000000	0.000000	148.000000	56.000000	16.000000	40.000000
1.680000	25.250000	29.800000	0.000000	0.000000	148.000000	56.000000	10.000000	44.000000
1.690000	25.250000	30.280000	0.000000	0.000000	149.000000	56.000000	0.000000	48.000000
1.700000	25.250000	30.740000	0.000000	0.000000	149.000000	56.000000	0.000000	46.000000
1.710000	24.970000	31.130000	0.000000	0.000000	149.000000	56.000000	-28.000000	39.000000
1.720000	24.550000	31.420000	0.000000	0.000000	149.000000	56.000000	-42.000000	29.000000
1.730000	24.550000	31.420000	225.000000	1.000000	150.000000	55.000000	0.000000	0.000000
1.740000	23.680000	31.670000	264.000000	0.000000	149.000000	55.000000	-87.000000	25.000000
1.750000	23.420000	31.750000	282.000000	0.000000	150.000000	54.000000	-26.000000	8.000000
1.760000	23.200000	31.750000	287.000000	0.000000	150.000000	54.000000	-22.000000	0.000000
1.770000	23.150000	31.750000	287.000000	0.000000	148.000000	54.000000	-5.000000	0.000000
1.780000	23.150000	31.690000	202.000000	0.000000	148.000000	54.000000	0.000000	-6.000000
1.790000	23.150000	31.690000	0.000000	1.000000	148.000000	54.000000	0.000000	0.000000
1.800000	23.640000	31.350000	0.000000	0.000000	147.000000	53.000000	49.000000	-34.000000
1.810000	24.260000	31.400000	0.000000	0.000000	147.000000	53.000000	62.000000	5.000000
1.820000	24.780000	31.610000	0.000000	0.000000	147.000000	53.000000	52.000000	21.000000
1.830000	25.300000	31.820000	0.000000	0.000000	148.000000	54.000000	52.000000	21.000000
1.840000	25.820000	32.090000	0.000000	0.000000	148.000000	54.000000	52.000000	27.000000
1.850000	26.070000	32.390000	0.000000	0.000000	148.000000	54.000000	25.000000	30.000000
1.860000	26.070000	32.390000	250.000000	1.000000	150.000000	54.000000	0.000000	0.000000
1.870000	26.070000	32.390000	277.000000	0.000000	150.000000	54.000000	0.000000	0.000000
1.880000	26.070000	32.700000	296.000000	0.000000	151.000000	54.000000	0.000000	31.000000
1.890000	25.940000	32.820000	304.000000	0.000000	151.000000	54.000000	-13.000000	12.000000
1.900000	25.940000	32.600000	366.000000	0.000000	152.000000	56.000000	0.000000	-22.000000
1.910000	25.890000	32.060000	428.000000	0.000000	152.000000	56.000000	-5.000000	-54.000000
1.920000	25.890000	31.320000	461.000000	0.000000	152.000000	56.000000	0.000000	-74.000000
1.930000	25.840000	30.300000	496.000000	0.000000	153.000000	56.000000	-5.000000	-102.000000
1.940000	25.790000	28.980000	501.000000	0.000000	153.000000	56.000000	-5.000000	-132.000000
1.950000	25.720000	27.450000	522.000000	0.000000	152.000000	57.000000	-7.000000	-153.000000
1.960000	25.510000	26.020000	518.000000	0.000000	152.000000	57.000000	-21.000000	-143.000000
1.970000	25.240000	24.930000	519.000000	0.000000	151.000000	58.000000	-27.000000	-109.000000
1.980000	24.930000	24.070000	527.000000	0.000000	150.000000	58.000000	-31.000000	-86.000000
1.990000	24.670000	23.620000	530.000000	0.000000	149.000000	59.000000	-26.000000	-45.000000
2.000000	24.410000	23.620000	465.000000	0.000000	149.000000	59.000000	-26.000000	0.000000
2.010000	24.170000	23.820000	315.000000	0.000000	148.000000	60.000000	-24.000000	20.000000
2.020000	24.030000	24.460000	101.000000	0.000000	147.000000	61.000000	-14.000000	64.000000
2.030000	24.030000	24.460000	0.000000	1.000000	145.000000	60.000000	0.000000	0.000000
2.040000	24.680000	26.820000	0.000000	0.000000	145.000000	60.000000	65.000000	236.000000
2.050000	25.300000	28.180000	0.000000	0.000000	145.000000	60.000000	62.000000	136.000000
2.060000	26.030000	29.100000	0.000000	0.000000	145.000000	59.000000	73.000000	92.000000
2.070000	26.030000	29.100000	44.000000	1.000000	146.000000	58.000000	0.000000	0.000000
2.080000	27.330000	30.220000	143.000000	0.000000	147.000000	59.000000	130.000000	112.000000
2.090000	27.560000	30.500000	242.000000	0.000000	149.000000	58.000000	23.000000	28.000000
2.100000	27.610000	30.640000	333.000000	0.000000	150.000000	57.000000	5.000000	14.000000
2.110000	27.610000	30.690000	415.000000	0.000000	150.000000	57.000000	0.000000	5.000000
2.120000	27.380000	30.690000	473.000000	0.000000	151.000000	56.000000	-23.000000	0.000000
2.130000	27.080000	30.560000	499.000000	0.000000	151.000000	56.000000	-30.000000	-13.000000
2.140000	26.640000	30.270000	514.000000	0.000000	152.000000	56.000000	-44.000000	-29.000000
2.150000	26.250000	29.950000	510.000000	0.000000	150.000000	55.000000	-39.000000	-32.000000
2.160000	26.130000	29.630000	514.000000	0.000000	150.000000	55.000000	-12.000000	-32.000000
2.170000	26.180000	29.320000	473.000000	0.000000	150.000000	55.000000	5.000000	-31.000000
2.180000	26.360000	29.170000	448.000000	0.000000	150.000000	55.000000	18.000000	-15.000000
2.190000	26.690000	29.170000	394.000000	0.000000	150.000000	55.000000	33.000000	0.000000
2.200000	27.120000	29.370000	373.000000	0.000000	152.000000	56.000000	43.000000	20.000000
2.210000	27.490000	29.680000	343.000000	0.000000	152.000000	56.000000	37.000000	31.000000
