t	x	y	pressure	penup	azimuth	inclination	v_x	v_y
0.000000	86.830000	62.950000	131.000000	1.000000	153.000000	51.000000	0.000000	0.000000
0.010000	86.550000	62.810000	141.000000	0.000000	153.000000	51.000000	-28.000000	-14.000000
0.020000	86.500000	62.810000	144.000000	0.000000	153.000000	51.000000	-5.000000	0.000000
0.030000	86.600000	62.810000	132.000000	0.000000	153.000000	51.000000	10.000000	0.000000
0.040000	86.940000	62.810000	148.000000	0.000000	153.000000	52.000000	34.000000	0.000000
0.050000	87.440000	62.920000	172.000000	0.000000	153.000000	52.000000	50.000000	11.000000
0.060000	88.070000	63.120000	184.000000	0.000000	151.000000	51.000000	63.000000	20.000000
0.070000	88.750000	63.400000	171.000000	0.000000	153.000000	52.000000	68.000000	28.000000
0.080000	89.530000	63.740000	173.000000	0.000000	153.000000	52.000000	78.000000	34.000000
0.090000	90.120000	64.150000	176.000000	0.000000	153.000000	52.000000	59.000000	41.000000
0.100000	90.570000	64.610000	176.000000	0.000000	154.000000	52.000000	45.000000	46.000000
0.110000	90.860000	65.110000	181.000000	0.000000	155.000000	52.000000	29.000000	50.000000
0.120000	90.860000	65.550000	213.000000	0.000000	154.000000	53.000000	0.000000	44.000000
0.130000	90.740000	65.970000	253.000000	0.000000	156.000000	53.000000	-12.000000	42.000000
0.140000	90.350000	66.230000	275.000000	0.000000	156.000000	53.000000	-39.000000	26.000000
0.150000	89.800000	66.380000	311.000000	0.000000	157.000000	54.000000	-55.000000	15.000000
0.160000	89.140000	66.290000	330.000000	0.000000	156.000000	55.000000	-66.000000	-9.000000
0.170000	88.330000	66.140000	339.000000	0.000000	156.000000	55.000000	-81.000000	-15.000000
0.180000	87.990000	65.700000	339.000000	0.000000	155.000000	54.000000	-34.000000	-44.000000
0.190000	87.990000	65.080000	342.000000	0.000000	155.000000	54.000000	0.000000	-62.000000
0.200000	88.160000	64.050000	339.000000	0.000000	154.000000	53.000000	17.000000	-103.000000
0.210000	88.480000	62.930000	324.000000	0.000000	154.000000	53.000000	32.000000	-112.000000
0.220000	88.870000	61.740000	317.000000	0.000000	154.000000	53.000000	39.000000	-119.000000
0.230000	89.190000	60.700000	311.000000	0.000000	153.000000	53.000000	32.000000	-104.000000
0.240000	89.190000	59.840000	312.000000	0.000000	154.000000	52.000000	0.000000	-86.000000
0.250000	88.870000	59.100000	316.000000	0.000000	154.000000	52.000000	-32.000000	-74.000000
0.260000	88.220000	58.450000	309.000000	0.000000	153.000000	53.000000	-65.000000	-65.000000
0.270000	87.230000	57.990000	343.000000	0.000000	153.000000	53.000000	-99.000000	-46.000000
0.280000	86.010000	57.650000	399.000000	0.000000	153.000000	53.000000	-122.000000	-34.000000
0.290000	84.530000	57.410000	445.000000	0.000000	152.000000	54.000000	-148.000000	-24.000000
0.300000	83.070000	57.290000	491.000000	0.000000	152.000000	54.000000	-146.000000	-12.000000
0.310000	81.620000	57.290000	526.000000	0.000000	152.000000	54.000000	-145.000000	0.000000
0.320000	80.990000	57.350000	536.000000	0.000000	152.000000	54.000000	-63.000000	6.000000
0.330000	80.920000	57.440000	536.000000	0.000000	152.000000	54.000000	-7.000000	9.000000
0.340000	81.220000	57.540000	540.000000	0.000000	153.000000	54.000000	30.000000	10.000000
0.350000	82.770000	58.050000	551.000000	0.000000	153.000000	54.000000	155.000000	51.000000
0.360000	85.300000	58.820000	559.000000	0.000000	153.000000	54.000000	253.000000	77.000000
0.370000	88.490000	59.690000	570.000000	0.000000	155.000000	54.000000	319.000000	87.000000
0.380000	91.690000	60.540000	570.000000	0.000000	156.000000	53.000000	320.000000	85.000000
0.390000	94.530000	61.120000	561.000000	0.000000	156.000000	53.000000	284.000000	58.000000
0.400000	97.130000	61.530000	504.000000	0.000000	156.000000	53.000000	260.000000	41.000000
0.410000	99.430000	61.940000	388.000000	0.000000	157.000000	54.000000	230.000000	41.000000
0.420000	101.110000	62.220000	119.000000	0.000000	157.000000	54.000000	168.000000	28.000000
0.430000	101.110000	62.220000	0.000000	1.000000	157.000000	54.000000	0.000000	0.000000
0.440000	103.100000	62.640000	0.000000	0.000000	158.000000	54.000000	199.000000	42.000000
0.450000	103.050000	62.870000	0.000000	0.000000	158.000000	54.000000	-5.000000	23.000000
0.460000	102.490000	63.100000	0.000000	0.000000	158.000000	54.000000	-56.000000	23.000000
0.470000	101.380000	63.150000	0.000000	0.000000	158.000000	54.000000	-111.000000	5.000000
0.480000	99.750000	63.150000	0.000000	0.000000	157.000000	54.000000	-163.000000	0.000000
0.490000	97.770000	62.800000	0.000000	0.000000	157.000000	54.000000	-198.000000	-35.000000
0.500000	95.600000	62.130000	0.000000	0.000000	156.000000	53.000000	-217.000000	-67.000000
0.510000	93.330000	62.130000	0.000000	0.000000	154.000000	53.000000	-227.000000	0.000000
0.520000	90.980000	61.670000	0.000000	0.000000	153.000000	53.000000	-235.000000	-46.000000
0.530000	89.220000	60.920000	0.000000	0.000000	152.000000	53.000000	-176.000000	-75.000000
0.540000	88.030000	60.410000	0.000000	0.000000	152.000000	53.000000	-119.000000	-51.000000
0.550000	87.220000	60.090000	0.000000	0.000000	151.000000	53.000000	-81.000000	-32.000000
0.560000	87.030000	59.890000	0.000000	0.000000	149.000000	53.000000	-19.000000	-20.000000
0.570000	87.150000	59.890000	0.000000	0.000000	149.000000	53.000000	12.000000	0.000000
0.580000	87.480000	59.940000	0.000000	0.000000	150.000000	54.000000	33.000000	5.000000
0.590000	87.970000	60.130000	0.000000	0.000000	150.000000	54.000000	49.000000	19.000000
0.600000	88.480000	60.430000	0.000000	0.000000	151.000000	54.000000	51.000000	30.000000
0.610000	89.020000	60.730000	0.000000	0.000000	151.000000	54.000000	54.000000	30.000000
0.620000	89.390000	61.030000	0.000000	0.000000	153.000000	55.000000	37.000000	30.000000
0.630000	89.650000	61.340000	0.000000	0.000000	153.000000	55.000000	26.000000	31.000000
0.640000	89.900000	61.610000	0.000000	0.000000	151.000000	54.000000	25.000000	27.000000
0.650000	90.120000	61.850000	0.000000	0.000000	151.000000	54.000000	22.000000	24.000000
0.660000	90.330000	62.040000	0.000000	0.000000	152.000000	54.000000	21.000000	19.000000
0.670000	90.330000	62.040000	142.000000	1.000000	152.000000	54.000000	0.000000	0.000000
0.680000	90.660000	62.260000	171.000000	0.000000	152.000000	54.000000	33.000000	22.000000
0.690000	90.660000	62.260000	210.000000	0.000000	152.000000	54.000000	0.000000	0.000000
0.700000	90.610000	62.260000	255.000000	0.000000	153.000000	53.000000	-5.000000	0.000000
0.710000	90.610000	62.140000	332.000000	0.000000	153.000000	53.000000	0.000000	-12.000000
0.720000	90.470000	61.800000	372.000000	0.000000	154.000000	53.000000	-14.000000	-34.000000
0.730000	90.300000	61.330000	388.000000	0.000000	154.000000	53.000000	-17.000000	-47.000000
0.740000	90.300000	60.900000	392.000000	0.000000	154.000000	53.000000	0.000000	-43.000000
0.750000	90.300000	60.540000	368.000000	0.000000	154.000000	53.000000	0.000000	-36.000000
0.760000	90.360000	60.240000	222.000000	0.000000	154.000000	53.000000	6.000000	-30.000000
0.770000	90.360000	60.240000	0.000000	1.000000	154.000000	53.000000	0.000000	0.000000
0.780000	90.570000	60.090000	0.000000	0.000000	152.000000	54.000000	21.000000	-15.000000
0.790000	90.740000	60.240000	0.000000	0.000000	152.000000	54.000000	17.000000	15.000000
0.800000	90.900000	60.780000	0.000000	0.000000	152.000000	54.000000	16.000000	54.000000
0.810000	90.990000	61.320000	0.000000	0.000000	152.000000	54.000000	9.000000	54.000000
0.820000	91.050000	61.920000	0.000000	0.000000	152.000000	54.000000	6.000000	60.000000
0.830000	91.100000	62.550000	0.000000	0.000000	152.000000	54.000000	5.000000	63.000000
0.840000	91.100000	62.950000	0.000000	0.000000	152.000000	54.000000	0.000000	40.000000
0.850000	91.100000	62.950000	191.000000	1.000000	153.000000	53.000000	0.000000	0.000000
0.860000	91.050000	63.240000	191.000000	0.000000	153.000000	53.000000	-5.000000	29.000000
0.870000	90.890000	63.240000	195.000000	0.000000	153.000000	53.000000	-16.000000	0.000000
0.880000	90.680000	63.150000	193.000000	0.000000	153.000000	53.000000	-21.000000	-9.000000
0.890000	90.620000	62.960000	170.000000	0.000000	155.000000	52.000000	-6.000000	-19.000000
0.900000	90.720000	62.720000	93.000000	0.000000	155.000000	52.000000	10.000000	-24.000000
0.910000	90.930000	62.480000	15.000000	0.000000	155.000000	52.000000	21.000000	-24.000000
0.920000	90.930000	62.480000	0.000000	1.000000	156.000000	53.000000	0.000000	0.000000
0.930000	91.670000	62.140000	0.000000	0.000000	156.000000	53.000000	74.000000	-34.000000
0.940000	91.670000	62.140000	36.000000	1.000000	156.000000	53.000000	0.000000	0.000000
0.950000	91.940000	61.940000	109.000000	0.000000	156.000000	53.000000	27.000000	-20.000000
0.960000	91.770000	61.790000	156.000000	0.000000	154.000000	53.000000	-17.000000	-15.000000
0.970000	91.540000	61.580000	202.000000	0.000000	154.000000	53.000000	-23.000000	-21.000000
0.980000	91.270000	61.310000	241.000000	0.000000	154.000000	53.000000	-27.000000	-27.000000
0.990000	91.060000	61.000000	269.000000	0.000000	154.000000	53.000000	-21.000000	-31.000000
1.000000	90.910000	60.790000	275.000000	0.000000	154.000000	53.000000	-15.000000	-21.000000
1.010000	90.970000	60.650000	273.000000	0.000000	154.000000	53.000000	6.000000	-14.000000
1.020000	91.140000	60.650000	299.000000	0.000000	154.000000	53.000000	17.000000	0.000000
1.030000	91.390000	60.730000	307.000000	0.000000	154.000000	53.000000	25.000000	8.000000
1.040000	91.750000	60.970000	311.000000	0.000000	154.000000	53.000000	36.000000	24.000000
1.050000	92.190000	61.480000	312.000000	0.000000	154.000000	53.000000	44.000000	51.000000
1.060000	92.620000	62.050000	339.000000	0.000000	154.000000	53.000000	43.000000	57.000000
1.070000	92.850000	62.670000	342.000000	0.000000	154.000000	53.000000	23.000000	62.000000
1.080000	92.950000	63.390000	339.000000	0.000000	154.000000	53.000000	10.000000	72.000000
1.090000	93.020000	64.110000	369.000000	0.000000	153.000000	53.000000	7.000000	72.000000
1.100000	93.020000	64.540000	394.000000	0.000000	154.000000	53.000000	0.000000	43.000000
1.110000	93.020000	64.780000	407.000000	0.000000	154.000000	53.000000	0.000000	24.000000
1.120000	93.020000	64.780000	423.000000	0.000000	154.000000	53.000000	0.000000	0.000000
1.130000	92.920000	64.350000	430.000000	0.000000	156.000000	53.000000	-10.000000	-43.000000
1.140000	92.790000	63.700000	431.000000	0.000000	156.000000	53.000000	-13.000000	-65.000000
1.150000	92.550000	62.870000	441.000000	0.000000	156.000000	53.000000	-24.000000	-83.000000
1.160000	92.340000	62.070000	440.000000	0.000000	156.000000	53.000000	-21.000000	-80.000000
1.170000	92.390000	61.560000	448.000000	0.000000	156.000000	53.000000	5.000000	-51.000000
1.180000	92.600000	61.250000	448.000000	0.000000	156.000000	53.000000	21.000000	-31.000000
1.190000	92.990000	61.250000	442.000000	0.000000	154.000000	53.000000	39.000000	0.000000
1.200000	93.560000	61.470000	452.000000	0.000000	153.000000	53.000000	57.000000	22.000000
1.210000	94.240000	61.920000	455.000000	0.000000	153.000000	53.000000	68.000000	45.000000
1.220000	94.580000	62.430000	473.000000	0.000000	152.000000	53.000000	34.000000	51.000000
1.230000	94.680000	62.890000	491.000000	0.000000	152.000000	53.000000	10.000000	46.000000
1.240000	94.620000	63.330000	540.000000	0.000000	152.000000	53.000000	-6.000000	44.000000
1.250000	94.550000	63.330000	553.000000	0.000000	150.000000	52.000000	-7.000000	0.000000
1.260000	94.480000	63.330000	548.000000	0.000000	150.000000	52.000000	-7.000000	0.000000
1.270000	94.360000	63.120000	551.000000	0.000000	152.000000	53.000000	-12.000000	-21.000000
1.280000	94.200000	62.760000	551.000000	0.000000	152.000000	53.000000	-16.000000	-36.000000
1.290000	94.200000	62.320000	544.000000	0.000000	152.000000	53.000000	0.000000	-44.000000
1.300000	94.350000	61.930000	489.000000	0.000000	153.000000	52.000000	15.000000	-39.000000
1.310000	94.660000	61.740000	458.000000	0.000000	153.000000	52.000000	31.000000	-19.000000
1.320000	95.170000	61.660000	410.000000	0.000000	153.000000	52.000000	51.000000	-8.000000
1.330000	95.740000	61.750000	354.000000	0.000000	152.000000	53.000000	57.000000	9.000000
1.340000	96.200000	61.930000	353.000000	0.000000	150.000000	52.000000	46.000000	18.000000
1.350000	96.560000	62.180000	354.000000	0.000000	150.000000	52.000000	36.000000	25.000000
1.360000	96.560000	62.360000	366.000000	0.000000	150.000000	52.000000	0.000000	18.000000
1.370000	96.440000	62.520000	402.000000	0.000000	150.000000	52.000000	-12.000000	16.000000
1.380000	96.250000	62.620000	441.000000	0.000000	150.000000	52.000000	-19.000000	10.000000
1.390000	96.080000	62.620000	467.000000	0.000000	150.000000	52.000000	-17.000000	0.000000
1.400000	95.940000	62.670000	472.000000	0.000000	150.000000	52.000000	-14.000000	5.000000
1.410000	95.880000	62.670000	468.000000	0.000000	150.000000	52.000000	-6.000000	0.000000
1.420000	95.880000	62.510000	469.000000	0.000000	150.000000	52.000000	0.000000	-16.000000
1.430000	95.980000	62.320000	473.000000	0.000000	150.000000	52.000000	10.000000	-19.000000
1.440000	96.140000	62.100000	485.000000	0.000000	150.000000	52.000000	16.000000	-22.000000
1.450000	96.370000	61.990000	456.000000	0.000000	150.000000	52.000000	23.000000	-11.000000
1.460000	96.670000	61.990000	446.000000	0.000000	149.000000	52.000000	30.000000	0.000000
1.470000	96.940000	61.990000	410.000000	0.000000	149.000000	52.000000	27.000000	0.000000
1.480000	97.190000	62.100000	361.000000	0.000000	149.000000	52.000000	25.000000	11.000000
1.490000	97.270000	62.170000	256.000000	0.000000	149.000000	52.000000	8.000000	7.000000
1.500000	97.270000	62.170000	0.000000	1.000000	149.000000	52.000000	0.000000	0.000000
1.510000	97.270000	62.430000	0.000000	0.000000	149.000000	52.000000	0.000000	26.000000
1.520000	97.210000	62.690000	0.000000	0.000000	149.000000	52.000000	-6.000000	26.000000
1.530000	97.080000	62.980000	0.000000	0.000000	150.000000	52.000000	-13.000000	29.000000
1.540000	96.940000	63.300000	0.000000	0.000000	150.000000	52.000000	-14.000000	32.000000
1.550000	96.810000	63.610000	0.000000	0.000000	150.000000	52.000000	-13.000000	31.000000
1.560000	96.680000	63.740000	0.000000	0.000000	150.000000	52.000000	-13.000000	13.000000
1.570000	96.680000	63.740000	242.000000	1.000000	150.000000	52.000000	0.000000	0.000000
1.580000	96.330000	63.800000	267.000000	0.000000	150.000000	52.000000	-35.000000	6.000000
1.590000	96.050000	63.800000	304.000000	0.000000	150.000000	52.000000	-28.000000	0.000000
1.600000	96.050000	63.800000	322.000000	0.000000	150.000000	52.000000	0.000000	0.000000
1.610000	96.050000	63.800000	316.000000	0.000000	150.000000	52.000000	0.000000	0.000000
1.620000	96.050000	63.800000	235.000000	0.000000	150.000000	52.000000	0.000000	0.000000
1.630000	96.050000	63.800000	112.000000	0.000000	150.000000	52.000000	0.000000	0.000000
1.640000	96.050000	63.800000	0.000000	1.000000	150.000000	52.000000	0.000000	0.000000
1.650000	96.700000	63.830000	0.000000	0.000000	149.000000	52.000000	65.000000	3.000000
1.660000	97.120000	64.110000	0.000000	0.000000	149.000000	52.000000	42.000000	28.000000
1.670000	97.470000	64.530000	0.000000	0.000000	150.000000	52.000000	35.000000	42.000000
1.680000	97.760000	64.980000	0.000000	0.000000	150.000000	52.000000	29.000000	45.000000
1.690000	98.020000	65.450000	0.000000	0.000000	149.000000	53.000000	26.000000	47.000000
1.700000	98.020000	65.450000	107.000000	1.000000	151.000000	53.000000	0.000000	0.000000
1.710000	98.140000	66.310000	173.000000	0.000000	151.000000	53.000000	12.000000	86.000000
1.720000	97.990000	66.650000	272.000000	0.000000	151.000000	54.000000	-15.000000	34.000000
1.730000	97.990000	66.650000	339.000000	0.000000	151.000000	54.000000	0.000000	0.000000
1.740000	97.990000	66.650000	361.000000	0.000000	153.000000	55.000000	0.000000	0.000000
1.750000	97.990000	66.650000	388.000000	0.000000	152.000000	56.000000	0.000000	0.000000
1.760000	97.920000	66.140000	430.000000	0.000000	152.000000	56.000000	-7.000000	-51.000000
1.770000	97.920000	65.350000	481.000000	0.000000	152.000000	56.000000	0.000000	-79.000000
1.780000	98.020000	64.100000	494.000000	0.000000	152.000000	56.000000	10.000000	-125.000000
1.790000	98.080000	62.590000	519.000000	0.000000	152.000000	56.000000	6.000000	-151.000000
1.800000	98.080000	60.910000	512.000000	0.000000	151.000000	54.000000	0.000000	-168.000000
1.810000	98.080000	59.250000	518.000000	0.000000	151.000000	54.000000	0.000000	-166.000000
1.820000	98.080000	57.930000	530.000000	0.000000	151.000000	54.000000	0.000000	-132.000000
1.830000	98.080000	56.850000	537.000000	0.000000	150.000000	55.000000	0.000000	-108.000000
1.840000	97.780000	56.290000	546.000000	0.000000	149.000000	55.000000	-30.000000	-56.000000
1.850000	97.350000	56.020000	551.000000	0.000000	149.000000	56.000000	-43.000000	-27.000000
1.860000	96.970000	55.950000	519.000000	0.000000	149.000000	56.000000	-38.000000	-7.000000
1.870000	96.610000	56.260000	467.000000	0.000000	148.000000	57.000000	-36.000000	31.000000
1.880000	96.290000	56.910000	334.000000	0.000000	148.000000	57.000000	-32.000000	65.000000
1.890000	96.290000	57.800000	170.000000	0.000000	148.000000	57.000000	0.000000	89.000000
1.900000	96.580000	58.920000	30.000000	0.000000	148.000000	57.000000	29.000000	112.000000
1.910000	96.580000	58.920000	0.000000	1.000000	148.000000	57.000000	0.000000	0.000000
1.920000	97.800000	60.870000	0.000000	0.000000	148.000000	57.000000	122.000000	195.000000
1.930000	98.510000	61.500000	0.000000	0.000000	149.000000	56.000000	71.000000	63.000000
1.940000	99.210000	62.070000	0.000000	0.000000	150.000000	55.000000	70.000000	57.000000
1.950000	99.210000	62.070000	48.000000	1.000000	150.000000	55.000000	0.000000	0.000000
1.960000	99.910000	62.960000	149.000000	0.000000	151.000000	54.000000	70.000000	89.000000
1.970000	99.960000	63.320000	206.000000	0.000000	153.000000	55.000000	5.000000	36.000000
1.980000	99.960000	63.530000	324.000000	0.000000	153.000000	54.000000	0.000000	21.000000
1.990000	99.830000	63.650000	381.000000	0.000000	153.000000	54.000000	-13.000000	12.000000
2.000000	99.570000	63.650000	433.000000	0.000000	155.000000	54.000000	-26.000000	0.000000
2.010000	99.210000	63.440000	465.000000	0.000000	155.000000	54.000000	-36.000000	-21.000000
2.020000	98.790000	63.120000	467.000000	0.000000	155.000000	54.000000	-42.000000	-32.000000
2.030000	98.350000	62.770000	474.000000	0.000000	153.000000	54.000000	-44.000000	-35.000000
2.040000	98.150000	62.420000	460.000000	0.000000	154.000000	53.000000	-20.000000	-35.000000
2.050000	98.150000	62.190000	449.000000	0.000000	152.000000	54.000000	0.000000	-23.000000
2.060000	98.310000	62.050000	420.000000	0.000000	152.000000	54.000000	16.000000	-14.000000
2.070000	98.710000	62.140000	404.000000	0.000000	151.000000	53.000000	40.000000	9.000000
2.080000	99.260000	62.420000	369.000000	0.000000	151.000000	53.000000	55.000000	28.000000
2.090000	99.800000	62.820000	354.000000	0.000000	151.000000	53.000000	54.000000	40.000000
2.100000	100.080000	63.270000	358.000000	0.000000	151.000000	53.000000	28.000000	45.000000
2.110000	100.190000	63.670000	364.000000	0.000000	151.000000	53.000000	11.000000	40.000000
2.120000	100.190000	63.950000	366.000000	0.000000	152.000000	54.000000	0.000000	28.000000
2.130000	100.190000	64.130000	381.000000	0.000000	152.000000	54.000000	0.000000	18.000000
2.140000	100.190000	64.130000	379.000000	0.000000	153.000000	54.000000	0.000000	0.000000
2.150000	100.190000	64.130000	379.000000	0.000000	153.000000	54.000000	0.000000	0.000000
2.160000	100.190000	63.820000	382.000000	0.000000	153.000000	54.000000	0.000000	-31.000000
2.170000	100.190000	63.520000	381.000000	0.000000	153.000000	54.000000	0.000000	-30.000000
2.180000	100.140000	63.150000	382.000000	0.000000	153.000000	54.000000	-5.000000	-37.000000
2.190000	100.200000	62.880000	386.000000	0.000000	153.000000	54.000000	6.000000	-27.000000
2.200000	100.320000	62.690000	387.000000	0.000000	153.000000	54.000000	12.000000	-19.000000
2.210000	100.500000	62.640000	394.000000	0.000000	153.000000	54.000000	18.000000	-5.000000
