t	x	y	pressure	penup	azimuth	inclination	v_x	v_y
0.000000	9.460000	10.280000	167.000000	1.000000	185.000000	34.000000	0.000000	0.000000
0.010000	9.100000	9.880000	241.000000	0.000000	185.000000	35.000000	-36.000000	-40.000000
0.020000	9.100000	9.820000	346.000000	0.000000	184.000000	36.000000	0.000000	-6.000000
0.030000	9.280000	9.670000	448.000000	0.000000	185.000000	37.000000	18.000000	-15.000000
0.040000	9.680000	9.610000	495.000000	0.000000	185.000000	38.000000	40.000000	-6.000000
0.050000	10.440000	9.610000	522.000000	0.000000	184.000000	39.000000	76.000000	0.000000
0.060000	11.440000	9.880000	532.000000	0.000000	184.000000	40.000000	100.000000	27.000000
0.070000	12.420000	10.290000	540.000000	0.000000	184.000000	40.000000	98.000000	41.000000
0.080000	13.400000	10.790000	541.000000	0.000000	185.000000	41.000000	98.000000	50.000000
0.090000	14.370000	11.430000	544.000000	0.000000	186.000000	42.000000	97.000000	64.000000
0.100000	15.040000	12.250000	546.000000	0.000000	187.000000	42.000000	67.000000	82.000000
0.110000	15.320000	13.190000	537.000000	0.000000	188.000000	43.000000	28.000000	94.000000
0.120000	15.320000	13.840000	543.000000	0.000000	189.000000	43.000000	0.000000	65.000000
0.130000	15.120000	14.310000	527.000000	0.000000	190.000000	43.000000	-20.000000	47.000000
0.140000	14.610000	14.670000	522.000000	0.000000	191.000000	42.000000	-51.000000	36.000000
0.150000	13.900000	14.670000	522.000000	0.000000	192.000000	41.000000	-71.000000	0.000000
0.160000	13.240000	14.410000	527.000000	0.000000	193.000000	41.000000	-66.000000	-26.000000
0.170000	12.580000	13.880000	530.000000	0.000000	193.000000	41.000000	-66.000000	-53.000000
0.180000	12.160000	13.070000	544.000000	0.000000	192.000000	40.000000	-42.000000	-81.000000
0.190000	11.900000	12.110000	548.000000	0.000000	192.000000	40.000000	-26.000000	-96.000000
0.200000	11.900000	11.040000	570.000000	0.000000	192.000000	40.000000	0.000000	-107.000000
0.210000	12.110000	10.230000	584.000000	0.000000	192.000000	40.000000	21.000000	-81.000000
0.220000	12.410000	9.300000	586.000000	0.000000	191.000000	40.000000	30.000000	-93.000000
0.230000	12.790000	8.300000	597.000000	0.000000	191.000000	40.000000	38.000000	-100.000000
0.240000	13.170000	7.180000	602.000000	0.000000	190.000000	41.000000	38.000000	-112.000000
0.250000	13.370000	5.980000	600.000000	0.000000	190.000000	41.000000	20.000000	-120.000000
0.260000	13.450000	4.720000	605.000000	0.000000	191.000000	41.000000	8.000000	-126.000000
0.270000	13.370000	3.930000	606.000000	0.000000	191.000000	41.000000	-8.000000	-79.000000
0.280000	13.060000	3.350000	609.000000	0.000000	192.000000	41.000000	-31.000000	-58.000000
0.290000	12.590000	2.900000	613.000000	0.000000	192.000000	41.000000	-47.000000	-45.000000
0.300000	11.780000	2.570000	611.000000	0.000000	193.000000	41.000000	-81.000000	-33.000000
0.310000	10.800000	2.670000	605.000000	0.000000	194.000000	41.000000	-98.000000	10.000000
0.320000	9.700000	3.050000	580.000000	0.000000	194.000000	41.000000	-110.000000	38.000000
0.330000	8.660000	3.760000	566.000000	0.000000	195.000000	41.000000	-104.000000	71.000000
0.340000	7.610000	4.360000	588.000000	0.000000	195.000000	40.000000	-105.000000	60.000000
0.350000	6.680000	4.880000	591.000000	0.000000	194.000000	39.000000	-93.000000	52.000000
0.360000	5.830000	5.190000	638.000000	0.000000	195.000000	38.000000	-85.000000	31.000000
0.370000	5.290000	5.290000	724.000000	0.000000	194.000000	36.000000	-54.000000	10.000000
0.380000	5.120000	5.290000	762.000000	0.000000	193.000000	34.000000	-17.000000	0.000000
0.390000	5.190000	5.290000	794.000000	0.000000	192.000000	33.000000	7.000000	0.000000
0.400000	5.610000	5.580000	799.000000	0.000000	191.000000	31.000000	42.000000	29.000000
0.410000	7.040000	6.100000	820.000000	0.000000	191.000000	32.000000	143.000000	52.000000
0.420000	9.150000	6.760000	833.000000	0.000000	191.000000	32.000000	211.000000	66.000000
0.430000	11.860000	7.420000	854.000000	0.000000	190.000000	32.000000	271.000000	66.000000
0.440000	14.900000	8.070000	878.000000	0.000000	190.000000	34.000000	304.000000	65.000000
0.450000	18.150000	8.480000	908.000000	0.000000	189.000000	35.000000	325.000000	41.000000
0.460000	21.620000	8.860000	899.000000	0.000000	189.000000	38.000000	347.000000	38.000000
0.470000	25.230000	9.190000	912.000000	0.000000	188.000000	40.000000	361.000000	33.000000
0.480000	28.930000	9.470000	917.000000	0.000000	187.000000	42.000000	370.000000	28.000000
0.490000	31.980000	9.680000	950.000000	0.000000	187.000000	45.000000	305.000000	21.000000
0.500000	34.400000	9.910000	949.000000	0.000000	186.000000	47.000000	242.000000	23.000000
0.510000	36.390000	10.160000	967.000000	0.000000	186.000000	49.000000	199.000000	25.000000
0.520000	37.820000	10.360000	982.000000	0.000000	185.000000	51.000000	143.000000	20.000000
0.530000	38.620000	10.540000	983.000000	0.000000	185.000000	53.000000	80.000000	18.000000
0.540000	39.000000	10.670000	973.000000	0.000000	184.000000	54.000000	38.000000	13.000000
0.550000	39.000000	10.740000	915.000000	0.000000	183.000000	55.000000	0.000000	7.000000
0.560000	39.000000	10.740000	760.000000	0.000000	181.000000	56.000000	0.000000	0.000000
0.570000	38.800000	10.800000	396.000000	0.000000	180.000000	56.000000	-20.000000	6.000000
0.580000	38.800000	10.800000	0.000000	1.000000	180.000000	56.000000	0.000000	0.000000
0.590000	37.600000	10.850000	0.000000	0.000000	180.000000	56.000000	-120.000000	5.000000
0.600000	36.790000	10.850000	0.000000	0.000000	179.000000	56.000000	-81.000000	0.000000
0.610000	36.080000	10.910000	0.000000	0.000000	179.000000	56.000000	-71.000000	6.000000
0.620000	35.420000	11.000000	0.000000	0.000000	180.000000	55.000000	-66.000000	9.000000
0.630000	34.390000	11.080000	0.000000	0.000000	180.000000	54.000000	-103.000000	8.000000
0.640000	32.970000	11.180000	0.000000	0.000000	180.000000	52.000000	-142.000000	10.000000
0.650000	31.280000	11.260000	0.000000	0.000000	180.000000	50.000000	-169.000000	8.000000
0.660000	29.370000	11.340000	0.000000	0.000000	180.000000	48.000000	-191.000000	8.000000
0.670000	27.160000	11.430000	0.000000	0.000000	179.000000	46.000000	-221.000000	9.000000
0.680000	24.750000	11.430000	0.000000	0.000000	177.000000	44.000000	-241.000000	0.000000
0.690000	22.650000	11.340000	0.000000	0.000000	176.000000	42.000000	-210.000000	-9.000000
0.700000	20.880000	11.140000	0.000000	0.000000	175.000000	39.000000	-177.000000	-20.000000
0.710000	19.330000	10.940000	0.000000	0.000000	175.000000	37.000000	-155.000000	-20.000000
0.720000	18.150000	10.720000	0.000000	0.000000	173.000000	36.000000	-118.000000	-22.000000
0.730000	17.290000	10.470000	0.000000	0.000000	173.000000	34.000000	-86.000000	-25.000000
0.740000	16.650000	10.330000	0.000000	0.000000	172.000000	32.000000	-64.000000	-14.000000
0.750000	16.600000	10.270000	0.000000	0.000000	173.000000	31.000000	-5.000000	-6.000000
0.760000	16.820000	10.270000	0.000000	0.000000	172.000000	31.000000	22.000000	0.000000
0.770000	17.210000	10.270000	0.000000	0.000000	172.000000	31.000000	39.000000	0.000000
0.780000	17.360000	10.270000	0.000000	0.000000	171.000000	31.000000	15.000000	0.000000
0.790000	17.360000	10.160000	0.000000	0.000000	171.000000	32.000000	0.000000	-11.000000
0.800000	17.160000	10.100000	0.000000	0.000000	172.000000	32.000000	-20.000000	-6.000000
0.810000	17.160000	10.100000	0.000000	0.000000	172.000000	33.000000	0.000000	0.000000
0.820000	17.260000	9.980000	0.000000	0.000000	173.000000	34.000000	10.000000	-12.000000
0.830000	17.400000	9.900000	0.000000	0.000000	172.000000	35.000000	14.000000	-8.000000
0.840000	17.470000	9.830000	0.000000	0.000000	173.000000	36.000000	7.000000	-7.000000
0.850000	17.470000	9.750000	0.000000	0.000000	173.000000	36.000000	0.000000	-8.000000
0.860000	17.470000	9.680000	0.000000	0.000000	173.000000	37.000000	0.000000	-7.000000
0.870000	17.320000	9.600000	0.000000	0.000000	173.000000	37.000000	-15.000000	-8.000000
0.880000	17.200000	9.520000	0.000000	0.000000	173.000000	38.000000	-12.000000	-8.000000
0.890000	17.050000	9.460000	0.000000	0.000000	173.000000	38.000000	-15.000000	-6.000000
0.900000	16.890000	9.380000	0.000000	0.000000	174.000000	39.000000	-16.000000	-8.000000
0.910000	16.600000	9.380000	0.000000	0.000000	174.000000	39.000000	-29.000000	0.000000
0.920000	16.330000	9.380000	0.000000	0.000000	177.000000	39.000000	-27.000000	0.000000
0.930000	16.080000	9.380000	0.000000	0.000000	179.000000	39.000000	-25.000000	0.000000
0.940000	15.820000	9.460000	0.000000	0.000000	182.000000	39.000000	-26.000000	8.000000
0.950000	15.620000	9.460000	0.000000	0.000000	185.000000	39.000000	-20.000000	0.000000
0.960000	15.440000	9.570000	0.000000	0.000000	187.000000	39.000000	-18.000000	11.000000
0.970000	15.330000	9.650000	0.000000	0.000000	191.000000	39.000000	-11.000000	8.000000
0.980000	15.220000	9.650000	0.000000	0.000000	193.000000	38.000000	-11.000000	0.000000
0.990000	15.100000	9.650000	0.000000	0.000000	195.000000	38.000000	-12.000000	0.000000
1.000000	15.030000	9.700000	0.000000	0.000000	196.000000	38.000000	-7.000000	5.000000
1.010000	14.940000	9.700000	0.000000	0.000000	196.000000	38.000000	-9.000000	0.000000
1.020000	14.940000	9.640000	0.000000	0.000000	196.000000	38.000000	0.000000	-6.000000
1.030000	15.000000	9.640000	0.000000	0.000000	195.000000	38.000000	6.000000	0.000000
1.040000	15.160000	9.690000	0.000000	0.000000	194.000000	39.000000	16.000000	5.000000
1.050000	15.160000	9.690000	101.000000	1.000000	194.000000	39.000000	0.000000	0.000000
1.060000	15.580000	9.740000	195.000000	0.000000	192.000000	39.000000	42.000000	5.000000
1.070000	15.580000	9.740000	249.000000	0.000000	191.000000	40.000000	0.000000	0.000000
1.080000	15.650000	9.810000	319.000000	0.000000	191.000000	41.000000	7.000000	7.000000
1.090000	15.650000	9.810000	361.000000	0.000000	190.000000	42.000000	0.000000	0.000000
1.100000	15.650000	9.720000	413.000000	0.000000	190.000000	43.000000	0.000000	-9.000000
1.110000	15.510000	9.600000	447.000000	0.000000	190.000000	43.000000	-14.000000	-12.000000
1.120000	15.340000	9.320000	486.000000	0.000000	190.000000	43.000000	-17.000000	-28.000000
1.130000	15.140000	8.950000	504.000000	0.000000	191.000000	42.000000	-20.000000	-37.000000
1.140000	14.950000	8.640000	513.000000	0.000000	191.000000	42.000000	-19.000000	-31.000000
1.150000	14.880000	8.400000	537.000000	0.000000	192.000000	42.000000	-7.000000	-24.000000
1.160000	14.880000	8.210000	539.000000	0.000000	191.000000	42.000000	0.000000	-19.000000
1.170000	15.030000	8.060000	540.000000	0.000000	191.000000	42.000000	15.000000	-15.000000
1.180000	15.160000	8.000000	540.000000	0.000000	190.000000	43.000000	13.000000	-6.000000
1.190000	15.500000	8.000000	473.000000	0.000000	190.000000	42.000000	34.000000	0.000000
1.200000	15.980000	8.140000	315.000000	0.000000	189.000000	42.000000	48.000000	14.000000
1.210000	15.980000	8.140000	0.000000	1.000000	189.000000	42.000000	0.000000	0.000000
1.220000	16.990000	8.570000	0.000000	0.000000	188.000000	42.000000	101.000000	43.000000
1.230000	17.250000	8.890000	0.000000	0.000000	186.000000	42.000000	26.000000	32.000000
1.240000	17.380000	9.200000	0.000000	0.000000	185.000000	42.000000	13.000000	31.000000
1.250000	17.470000	9.520000	0.000000	0.000000	184.000000	42.000000	9.000000	32.000000
1.260000	17.530000	9.860000	0.000000	0.000000	182.000000	42.000000	6.000000	34.000000
1.270000	17.530000	10.180000	0.000000	0.000000	180.000000	42.000000	0.000000	32.000000
1.280000	17.530000	10.510000	0.000000	0.000000	178.000000	42.000000	0.000000	33.000000
1.290000	17.530000	10.840000	0.000000	0.000000	177.000000	41.000000	0.000000	33.000000
1.300000	17.400000	11.170000	0.000000	0.000000	176.000000	41.000000	-13.000000	33.000000
1.310000	17.330000	11.340000	0.000000	0.000000	176.000000	41.000000	-7.000000	17.000000
1.320000	17.330000	11.340000	255.000000	1.000000	175.000000	40.000000	0.000000	0.000000
1.330000	17.330000	11.340000	372.000000	0.000000	175.000000	41.000000	0.000000	0.000000
1.340000	17.330000	11.340000	474.000000	0.000000	175.000000	41.000000	0.000000	0.000000
1.350000	17.330000	11.770000	529.000000	0.000000	175.000000	41.000000	0.000000	43.000000
1.360000	17.330000	11.770000	538.000000	0.000000	174.000000	42.000000	0.000000	0.000000
1.370000	17.380000	11.770000	464.000000	0.000000	173.000000	43.000000	5.000000	0.000000
1.380000	17.380000	11.770000	81.000000	0.000000	172.000000	44.000000	0.000000	0.000000
1.390000	17.380000	11.770000	0.000000	1.000000	172.000000	45.000000	0.000000	0.000000
1.400000	17.540000	11.770000	0.000000	0.000000	172.000000	45.000000	16.000000	0.000000
1.410000	17.810000	11.660000	0.000000	0.000000	172.000000	45.000000	27.000000	-11.000000
1.420000	18.090000	11.440000	0.000000	0.000000	173.000000	45.000000	28.000000	-22.000000
1.430000	18.400000	11.110000	0.000000	0.000000	174.000000	44.000000	31.000000	-33.000000
1.440000	18.880000	10.790000	0.000000	0.000000	174.000000	44.000000	48.000000	-32.000000
1.450000	19.470000	10.470000	0.000000	0.000000	175.000000	43.000000	59.000000	-32.000000
1.460000	20.000000	10.130000	0.000000	0.000000	176.000000	43.000000	53.000000	-34.000000
1.470000	20.000000	10.130000	212.000000	1.000000	177.000000	43.000000	0.000000	0.000000
1.480000	20.360000	9.700000	361.000000	0.000000	177.000000	43.000000	36.000000	-43.000000
1.490000	20.360000	9.700000	485.000000	0.000000	178.000000	44.000000	0.000000	0.000000
1.500000	20.220000	9.750000	567.000000	0.000000	178.000000	44.000000	-14.000000	5.000000
1.510000	19.970000	9.860000	588.000000	0.000000	178.000000	45.000000	-25.000000	11.000000
1.520000	19.660000	10.010000	605.000000	0.000000	178.000000	46.000000	-31.000000	15.000000
1.530000	19.280000	10.070000	608.000000	0.000000	178.000000	46.000000	-38.000000	6.000000
1.540000	18.850000	9.930000	616.000000	0.000000	177.000000	46.000000	-43.000000	-14.000000
1.550000	18.350000	9.670000	617.000000	0.000000	177.000000	46.000000	-50.000000	-26.000000
1.560000	17.870000	9.280000	647.000000	0.000000	176.000000	46.000000	-48.000000	-39.000000
1.570000	17.600000	8.870000	664.000000	0.000000	175.000000	46.000000	-27.000000	-41.000000
1.580000	17.460000	8.440000	672.000000	0.000000	175.000000	46.000000	-14.000000	-43.000000
1.590000	17.460000	8.160000	676.000000	0.000000	175.000000	46.000000	0.000000	-28.000000
1.600000	17.630000	7.970000	673.000000	0.000000	175.000000	45.000000	17.000000	-19.000000
1.610000	18.010000	7.890000	611.000000	0.000000	176.000000	45.000000	38.000000	-8.000000
1.620000	18.560000	7.980000	488.000000	0.000000	177.000000	45.000000	55.000000	9.000000
1.630000	19.120000	8.180000	132.000000	0.000000	177.000000	44.000000	56.000000	20.000000
1.640000	19.120000	8.180000	0.000000	1.000000	178.000000	44.000000	0.000000	0.000000
1.650000	19.970000	8.920000	0.000000	0.000000	179.000000	44.000000	85.000000	74.000000
1.660000	20.260000	9.420000	0.000000	0.000000	179.000000	44.000000	29.000000	50.000000
1.670000	20.450000	10.080000	0.000000	0.000000	179.000000	44.000000	19.000000	66.000000
1.680000	20.560000	11.020000	0.000000	0.000000	179.000000	44.000000	11.000000	94.000000
1.690000	20.740000	12.150000	0.000000	0.000000	179.000000	44.000000	18.000000	113.000000
1.700000	20.970000	13.220000	0.000000	0.000000	179.000000	44.000000	23.000000	107.000000
1.710000	20.970000	13.220000	80.000000	1.000000	178.000000	44.000000	0.000000	0.000000
1.720000	21.550000	13.920000	301.000000	0.000000	178.000000	43.000000	58.000000	70.000000
1.730000	21.630000	14.200000	324.000000	0.000000	178.000000	43.000000	8.000000	28.000000
1.740000	21.630000	14.120000	438.000000	0.000000	178.000000	43.000000	0.000000	-8.000000
1.750000	21.500000	13.800000	512.000000	0.000000	178.000000	44.000000	-13.000000	-32.000000
1.760000	21.280000	13.320000	553.000000	0.000000	178.000000	44.000000	-22.000000	-48.000000
1.770000	20.970000	12.530000	606.000000	0.000000	178.000000	45.000000	-31.000000	-79.000000
1.780000	20.630000	11.540000	641.000000	0.000000	178.000000	46.000000	-34.000000	-99.000000
1.790000	20.300000	10.770000	664.000000	0.000000	178.000000	46.000000	-33.000000	-77.000000
1.800000	20.050000	10.080000	696.000000	0.000000	178.000000	46.000000	-25.000000	-69.000000
1.810000	19.890000	9.450000	697.000000	0.000000	178.000000	46.000000	-16.000000	-63.000000
1.820000	19.950000	8.930000	708.000000	0.000000	178.000000	46.000000	6.000000	-52.000000
1.830000	20.130000	8.590000	716.000000	0.000000	178.000000	46.000000	18.000000	-34.000000
1.840000	20.420000	8.380000	719.000000	0.000000	178.000000	46.000000	29.000000	-21.000000
1.850000	20.760000	8.310000	728.000000	0.000000	178.000000	46.000000	34.000000	-7.000000
1.860000	21.210000	8.410000	724.000000	0.000000	179.000000	46.000000	45.000000	10.000000
1.870000	21.710000	8.620000	702.000000	0.000000	179.000000	46.000000	50.000000	21.000000
1.880000	22.220000	9.000000	699.000000	0.000000	179.000000	46.000000	51.000000	38.000000
1.890000	22.550000	9.350000	684.000000	0.000000	179.000000	47.000000	33.000000	35.000000
1.900000	22.770000	9.650000	687.000000	0.000000	179.000000	47.000000	22.000000	30.000000
1.910000	22.890000	9.770000	685.000000	0.000000	180.000000	47.000000	12.000000	12.000000
1.920000	22.890000	9.770000	685.000000	0.000000	180.000000	48.000000	0.000000	0.000000
1.930000	22.890000	9.770000	694.000000	0.000000	180.000000	48.000000	0.000000	0.000000
1.940000	22.760000	9.520000	690.000000	0.000000	180.000000	48.000000	-13.000000	-25.000000
1.950000	22.690000	9.190000	697.000000	0.000000	180.000000	48.000000	-7.000000	-33.000000
1.960000	22.630000	8.950000	700.000000	0.000000	180.000000	48.000000	-6.000000	-24.000000
1.970000	22.680000	8.750000	702.000000	0.000000	180.000000	48.000000	5.000000	-20.000000
1.980000	22.770000	8.580000	647.000000	0.000000	180.000000	48.000000	9.000000	-17.000000
1.990000	22.910000	8.580000	494.000000	0.000000	179.000000	48.000000	14.000000	0.000000
2.000000	23.050000	8.580000	83.000000	0.000000	179.000000	48.000000	14.000000	0.000000
2.010000	23.050000	8.580000	0.000000	1.000000	179.000000	47.000000	0.000000	0.000000
2.020000	23.400000	9.020000	0.000000	0.000000	178.000000	47.000000	35.000000	44.000000
2.030000	23.530000	9.460000	0.000000	0.000000	178.000000	47.000000	13.000000	44.000000
2.040000	23.700000	9.990000	0.000000	0.000000	178.000000	47.000000	17.000000	53.000000
2.050000	23.880000	10.600000	0.000000	0.000000	178.000000	47.000000	18.000000	61.000000
2.060000	24.000000	11.180000	0.000000	0.000000	178.000000	47.000000	12.000000	58.000000
2.070000	24.090000	11.660000	0.000000	0.000000	178.000000	47.000000	9.000000	48.000000
2.080000	24.090000	11.860000	0.000000	0.000000	178.000000	46.000000	0.000000	20.000000
2.090000	24.090000	11.860000	342.000000	1.000000	179.000000	46.000000	0.000000	0.000000
2.100000	24.020000	12.130000	469.000000	0.000000	179.000000	46.000000	-7.000000	27.000000
2.110000	23.970000	12.260000	574.000000	0.000000	179.000000	47.000000	-5.000000	13.000000
2.120000	23.970000	12.320000	606.000000	0.000000	180.000000	47.000000	0.000000	6.000000
2.130000	23.970000	12.370000	542.000000	0.000000	180.000000	47.000000	0.000000	5.000000
2.140000	23.920000	12.370000	206.000000	0.000000	180.000000	48.000000	-5.000000	0.000000
2.150000	23.920000	12.370000	0.000000	1.000000	180.000000	49.000000	0.000000	0.000000
2.160000	24.110000	12.430000	0.000000	0.000000	181.000000	49.000000	19.000000	6.000000
2.170000	24.380000	12.340000	0.000000	0.000000	181.000000	49.000000	27.000000	-9.000000
2.180000	24.660000	12.010000	0.000000	0.000000	181.000000	49.000000	28.000000	-33.000000
2.190000	25.040000	11.530000	0.000000	0.000000	181.000000	48.000000	38.000000	-48.000000
2.200000	25.480000	11.030000	0.000000	0.000000	181.000000	48.000000	44.000000	-50.000000
2.210000	25.960000	10.530000	0.000000	0.000000	180.000000	48.000000	48.000000	-50.000000
2.220000	25.960000	10.530000	156.000000	1.000000	180.000000	48.000000	0.000000	0.000000
2.230000	26.440000	10.010000	316.000000	0.000000	180.000000	48.000000	48.000000	-52.000000
