t	x	y	pressure	penup	azimuth	inclination	v_x	v_y
0.000000	88.780000	62.060000	24.000000	1.000000	143.000000	64.000000	0.000000	0.000000
0.010000	88.780000	62.060000	78.000000	0.000000	143.000000	64.000000	0.000000	0.000000
0.020000	88.780000	62.060000	141.000000	0.000000	143.000000	64.000000	0.000000	0.000000
0.030000	88.780000	62.060000	217.000000	0.000000	143.000000	64.000000	0.000000	0.000000
0.040000	89.060000	62.400000	245.000000	0.000000	143.000000	64.000000	28.000000	34.000000
0.050000	89.200000	62.550000	282.000000	0.000000	143.000000	64.000000	14.000000	15.000000
0.060000	89.350000	62.780000	317.000000	0.000000	141.000000	64.000000	15.000000	23.000000
0.070000	89.500000	63.070000	315.000000	0.000000	141.000000	64.000000	15.000000	29.000000
0.080000	89.640000	63.450000	339.000000	0.000000	141.000000	64.000000	14.000000	38.000000
0.090000	89.770000	63.940000	339.000000	0.000000	140.000000	63.000000	13.000000	49.000000
0.100000	89.830000	64.500000	353.000000	0.000000	140.000000	63.000000	6.000000	56.000000
0.110000	89.830000	65.000000	377.000000	0.000000	140.000000	63.000000	0.000000	50.000000
0.120000	89.700000	65.480000	394.000000	0.000000	141.000000	64.000000	-13.000000	48.000000
0.130000	89.560000	65.880000	420.000000	0.000000	141.000000	64.000000	-14.000000	40.000000
0.140000	89.430000	66.200000	420.000000	0.000000	141.000000	64.000000	-13.000000	32.000000
0.150000	89.270000	66.410000	433.000000	0.000000	143.000000	64.000000	-16.000000	21.000000
0.160000	89.090000	66.550000	441.000000	0.000000	143.000000	64.000000	-18.000000	14.000000
0.170000	88.980000	66.550000	449.000000	0.000000	143.000000	64.000000	-11.000000	0.000000
0.180000	88.870000	66.500000	449.000000	0.000000	143.000000	64.000000	-11.000000	-5.000000
0.190000	88.700000	66.110000	440.000000	0.000000	143.000000	64.000000	-17.000000	-39.000000
0.200000	88.490000	65.220000	466.000000	0.000000	143.000000	64.000000	-21.000000	-89.000000
0.210000	88.490000	63.990000	472.000000	0.000000	143.000000	64.000000	0.000000	-123.000000
0.220000	88.730000	62.750000	477.000000	0.000000	142.000000	65.000000	24.000000	-124.000000
0.230000	89.150000	61.690000	483.000000	0.000000	142.000000	65.000000	42.000000	-106.000000
0.240000	89.510000	60.760000	491.000000	0.000000	142.000000	65.000000	36.000000	-93.000000
0.250000	89.860000	60.030000	498.000000	0.000000	140.000000	66.000000	35.000000	-73.000000
0.260000	90.150000	59.460000	495.000000	0.000000	140.000000	66.000000	29.000000	-57.000000
0.270000	90.410000	58.990000	489.000000	0.000000	139.000000	67.000000	26.000000	-47.000000
0.280000	90.540000	58.680000	491.000000	0.000000	137.000000	67.000000	13.000000	-31.000000
0.290000	90.540000	58.560000	491.000000	0.000000	137.000000	67.000000	0.000000	-12.000000
0.300000	90.480000	58.560000	491.000000	0.000000	135.000000	68.000000	-6.000000	0.000000
0.310000	90.480000	58.710000	425.000000	0.000000	133.000000	69.000000	0.000000	15.000000
0.320000	90.280000	59.190000	339.000000	0.000000	133.000000	69.000000	-20.000000	48.000000
0.330000	89.980000	59.910000	289.000000	0.000000	133.000000	69.000000	-30.000000	72.000000
0.340000	89.500000	60.660000	281.000000	0.000000	133.000000	69.000000	-48.000000	75.000000
0.350000	88.800000	61.300000	306.000000	0.000000	135.000000	68.000000	-70.000000	64.000000
0.360000	87.960000	61.590000	314.000000	0.000000	135.000000	68.000000	-84.000000	29.000000
0.370000	86.950000	61.690000	376.000000	0.000000	137.000000	67.000000	-101.000000	10.000000
0.380000	85.650000	61.380000	414.000000	0.000000	137.000000	67.000000	-130.000000	-31.000000
0.390000	84.160000	61.010000	469.000000	0.000000	139.000000	67.000000	-149.000000	-37.000000
0.400000	83.010000	60.760000	505.000000	0.000000	139.000000	67.000000	-115.000000	-25.000000
0.410000	82.610000	60.600000	510.000000	0.000000	140.000000	66.000000	-40.000000	-16.000000
0.420000	82.700000	60.600000	538.000000	0.000000	140.000000	66.000000	9.000000	0.000000
0.430000	83.230000	60.760000	591.000000	0.000000	140.000000	66.000000	53.000000	16.000000
0.440000	84.320000	60.970000	664.000000	0.000000	140.000000	66.000000	109.000000	21.000000
0.450000	85.790000	61.280000	716.000000	0.000000	140.000000	66.000000	147.000000	31.000000
0.460000	87.910000	61.580000	745.000000	0.000000	142.000000	66.000000	212.000000	30.000000
0.470000	90.730000	61.810000	754.000000	0.000000	142.000000	66.000000	282.000000	23.000000
0.480000	94.010000	62.000000	736.000000	0.000000	142.000000	66.000000	328.000000	19.000000
0.490000	97.440000	62.250000	649.000000	0.000000	144.000000	67.000000	343.000000	25.000000
0.500000	101.190000	62.450000	486.000000	0.000000	144.000000	67.000000	375.000000	20.000000
0.510000	101.190000	62.450000	0.000000	1.000000	146.000000	67.000000	0.000000	0.000000
0.520000	108.910000	63.310000	0.000000	0.000000	152.000000	68.000000	772.000000	86.000000
0.530000	111.970000	63.930000	0.000000	0.000000	154.000000	68.000000	306.000000	62.000000
0.540000	114.580000	64.580000	0.000000	0.000000	154.000000	68.000000	261.000000	65.000000
0.550000	116.130000	65.270000	0.000000	0.000000	155.000000	67.000000	155.000000	69.000000
0.560000	117.360000	65.760000	0.000000	0.000000	155.000000	67.000000	123.000000	49.000000
0.570000	118.370000	66.070000	0.000000	0.000000	155.000000	67.000000	101.000000	31.000000
0.580000	119.220000	66.250000	0.000000	0.000000	154.000000	66.000000	85.000000	18.000000
0.590000	119.450000	66.330000	0.000000	0.000000	152.000000	65.000000	23.000000	8.000000
0.600000	119.270000	66.160000	0.000000	0.000000	150.000000	65.000000	-18.000000	-17.000000
0.610000	118.210000	65.830000	0.000000	0.000000	150.000000	65.000000	-106.000000	-33.000000
0.620000	118.210000	65.830000	0.000000	0.000000	150.000000	65.000000	0.000000	0.000000
0.630000	99.050000	62.760000	0.000000	0.000000	147.000000	69.000000	-1916.000000	-307.000000
0.640000	99.050000	62.760000	0.000000	0.000000	145.000000	73.000000	0.000000	0.000000
0.650000	99.240000	62.950000	0.000000	0.000000	141.000000	77.000000	19.000000	19.000000
0.660000	99.560000	63.280000	0.000000	0.000000	135.000000	80.000000	32.000000	33.000000
0.670000	99.750000	63.590000	0.000000	0.000000	135.000000	80.000000	19.000000	31.000000
0.680000	99.750000	63.860000	0.000000	0.000000	135.000000	80.000000	0.000000	27.000000
0.690000	99.610000	64.070000	0.000000	0.000000	135.000000	80.000000	-14.000000	21.000000
0.700000	99.260000	64.170000	0.000000	0.000000	135.000000	80.000000	-35.000000	10.000000
0.710000	98.920000	64.170000	0.000000	0.000000	139.000000	81.000000	-34.000000	0.000000
0.720000	98.580000	64.500000	0.000000	0.000000	143.000000	80.000000	-34.000000	33.000000
0.730000	98.470000	64.500000	0.000000	0.000000	151.000000	80.000000	-11.000000	0.000000
0.740000	98.380000	64.420000	0.000000	0.000000	156.000000	78.000000	-9.000000	-8.000000
0.750000	98.380000	64.340000	0.000000	0.000000	159.000000	76.000000	0.000000	-8.000000
0.760000	98.380000	64.240000	0.000000	0.000000	162.000000	74.000000	0.000000	-10.000000
0.770000	98.380000	64.140000	0.000000	0.000000	164.000000	72.000000	0.000000	-10.000000
0.780000	98.190000	64.040000	0.000000	0.000000	163.000000	70.000000	-19.000000	-10.000000
0.790000	97.890000	63.910000	0.000000	0.000000	165.000000	68.000000	-30.000000	-13.000000
0.800000	97.720000	63.740000	0.000000	0.000000	162.000000	68.000000	-17.000000	-17.000000
0.810000	97.640000	63.570000	0.000000	0.000000	159.000000	67.000000	-8.000000	-17.000000
0.820000	97.890000	63.410000	0.000000	0.000000	155.000000	67.000000	25.000000	-16.000000
0.830000	98.070000	63.290000	0.000000	0.000000	151.000000	66.000000	18.000000	-12.000000
0.840000	98.190000	63.210000	0.000000	0.000000	149.000000	66.000000	12.000000	-8.000000
0.850000	98.010000	63.210000	0.000000	0.000000	146.000000	66.000000	-18.000000	0.000000
0.860000	97.650000	63.210000	0.000000	0.000000	144.000000	66.000000	-36.000000	0.000000
0.870000	97.170000	63.260000	0.000000	0.000000	142.000000	65.000000	-48.000000	5.000000
0.880000	96.640000	63.340000	0.000000	0.000000	140.000000	65.000000	-53.000000	8.000000
0.890000	96.190000	63.340000	0.000000	0.000000	138.000000	64.000000	-45.000000	0.000000
0.900000	95.930000	63.340000	0.000000	0.000000	138.000000	64.000000	-26.000000	0.000000
0.910000	95.760000	63.210000	0.000000	0.000000	138.000000	63.000000	-17.000000	-13.000000
0.920000	95.660000	63.090000	0.000000	0.000000	138.000000	63.000000	-10.000000	-12.000000
0.930000	95.570000	62.970000	0.000000	0.000000	137.000000	62.000000	-9.000000	-12.000000
0.940000	95.420000	62.880000	0.000000	0.000000	138.000000	61.000000	-15.000000	-9.000000
0.950000	95.220000	62.880000	0.000000	0.000000	136.000000	61.000000	-20.000000	0.000000
0.960000	95.050000	62.880000	0.000000	0.000000	136.000000	61.000000	-17.000000	0.000000
0.970000	94.870000	62.880000	0.000000	0.000000	136.000000	61.000000	-18.000000	0.000000
0.980000	94.690000	62.930000	0.000000	0.000000	136.000000	61.000000	-18.000000	5.000000
0.990000	94.550000	62.930000	0.000000	0.000000	135.000000	60.000000	-14.000000	0.000000
1.000000	94.480000	63.010000	0.000000	0.000000	135.000000	60.000000	-7.000000	8.000000
1.010000	94.410000	63.080000	0.000000	0.000000	135.000000	60.000000	-7.000000	7.000000
1.020000	94.410000	63.080000	0.000000	0.000000	135.000000	60.000000	0.000000	0.000000
1.030000	94.410000	63.080000	0.000000	0.000000	135.000000	60.000000	0.000000	0.000000
1.040000	94.060000	63.410000	0.000000	0.000000	135.000000	60.000000	-35.000000	33.000000
1.050000	93.810000	63.510000	0.000000	0.000000	135.000000	60.000000	-25.000000	10.000000
1.060000	93.540000	63.590000	0.000000	0.000000	135.000000	60.000000	-27.000000	8.000000
1.070000	93.290000	63.650000	0.000000	0.000000	135.000000	60.000000	-25.000000	6.000000
1.080000	93.100000	63.650000	0.000000	0.000000	136.000000	61.000000	-19.000000	0.000000
1.090000	92.930000	63.710000	0.000000	0.000000	136.000000	61.000000	-17.000000	6.000000
1.100000	92.800000	63.710000	0.000000	0.000000	136.000000	61.000000	-13.000000	0.000000
1.110000	92.710000	63.710000	0.000000	0.000000	136.000000	61.000000	-9.000000	0.000000
1.120000	92.710000	63.710000	0.000000	0.000000	136.000000	61.000000	0.000000	0.000000
1.130000	92.710000	63.650000	0.000000	0.000000	136.000000	61.000000	0.000000	-6.000000
1.140000	92.710000	63.650000	0.000000	0.000000	136.000000	61.000000	0.000000	0.000000
1.150000	92.800000	63.650000	0.000000	0.000000	136.000000	61.000000	9.000000	0.000000
1.160000	92.860000	63.590000	0.000000	0.000000	136.000000	61.000000	6.000000	-6.000000
1.170000	92.910000	63.590000	0.000000	0.000000	136.000000	61.000000	5.000000	0.000000
1.180000	92.970000	63.650000	0.000000	0.000000	136.000000	61.000000	6.000000	6.000000
1.190000	93.060000	63.700000	0.000000	0.000000	136.000000	61.000000	9.000000	5.000000
1.200000	93.120000	63.750000	0.000000	0.000000	136.000000	61.000000	6.000000	5.000000
1.210000	93.120000	63.810000	0.000000	0.000000	136.000000	61.000000	0.000000	6.000000
1.220000	93.120000	63.810000	0.000000	0.000000	138.000000	61.000000	0.000000	0.000000
1.230000	93.060000	63.810000	0.000000	0.000000	138.000000	61.000000	-6.000000	0.000000
1.240000	93.060000	63.810000	0.000000	0.000000	138.000000	61.000000	0.000000	0.000000
1.250000	92.960000	63.730000	0.000000	0.000000	138.000000	61.000000	-10.000000	-8.000000
1.260000	92.880000	63.680000	0.000000	0.000000	138.000000	61.000000	-8.000000	-5.000000
1.270000	92.830000	63.630000	0.000000	0.000000	138.000000	61.000000	-5.000000	-5.000000
1.280000	92.830000	63.580000	0.000000	0.000000	138.000000	61.000000	0.000000	-5.000000
1.290000	92.830000	63.580000	0.000000	0.000000	136.000000	61.000000	0.000000	0.000000
1.300000	92.830000	63.490000	0.000000	0.000000	136.000000	61.000000	0.000000	-9.000000
1.310000	92.760000	63.490000	0.000000	0.000000	136.000000	61.000000	-7.000000	0.000000
1.320000	92.760000	63.440000	0.000000	0.000000	135.000000	60.000000	0.000000	-5.000000
1.330000	92.710000	63.440000	0.000000	0.000000	135.000000	60.000000	-5.000000	0.000000
1.340000	92.710000	63.390000	0.000000	0.000000	135.000000	60.000000	0.000000	-5.000000
1.350000	92.650000	63.390000	0.000000	0.000000	135.000000	60.000000	-6.000000	0.000000
1.360000	92.650000	63.290000	0.000000	0.000000	134.000000	60.000000	0.000000	-10.000000
1.370000	92.650000	63.290000	0.000000	0.000000	134.000000	60.000000	0.000000	0.000000
1.380000	92.650000	63.290000	0.000000	0.000000	134.000000	60.000000	0.000000	0.000000
1.390000	92.650000	63.290000	0.000000	0.000000	134.000000	60.000000	0.000000	0.000000
1.400000	92.710000	63.360000	0.000000	0.000000	134.000000	60.000000	6.000000	7.000000
1.410000	92.710000	63.360000	0.000000	0.000000	134.000000	60.000000	0.000000	0.000000
1.420000	92.710000	63.430000	0.000000	0.000000	134.000000	60.000000	0.000000	7.000000
1.430000	92.640000	63.430000	0.000000	0.000000	134.000000	60.000000	-7.000000	0.000000
1.440000	92.580000	63.520000	0.000000	0.000000	134.000000	60.000000	-6.000000	9.000000
1.450000	92.520000	63.520000	0.000000	0.000000	134.000000	60.000000	-6.000000	0.000000
1.460000	92.470000	63.590000	0.000000	0.000000	134.000000	60.000000	-5.000000	7.000000
1.470000	92.420000	63.590000	0.000000	0.000000	134.000000	60.000000	-5.000000	0.000000
1.480000	92.420000	63.590000	0.000000	0.000000	134.000000	60.000000	0.000000	0.000000
1.490000	92.350000	63.590000	0.000000	0.000000	134.000000	60.000000	-7.000000	0.000000
1.500000	92.350000	63.540000	0.000000	0.000000	134.000000	60.000000	0.000000	-5.000000
1.510000	92.350000	63.540000	0.000000	0.000000	134.000000	60.000000	0.000000	0.000000
1.520000	92.350000	63.490000	0.000000	0.000000	134.000000	60.000000	0.000000	-5.000000
1.530000	92.350000	63.440000	0.000000	0.000000	134.000000	60.000000	0.000000	-5.000000
1.540000	92.300000	63.380000	0.000000	0.000000	134.000000	60.000000	-5.000000	-6.000000
1.550000	92.240000	63.320000	0.000000	0.000000	134.000000	60.000000	-6.000000	-6.000000
1.560000	92.180000	63.270000	0.000000	0.000000	134.000000	60.000000	-6.000000	-5.000000
1.570000	92.130000	63.270000	0.000000	0.000000	134.000000	60.000000	-5.000000	0.000000
1.580000	92.130000	63.270000	0.000000	0.000000	134.000000	60.000000	0.000000	0.000000
1.590000	92.130000	63.270000	0.000000	0.000000	134.000000	60.000000	0.000000	0.000000
1.600000	92.130000	63.270000	0.000000	0.000000	134.000000	60.000000	0.000000	0.000000
1.610000	92.130000	63.270000	0.000000	0.000000	134.000000	60.000000	0.000000	0.000000
1.620000	92.130000	63.270000	0.000000	0.000000	134.000000	60.000000	0.000000	0.000000
1.630000	92.130000	63.210000	0.000000	0.000000	134.000000	60.000000	0.000000	-6.000000
1.640000	92.060000	63.160000	0.000000	0.000000	134.000000	60.000000	-7.000000	-5.000000
1.650000	91.990000	63.100000	0.000000	0.000000	134.000000	60.000000	-7.000000	-6.000000
1.660000	91.990000	63.040000	0.000000	0.000000	134.000000	60.000000	0.000000	-6.000000
1.670000	91.990000	63.040000	0.000000	0.000000	134.000000	60.000000	0.000000	0.000000
1.680000	91.990000	62.980000	0.000000	0.000000	134.000000	60.000000	0.000000	-6.000000
1.690000	91.990000	62.980000	0.000000	0.000000	134.000000	60.000000	0.000000	0.000000
1.700000	91.990000	62.980000	0.000000	0.000000	135.000000	60.000000	0.000000	0.000000
1.710000	91.990000	62.910000	0.000000	0.000000	135.000000	60.000000	0.000000	-7.000000
1.720000	91.940000	62.910000	0.000000	0.000000	135.000000	60.000000	-5.000000	0.000000
1.730000	91.890000	62.830000	0.000000	0.000000	135.000000	60.000000	-5.000000	-8.000000
1.740000	91.830000	62.830000	0.000000	0.000000	135.000000	60.000000	-6.000000	0.000000
1.750000	91.830000	62.830000	0.000000	0.000000	135.000000	60.000000	0.000000	0.000000
1.760000	91.830000	62.830000	0.000000	0.000000	135.000000	60.000000	0.000000	0.000000
1.770000	91.830000	62.830000	0.000000	0.000000	135.000000	60.000000	0.000000	0.000000
1.780000	91.830000	62.830000	0.000000	0.000000	135.000000	60.000000	0.000000	0.000000
1.790000	91.830000	62.830000	0.000000	0.000000	135.000000	60.000000	0.000000	0.000000
1.800000	91.830000	62.830000	0.000000	0.000000	135.000000	60.000000	0.000000	0.000000
1.810000	91.830000	62.830000	0.000000	0.000000	135.000000	60.000000	0.000000	0.000000
1.820000	91.830000	62.830000	0.000000	0.000000	135.000000	60.000000	0.000000	0.000000
1.830000	91.830000	62.830000	0.000000	0.000000	135.000000	60.000000	0.000000	0.000000
1.840000	91.830000	63.110000	0.000000	0.000000	135.000000	60.000000	0.000000	28.000000
1.850000	91.830000	63.110000	0.000000	0.000000	135.000000	60.000000	0.000000	0.000000
1.860000	91.830000	63.160000	0.000000	0.000000	135.000000	60.000000	0.000000	5.000000
1.870000	91.750000	63.160000	0.000000	0.000000	135.000000	60.000000	-8.000000	0.000000
1.880000	91.680000	63.160000	0.000000	0.000000	135.000000	60.000000	-7.000000	0.000000
1.890000	91.590000	63.160000	0.000000	0.000000	135.000000	60.000000	-9.000000	0.000000
1.900000	91.480000	63.160000	0.000000	0.000000	135.000000	60.000000	-11.000000	0.000000
1.910000	91.360000	63.160000	0.000000	0.000000	135.000000	60.000000	-12.000000	0.000000
1.920000	91.280000	63.160000	0.000000	0.000000	135.000000	60.000000	-8.000000	0.000000
1.930000	91.220000	63.160000	0.000000	0.000000	135.000000	60.000000	-6.000000	0.000000
1.940000	91.220000	63.160000	0.000000	0.000000	135.000000	60.000000	0.000000	0.000000
1.950000	91.170000	63.100000	0.000000	0.000000	135.000000	60.000000	-5.000000	-6.000000
1.960000	91.170000	63.100000	0.000000	0.000000	135.000000	60.000000	0.000000	0.000000
1.970000	91.170000	63.030000	0.000000	0.000000	135.000000	60.000000	0.000000	-7.000000
1.980000	91.170000	63.030000	0.000000	0.000000	135.000000	60.000000	0.000000	0.000000
1.990000	91.170000	62.980000	0.000000	0.000000	135.000000	60.000000	0.000000	-5.000000
2.000000	91.170000	62.980000	0.000000	0.000000	135.000000	60.000000	0.000000	0.000000
2.010000	91.170000	62.980000	0.000000	0.000000	135.000000	60.000000	0.000000	0.000000
2.020000	91.220000	62.930000	0.000000	0.000000	135.000000	60.000000	5.000000	-5.000000
2.030000	91.220000	62.930000	0.000000	0.000000	135.000000	60.000000	0.000000	0.000000
2.040000	91.220000	62.850000	0.000000	0.000000	135.000000	60.000000	0.000000	-8.000000
2.050000	91.140000	62.800000	0.000000	0.000000	135.000000	60.000000	-8.000000	-5.000000
2.060000	91.140000	62.800000	0.000000	0.000000	135.000000	60.000000	0.000000	0.000000
2.070000	91.140000	62.800000	0.000000	0.000000	135.000000	60.000000	0.000000	0.000000
2.080000	91.060000	62.740000	0.000000	0.000000	135.000000	60.000000	-8.000000	-6.000000
2.090000	91.000000	62.740000	0.000000	0.000000	135.000000	60.000000	-6.000000	0.000000
2.100000	91.000000	62.740000	0.000000	0.000000	135.000000	60.000000	0.000000	0.000000
2.110000	90.930000	62.680000	0.000000	0.000000	135.000000	60.000000	-7.000000	-6.000000
2.120000	90.930000	62.680000	0.000000	0.000000	134.000000	61.000000	0.000000	0.000000
2.130000	90.880000	62.620000	0.000000	0.000000	134.000000	61.000000	-5.000000	-6.000000
2.140000	90.820000	62.620000	0.000000	0.000000	134.000000	61.000000	-6.000000	0.000000
2.150000	90.820000	62.550000	0.000000	0.000000	134.000000	61.000000	0.000000	-7.000000
2.160000	90.820000	62.550000	0.000000	0.000000	134.000000	61.000000	0.000000	0.000000
2.170000	90.820000	62.500000	0.000000	0.000000	134.000000	61.000000	0.000000	-5.000000
2.180000	90.760000	62.500000	0.000000	0.000000	134.000000	61.000000	-6.000000	0.000000
2.190000	90.760000	62.430000	0.000000	0.000000	135.000000	62.000000	0.000000	-7.000000
2.200000	90.760000	62.430000	0.000000	0.000000	135.000000	62.000000	0.000000	0.000000
2.210000	90.710000	62.370000	0.000000	0.000000	135.000000	62.000000	-5.000000	-6.000000
2.220000	90.710000	62.370000	0.000000	0.000000	135.000000	62.000000	0.000000	0.000000
2.230000	90.710000	62.370000	0.000000	0.000000	135.000000	62.000000	0.000000	0.000000
2.240000	90.710000	62.370000	0.000000	0.000000	135.000000	62.000000	0.000000	0.000000
2.250000	90.710000	62.370000	0.000000	0.000000	135.000000	62.000000	0.000000	0.000000
