t	x	y	pressure	penup	azimuth	inclination	v_x	v_y
0.000000	12.680000	70.220000	56.000000	1.000000	294.000000	68.000000	0.000000	0.000000
0.010000	13.120000	69.870000	101.000000	0.000000	295.000000	69.000000	44.000000	-35.000000
0.020000	13.490000	69.770000	99.000000	0.000000	295.000000	69.000000	37.000000	-10.000000
0.030000	13.940000	69.720000	105.000000	0.000000	295.000000	69.000000	45.000000	-5.000000
0.040000	14.440000	69.720000	115.000000	0.000000	292.000000	70.000000	50.000000	0.000000
0.050000	15.040000	69.890000	129.000000	0.000000	292.000000	70.000000	60.000000	17.000000
0.060000	15.700000	70.160000	124.000000	0.000000	291.000000	69.000000	66.000000	27.000000
0.070000	16.390000	70.530000	115.000000	0.000000	290.000000	68.000000	69.000000	37.000000
0.080000	17.030000	71.060000	120.000000	0.000000	289.000000	67.000000	64.000000	53.000000
0.090000	17.670000	71.640000	127.000000	0.000000	288.000000	66.000000	64.000000	58.000000
0.100000	18.030000	72.310000	141.000000	0.000000	288.000000	66.000000	36.000000	67.000000
0.110000	18.200000	73.020000	131.000000	0.000000	285.000000	65.000000	17.000000	71.000000
0.120000	18.200000	73.800000	131.000000	0.000000	285.000000	65.000000	0.000000	78.000000
0.130000	18.140000	74.530000	149.000000	0.000000	285.000000	65.000000	-6.000000	73.000000
0.140000	17.890000	75.220000	136.000000	0.000000	285.000000	65.000000	-25.000000	69.000000
0.150000	17.540000	75.660000	127.000000	0.000000	285.000000	65.000000	-35.000000	44.000000
0.160000	16.970000	75.830000	134.000000	0.000000	285.000000	65.000000	-57.000000	17.000000
0.170000	16.390000	75.830000	131.000000	0.000000	283.000000	64.000000	-58.000000	0.000000
0.180000	15.810000	75.610000	141.000000	0.000000	282.000000	63.000000	-58.000000	-22.000000
0.190000	15.280000	75.310000	146.000000	0.000000	282.000000	63.000000	-53.000000	-30.000000
0.200000	14.750000	74.950000	151.000000	0.000000	282.000000	63.000000	-53.000000	-36.000000
0.210000	14.360000	74.450000	170.000000	0.000000	282.000000	63.000000	-39.000000	-50.000000
0.220000	14.060000	73.740000	191.000000	0.000000	282.000000	63.000000	-30.000000	-71.000000
0.230000	13.830000	72.900000	200.000000	0.000000	282.000000	63.000000	-23.000000	-84.000000
0.240000	13.770000	71.940000	191.000000	0.000000	282.000000	63.000000	-6.000000	-96.000000
0.250000	13.830000	70.880000	198.000000	0.000000	283.000000	64.000000	6.000000	-106.000000
0.260000	13.960000	69.750000	208.000000	0.000000	284.000000	66.000000	13.000000	-113.000000
0.270000	14.170000	68.500000	211.000000	0.000000	285.000000	67.000000	21.000000	-125.000000
0.280000	14.440000	67.260000	223.000000	0.000000	288.000000	68.000000	27.000000	-124.000000
0.290000	14.710000	66.020000	237.000000	0.000000	288.000000	68.000000	27.000000	-124.000000
0.300000	14.970000	64.890000	250.000000	0.000000	288.000000	68.000000	26.000000	-113.000000
0.310000	15.210000	63.890000	259.000000	0.000000	290.000000	68.000000	24.000000	-100.000000
0.320000	15.360000	62.980000	267.000000	0.000000	290.000000	68.000000	15.000000	-91.000000
0.330000	15.360000	62.190000	269.000000	0.000000	292.000000	67.000000	0.000000	-79.000000
0.340000	15.360000	61.740000	254.000000	0.000000	292.000000	67.000000	0.000000	-45.000000
0.350000	15.300000	61.530000	245.000000	0.000000	292.000000	67.000000	-6.000000	-21.000000
0.360000	15.070000	61.460000	251.000000	0.000000	292.000000	67.000000	-23.000000	-7.000000
0.370000	14.730000	61.530000	239.000000	0.000000	294.000000	68.000000	-34.000000	7.000000
0.380000	14.250000	61.690000	216.000000	0.000000	291.000000	69.000000	-48.000000	16.000000
0.390000	13.620000	61.860000	207.000000	0.000000	292.000000	70.000000	-63.000000	17.000000
0.400000	12.900000	62.030000	220.000000	0.000000	292.000000	70.000000	-72.000000	17.000000
0.410000	12.120000	62.220000	222.000000	0.000000	293.000000	71.000000	-78.000000	19.000000
0.420000	11.350000	62.420000	215.000000	0.000000	295.000000	71.000000	-77.000000	20.000000
0.430000	10.780000	62.660000	213.000000	0.000000	296.000000	72.000000	-57.000000	24.000000
0.440000	10.340000	62.900000	208.000000	0.000000	298.000000	73.000000	-44.000000	24.000000
0.450000	9.940000	63.100000	210.000000	0.000000	298.000000	73.000000	-40.000000	20.000000
0.460000	9.660000	63.270000	212.000000	0.000000	299.000000	74.000000	-28.000000	17.000000
0.470000	9.450000	63.410000	212.000000	0.000000	299.000000	74.000000	-21.000000	14.000000
0.480000	9.380000	63.510000	251.000000	0.000000	302.000000	74.000000	-7.000000	10.000000
0.490000	9.430000	63.590000	265.000000	0.000000	302.000000	74.000000	5.000000	8.000000
0.500000	9.570000	63.710000	310.000000	0.000000	305.000000	73.000000	14.000000	12.000000
0.510000	9.900000	63.830000	356.000000	0.000000	305.000000	73.000000	33.000000	12.000000
0.520000	10.400000	63.970000	379.000000	0.000000	305.000000	73.000000	50.000000	14.000000
0.530000	11.020000	64.130000	389.000000	0.000000	310.000000	73.000000	62.000000	16.000000
0.540000	11.930000	64.370000	386.000000	0.000000	310.000000	73.000000	91.000000	24.000000
0.550000	13.010000	64.670000	382.000000	0.000000	310.000000	73.000000	108.000000	30.000000
0.560000	14.200000	65.030000	381.000000	0.000000	310.000000	73.000000	119.000000	36.000000
0.570000	15.520000	65.390000	359.000000	0.000000	308.000000	72.000000	132.000000	36.000000
0.580000	16.990000	65.780000	351.000000	0.000000	303.000000	72.000000	147.000000	39.000000
0.590000	18.570000	66.080000	356.000000	0.000000	302.000000	71.000000	158.000000	30.000000
0.600000	20.060000	66.330000	327.000000	0.000000	300.000000	71.000000	149.000000	25.000000
0.610000	21.560000	66.530000	305.000000	0.000000	297.000000	69.000000	150.000000	20.000000
0.620000	23.090000	66.710000	314.000000	0.000000	296.000000	68.000000	153.000000	18.000000
0.630000	24.640000	66.880000	306.000000	0.000000	292.000000	67.000000	155.000000	17.000000
0.640000	26.010000	67.100000	274.000000	0.000000	291.000000	67.000000	137.000000	22.000000
0.650000	27.410000	67.370000	237.000000	0.000000	291.000000	67.000000	140.000000	27.000000
0.660000	28.830000	67.700000	247.000000	0.000000	288.000000	66.000000	142.000000	33.000000
0.670000	30.030000	68.070000	272.000000	0.000000	288.000000	66.000000	120.000000	37.000000
0.680000	31.070000	68.280000	260.000000	0.000000	288.000000	66.000000	104.000000	21.000000
0.690000	32.000000	68.390000	277.000000	0.000000	286.000000	66.000000	93.000000	11.000000
0.700000	32.700000	68.390000	251.000000	0.000000	286.000000	66.000000	70.000000	0.000000
0.710000	33.340000	68.310000	223.000000	0.000000	286.000000	66.000000	64.000000	-8.000000
0.720000	33.790000	68.240000	136.000000	0.000000	286.000000	66.000000	45.000000	-7.000000
0.730000	34.120000	68.150000	80.000000	0.000000	284.000000	66.000000	33.000000	-9.000000
0.740000	34.120000	68.150000	0.000000	1.000000	284.000000	66.000000	0.000000	0.000000
0.750000	34.150000	68.150000	0.000000	0.000000	284.000000	66.000000	3.000000	0.000000
0.760000	33.950000	68.150000	0.000000	0.000000	284.000000	66.000000	-20.000000	0.000000
0.770000	33.670000	68.150000	0.000000	0.000000	283.000000	65.000000	-28.000000	0.000000
0.780000	33.330000	68.060000	0.000000	0.000000	283.000000	65.000000	-34.000000	-9.000000
0.790000	32.870000	67.990000	0.000000	0.000000	283.000000	65.000000	-46.000000	-7.000000
0.800000	32.340000	67.920000	0.000000	0.000000	281.000000	66.000000	-53.000000	-7.000000
0.810000	31.730000	67.920000	0.000000	0.000000	281.000000	66.000000	-61.000000	0.000000
0.820000	31.060000	67.860000	0.000000	0.000000	281.000000	66.000000	-67.000000	-6.000000
0.830000	30.350000	67.790000	0.000000	0.000000	279.000000	66.000000	-71.000000	-7.000000
0.840000	29.580000	67.690000	0.000000	0.000000	279.000000	67.000000	-77.000000	-10.000000
0.850000	28.760000	67.520000	0.000000	0.000000	279.000000	67.000000	-82.000000	-17.000000
0.860000	27.910000	67.320000	0.000000	0.000000	279.000000	67.000000	-85.000000	-20.000000
0.870000	27.050000	67.110000	0.000000	0.000000	279.000000	67.000000	-86.000000	-21.000000
0.880000	26.240000	66.880000	0.000000	0.000000	279.000000	67.000000	-81.000000	-23.000000
0.890000	25.500000	66.660000	0.000000	0.000000	279.000000	67.000000	-74.000000	-22.000000
0.900000	24.760000	66.480000	0.000000	0.000000	279.000000	66.000000	-74.000000	-18.000000
0.910000	24.070000	66.320000	0.000000	0.000000	281.000000	66.000000	-69.000000	-16.000000
0.920000	23.370000	66.190000	0.000000	0.000000	281.000000	65.000000	-70.000000	-13.000000
0.930000	22.700000	66.080000	0.000000	0.000000	282.000000	63.000000	-67.000000	-11.000000
0.940000	22.060000	66.030000	0.000000	0.000000	282.000000	63.000000	-64.000000	-5.000000
0.950000	21.400000	65.980000	0.000000	0.000000	282.000000	63.000000	-66.000000	-5.000000
0.960000	20.810000	65.930000	0.000000	0.000000	284.000000	62.000000	-59.000000	-5.000000
0.970000	20.260000	65.930000	0.000000	0.000000	284.000000	62.000000	-55.000000	0.000000
0.980000	19.770000	65.930000	0.000000	0.000000	284.000000	63.000000	-49.000000	0.000000
0.990000	19.310000	65.860000	0.000000	0.000000	286.000000	63.000000	-46.000000	-7.000000
1.000000	18.870000	65.860000	0.000000	0.000000	286.000000	63.000000	-44.000000	0.000000
1.010000	18.570000	65.860000	0.000000	0.000000	287.000000	64.000000	-30.000000	0.000000
1.020000	18.300000	65.910000	0.000000	0.000000	287.000000	64.000000	-27.000000	5.000000
1.030000	18.050000	65.980000	0.000000	0.000000	288.000000	65.000000	-25.000000	7.000000
1.040000	17.850000	66.040000	0.000000	0.000000	288.000000	65.000000	-20.000000	6.000000
1.050000	17.730000	66.040000	0.000000	0.000000	288.000000	66.000000	-12.000000	0.000000
1.060000	17.660000	66.100000	0.000000	0.000000	288.000000	66.000000	-7.000000	6.000000
1.070000	17.600000	66.190000	0.000000	0.000000	289.000000	67.000000	-6.000000	9.000000
1.080000	17.600000	66.300000	0.000000	0.000000	289.000000	67.000000	0.000000	11.000000
1.090000	17.600000	66.440000	0.000000	0.000000	289.000000	67.000000	0.000000	14.000000
1.100000	17.600000	66.580000	0.000000	0.000000	289.000000	67.000000	0.000000	14.000000
1.110000	17.510000	66.740000	0.000000	0.000000	289.000000	67.000000	-9.000000	16.000000
1.120000	17.430000	66.870000	0.000000	0.000000	288.000000	68.000000	-8.000000	13.000000
1.130000	17.350000	66.990000	0.000000	0.000000	288.000000	68.000000	-8.000000	12.000000
1.140000	17.270000	67.120000	0.000000	0.000000	288.000000	68.000000	-8.000000	13.000000
1.150000	17.180000	67.230000	0.000000	0.000000	285.000000	68.000000	-9.000000	11.000000
1.160000	17.060000	67.310000	0.000000	0.000000	285.000000	68.000000	-12.000000	8.000000
1.170000	16.940000	67.390000	0.000000	0.000000	285.000000	67.000000	-12.000000	8.000000
1.180000	16.870000	67.390000	0.000000	0.000000	285.000000	67.000000	-7.000000	0.000000
1.190000	16.810000	67.390000	0.000000	0.000000	284.000000	66.000000	-6.000000	0.000000
1.200000	16.810000	67.300000	0.000000	0.000000	283.000000	65.000000	0.000000	-9.000000
1.210000	16.760000	67.240000	0.000000	0.000000	283.000000	65.000000	-5.000000	-6.000000
1.220000	16.760000	67.190000	0.000000	0.000000	283.000000	64.000000	0.000000	-5.000000
1.230000	16.760000	67.140000	0.000000	0.000000	283.000000	64.000000	0.000000	-5.000000
1.240000	16.840000	67.070000	0.000000	0.000000	282.000000	63.000000	8.000000	-7.000000
1.250000	16.840000	66.990000	0.000000	0.000000	282.000000	63.000000	0.000000	-8.000000
1.260000	16.840000	66.930000	0.000000	0.000000	282.000000	63.000000	0.000000	-6.000000
1.270000	16.840000	66.880000	0.000000	0.000000	282.000000	63.000000	0.000000	-5.000000
1.280000	16.790000	66.880000	0.000000	0.000000	282.000000	63.000000	-5.000000	0.000000
1.290000	16.790000	66.880000	0.000000	0.000000	284.000000	63.000000	0.000000	0.000000
1.300000	16.740000	66.880000	0.000000	0.000000	284.000000	63.000000	-5.000000	0.000000
1.310000	16.740000	66.880000	0.000000	0.000000	284.000000	63.000000	0.000000	0.000000
1.320000	16.740000	66.880000	0.000000	0.000000	284.000000	63.000000	0.000000	0.000000
1.330000	16.740000	66.880000	0.000000	0.000000	284.000000	63.000000	0.000000	0.000000
1.340000	16.690000	66.930000	0.000000	0.000000	284.000000	63.000000	-5.000000	5.000000
1.350000	16.610000	66.930000	0.000000	0.000000	284.000000	63.000000	-8.000000	0.000000
1.360000	16.550000	66.930000	0.000000	0.000000	284.000000	62.000000	-6.000000	0.000000
1.370000	16.500000	66.930000	0.000000	0.000000	284.000000	62.000000	-5.000000	0.000000
1.380000	16.500000	66.930000	0.000000	0.000000	284.000000	63.000000	0.000000	0.000000
1.390000	16.500000	66.930000	0.000000	0.000000	284.000000	63.000000	0.000000	0.000000
1.400000	16.500000	66.930000	0.000000	0.000000	284.000000	63.000000	0.000000	0.000000
1.410000	16.500000	66.930000	0.000000	0.000000	284.000000	63.000000	0.000000	0.000000
1.420000	16.430000	66.930000	0.000000	0.000000	284.000000	63.000000	-7.000000	0.000000
1.430000	16.430000	66.980000	0.000000	0.000000	284.000000	63.000000	0.000000	5.000000
1.440000	16.430000	66.980000	0.000000	0.000000	284.000000	63.000000	0.000000	0.000000
1.450000	16.430000	67.040000	0.000000	0.000000	284.000000	63.000000	0.000000	6.000000
1.460000	16.430000	67.040000	0.000000	0.000000	284.000000	63.000000	0.000000	0.000000
1.470000	16.380000	67.040000	0.000000	0.000000	284.000000	62.000000	-5.000000	0.000000
1.480000	16.380000	67.040000	0.000000	0.000000	284.000000	62.000000	0.000000	0.000000
1.490000	16.380000	67.040000	0.000000	0.000000	284.000000	62.000000	0.000000	0.000000
1.500000	16.380000	67.040000	0.000000	0.000000	284.000000	62.000000	0.000000	0.000000
1.510000	16.380000	66.980000	0.000000	0.000000	284.000000	62.000000	0.000000	-6.000000
1.520000	16.380000	66.980000	0.000000	0.000000	284.000000	62.000000	0.000000	0.000000
1.530000	16.380000	66.980000	0.000000	0.000000	284.000000	62.000000	0.000000	0.000000
1.540000	16.380000	66.980000	0.000000	0.000000	284.000000	62.000000	0.000000	0.000000
1.550000	16.450000	66.980000	0.000000	0.000000	284.000000	62.000000	7.000000	0.000000
1.560000	16.510000	66.980000	0.000000	0.000000	284.000000	62.000000	6.000000	0.000000
1.570000	16.510000	67.060000	0.000000	0.000000	284.000000	62.000000	0.000000	8.000000
1.580000	16.580000	67.120000	0.000000	0.000000	284.000000	62.000000	7.000000	6.000000
1.590000	16.580000	67.120000	0.000000	0.000000	284.000000	62.000000	0.000000	0.000000
1.600000	16.580000	67.170000	0.000000	0.000000	284.000000	62.000000	0.000000	5.000000
1.610000	16.630000	67.170000	0.000000	0.000000	284.000000	62.000000	5.000000	0.000000
1.620000	16.630000	67.230000	0.000000	0.000000	284.000000	62.000000	0.000000	6.000000
1.630000	16.700000	67.230000	0.000000	0.000000	284.000000	62.000000	7.000000	0.000000
1.640000	16.770000	67.300000	0.000000	0.000000	284.000000	62.000000	7.000000	7.000000
1.650000	16.870000	67.350000	0.000000	0.000000	284.000000	62.000000	10.000000	5.000000
1.660000	16.920000	67.410000	0.000000	0.000000	284.000000	62.000000	5.000000	6.000000
1.670000	16.920000	67.480000	0.000000	0.000000	284.000000	62.000000	0.000000	7.000000
1.680000	16.980000	67.540000	0.000000	0.000000	284.000000	62.000000	6.000000	6.000000
1.690000	16.980000	67.610000	0.000000	0.000000	284.000000	62.000000	0.000000	7.000000
1.700000	16.980000	67.690000	0.000000	0.000000	284.000000	62.000000	0.000000	8.000000
1.710000	16.980000	67.760000	0.000000	0.000000	282.000000	63.000000	0.000000	7.000000
1.720000	16.980000	67.810000	0.000000	0.000000	282.000000	63.000000	0.000000	5.000000
1.730000	16.980000	67.810000	0.000000	0.000000	282.000000	63.000000	0.000000	0.000000
1.740000	16.980000	67.810000	0.000000	0.000000	282.000000	63.000000	0.000000	0.000000
1.750000	16.980000	67.870000	0.000000	0.000000	282.000000	63.000000	0.000000	6.000000
1.760000	17.040000	67.870000	0.000000	0.000000	282.000000	63.000000	6.000000	0.000000
1.770000	17.040000	67.870000	0.000000	0.000000	281.000000	62.000000	0.000000	0.000000
1.780000	17.040000	67.920000	0.000000	0.000000	281.000000	62.000000	0.000000	5.000000
1.790000	17.040000	67.920000	0.000000	0.000000	281.000000	62.000000	0.000000	0.000000
1.800000	17.040000	67.920000	0.000000	0.000000	281.000000	62.000000	0.000000	0.000000
1.810000	17.040000	67.920000	0.000000	0.000000	282.000000	63.000000	0.000000	0.000000
1.820000	17.040000	67.840000	0.000000	0.000000	282.000000	63.000000	0.000000	-8.000000
1.830000	17.040000	67.840000	0.000000	0.000000	282.000000	63.000000	0.000000	0.000000
1.840000	17.100000	67.780000	0.000000	0.000000	284.000000	63.000000	6.000000	-6.000000
1.850000	17.100000	67.780000	0.000000	0.000000	284.000000	63.000000	0.000000	0.000000
1.860000	17.180000	67.780000	0.000000	0.000000	285.000000	64.000000	8.000000	0.000000
1.870000	17.180000	67.850000	0.000000	0.000000	283.000000	64.000000	0.000000	7.000000
1.880000	17.180000	67.850000	0.000000	0.000000	283.000000	65.000000	0.000000	0.000000
1.890000	17.230000	67.930000	0.000000	0.000000	284.000000	66.000000	5.000000	8.000000
1.900000	17.230000	67.930000	0.000000	0.000000	284.000000	66.000000	0.000000	0.000000
1.910000	17.230000	68.030000	0.000000	0.000000	285.000000	67.000000	0.000000	10.000000
1.920000	17.230000	68.110000	0.000000	0.000000	285.000000	67.000000	0.000000	8.000000
1.930000	17.290000	68.160000	0.000000	0.000000	285.000000	67.000000	6.000000	5.000000
1.940000	17.290000	68.160000	0.000000	0.000000	285.000000	67.000000	0.000000	0.000000
1.950000	17.290000	68.260000	0.000000	0.000000	285.000000	67.000000	0.000000	10.000000
1.960000	17.290000	68.320000	0.000000	0.000000	285.000000	67.000000	0.000000	6.000000
1.970000	17.290000	68.380000	0.000000	0.000000	285.000000	67.000000	0.000000	6.000000
1.980000	17.360000	68.450000	0.000000	0.000000	287.000000	67.000000	7.000000	7.000000
1.990000	17.360000	68.500000	0.000000	0.000000	287.000000	67.000000	0.000000	5.000000
2.000000	17.360000	68.500000	0.000000	0.000000	287.000000	67.000000	0.000000	0.000000
2.010000	17.360000	68.550000	0.000000	0.000000	289.000000	67.000000	0.000000	5.000000
2.020000	17.360000	68.550000	0.000000	0.000000	290.000000	68.000000	0.000000	0.000000
2.030000	17.360000	68.550000	0.000000	0.000000	292.000000	67.000000	0.000000	0.000000
2.040000	17.360000	68.550000	0.000000	0.000000	292.000000	67.000000	0.000000	0.000000
2.050000	17.360000	68.550000	0.000000	0.000000	292.000000	67.000000	0.000000	0.000000
2.060000	17.360000	68.550000	0.000000	0.000000	294.000000	66.000000	0.000000	0.000000
2.070000	17.430000	68.550000	0.000000	0.000000	294.000000	66.000000	7.000000	0.000000
2.080000	17.430000	68.550000	0.000000	0.000000	294.000000	66.000000	0.000000	0.000000
2.090000	17.480000	68.550000	0.000000	0.000000	294.000000	66.000000	5.000000	0.000000
2.100000	17.480000	68.550000	0.000000	0.000000	294.000000	66.000000	0.000000	0.000000
2.110000	17.480000	68.550000	0.000000	0.000000	294.000000	66.000000	0.000000	0.000000
2.120000	17.480000	68.550000	0.000000	0.000000	294.000000	66.000000	0.000000	0.000000
2.130000	17.480000	68.550000	0.000000	0.000000	294.000000	66.000000	0.000000	0.000000
2.140000	17.480000	68.600000	0.000000	0.000000	294.000000	66.000000	0.000000	5.000000
2.150000	17.480000	68.600000	0.000000	0.000000	294.000000	66.000000	0.000000	0.000000
2.160000	17.480000	68.600000	0.000000	0.000000	294.000000	66.000000	0.000000	0.000000
2.170000	17.480000	68.600000	0.000000	0.000000	294.000000	66.000000	0.000000	0.000000
2.180000	17.480000	68.600000	0.000000	0.000000	294.000000	66.000000	0.000000	0.000000
2.190000	17.480000	68.600000	0.000000	0.000000	294.000000	66.000000	0.000000	0.000000
2.200000	17.540000	68.660000	0.000000	0.000000	294.000000	66.000000	6.000000	6.000000
2.210000	17.540000	68.660000	0.000000	0.000000	294.000000	66.000000	0.000000	0.000000
2.220000	17.590000	68.720000	0.000000	0.000000	294.000000	66.000000	5.000000	6.000000
2.230000	17.590000	68.720000	0.000000	0.000000	294.000000	66.000000	0.000000	0.000000
2.240000	17.650000	68.830000	0.000000	0.000000	294.000000	66.000000	6.000000	11.000000
2.250000	17.650000	68.830000	0.000000	0.000000	294.000000	66.000000	0.000000	0.000000
