t	x	y	pressure	penup	azimuth	inclination	v_x	v_y
0.000000	18.610000	47.060000	51.000000	1.000000	149.000000	58.000000	0.000000	0.000000
0.010000	18.610000	47.060000	65.000000	0.000000	149.000000	58.000000	0.000000	0.000000
0.020000	18.610000	47.060000	71.000000	0.000000	150.000000	58.000000	0.000000	0.000000
0.030000	18.610000	47.060000	90.000000	0.000000	150.000000	58.000000	0.000000	0.000000
0.040000	18.610000	47.060000	136.000000	0.000000	152.000000	59.000000	0.000000	0.000000
0.050000	18.610000	47.060000	202.000000	0.000000	152.000000	59.000000	0.000000	0.000000
0.060000	19.010000	47.230000	207.000000	0.000000	152.000000	59.000000	40.000000	17.000000
0.070000	19.270000	47.500000	216.000000	0.000000	152.000000	59.000000	26.000000	27.000000
0.080000	19.570000	47.870000	225.000000	0.000000	152.000000	59.000000	30.000000	37.000000
0.090000	19.860000	48.300000	226.000000	0.000000	152.000000	59.000000	29.000000	43.000000
0.100000	20.140000	48.880000	230.000000	0.000000	153.000000	58.000000	28.000000	58.000000
0.110000	20.210000	49.550000	232.000000	0.000000	153.000000	58.000000	7.000000	67.000000
0.120000	20.140000	50.010000	246.000000	0.000000	152.000000	57.000000	-7.000000	46.000000
0.130000	19.870000	50.270000	247.000000	0.000000	152.000000	57.000000	-27.000000	26.000000
0.140000	19.430000	50.390000	275.000000	0.000000	153.000000	56.000000	-44.000000	12.000000
0.150000	18.880000	50.320000	285.000000	0.000000	153.000000	56.000000	-55.000000	-7.000000
0.160000	18.260000	50.070000	282.000000	0.000000	153.000000	56.000000	-62.000000	-25.000000
0.170000	17.670000	49.700000	291.000000	0.000000	154.000000	55.000000	-59.000000	-37.000000
0.180000	17.430000	49.100000	287.000000	0.000000	153.000000	55.000000	-24.000000	-60.000000
0.190000	17.430000	48.390000	280.000000	0.000000	154.000000	55.000000	0.000000	-71.000000
0.200000	17.800000	47.600000	260.000000	0.000000	153.000000	56.000000	37.000000	-79.000000
0.210000	18.470000	46.960000	247.000000	0.000000	153.000000	56.000000	67.000000	-64.000000
0.220000	19.320000	46.370000	254.000000	0.000000	153.000000	56.000000	85.000000	-59.000000
0.230000	19.960000	45.810000	242.000000	0.000000	152.000000	57.000000	64.000000	-56.000000
0.240000	20.190000	45.290000	257.000000	0.000000	151.000000	58.000000	23.000000	-52.000000
0.250000	20.140000	44.760000	275.000000	0.000000	151.000000	58.000000	-5.000000	-53.000000
0.260000	19.490000	44.200000	292.000000	0.000000	152.000000	59.000000	-65.000000	-56.000000
0.270000	18.170000	43.600000	311.000000	0.000000	152.000000	59.000000	-132.000000	-60.000000
0.280000	16.410000	42.950000	344.000000	0.000000	150.000000	58.000000	-176.000000	-65.000000
0.290000	14.230000	42.350000	369.000000	0.000000	150.000000	58.000000	-218.000000	-60.000000
0.300000	12.090000	41.810000	398.000000	0.000000	149.000000	58.000000	-214.000000	-54.000000
0.310000	10.150000	41.360000	397.000000	0.000000	149.000000	58.000000	-194.000000	-45.000000
0.320000	8.330000	41.110000	410.000000	0.000000	150.000000	57.000000	-182.000000	-25.000000
0.330000	7.670000	41.000000	415.000000	0.000000	150.000000	57.000000	-66.000000	-11.000000
0.340000	7.900000	41.150000	438.000000	0.000000	150.000000	57.000000	23.000000	15.000000
0.350000	8.730000	41.640000	445.000000	0.000000	150.000000	57.000000	83.000000	49.000000
0.360000	11.100000	42.360000	465.000000	0.000000	150.000000	57.000000	237.000000	72.000000
0.370000	14.240000	43.220000	475.000000	0.000000	151.000000	58.000000	314.000000	86.000000
0.380000	17.900000	44.240000	512.000000	0.000000	151.000000	58.000000	366.000000	102.000000
0.390000	22.100000	45.360000	540.000000	0.000000	150.000000	58.000000	420.000000	112.000000
0.400000	26.830000	46.400000	546.000000	0.000000	150.000000	58.000000	473.000000	104.000000
0.410000	31.910000	47.390000	494.000000	0.000000	150.000000	58.000000	508.000000	99.000000
0.420000	36.610000	48.250000	389.000000	0.000000	150.000000	58.000000	470.000000	86.000000
0.430000	40.140000	48.860000	259.000000	0.000000	151.000000	58.000000	353.000000	61.000000
0.440000	42.880000	49.310000	134.000000	0.000000	151.000000	58.000000	274.000000	45.000000
0.450000	44.190000	49.570000	6.000000	1.000000	154.000000	57.000000	0.000000	0.000000
0.460000	44.190000	49.570000	0.000000	0.000000	154.000000	57.000000	0.000000	0.000000
0.470000	43.300000	49.500000	0.000000	0.000000	154.000000	56.000000	-89.000000	-7.000000
0.480000	41.780000	49.330000	0.000000	0.000000	155.000000	55.000000	-152.000000	-17.000000
0.490000	39.960000	49.170000	0.000000	0.000000	155.000000	55.000000	-182.000000	-16.000000
0.500000	37.940000	48.980000	0.000000	0.000000	155.000000	55.000000	-202.000000	-19.000000
0.510000	35.640000	48.780000	0.000000	0.000000	155.000000	55.000000	-230.000000	-20.000000
0.520000	33.510000	48.350000	0.000000	0.000000	154.000000	55.000000	-213.000000	-43.000000
0.530000	31.490000	47.880000	0.000000	0.000000	154.000000	55.000000	-202.000000	-47.000000
0.540000	29.360000	47.380000	0.000000	0.000000	153.000000	55.000000	-213.000000	-50.000000
0.550000	27.230000	46.820000	0.000000	0.000000	151.000000	54.000000	-213.000000	-56.000000
0.560000	25.240000	46.250000	0.000000	0.000000	151.000000	53.000000	-199.000000	-57.000000
0.570000	23.340000	45.700000	0.000000	0.000000	149.000000	53.000000	-190.000000	-55.000000
0.580000	22.060000	45.240000	0.000000	0.000000	148.000000	53.000000	-128.000000	-46.000000
0.590000	21.130000	44.830000	0.000000	0.000000	148.000000	51.000000	-93.000000	-41.000000
0.600000	20.430000	44.510000	0.000000	0.000000	148.000000	51.000000	-70.000000	-32.000000
0.610000	19.960000	44.180000	0.000000	0.000000	147.000000	51.000000	-47.000000	-33.000000
0.620000	19.800000	43.830000	0.000000	0.000000	147.000000	52.000000	-16.000000	-35.000000
0.630000	19.800000	43.470000	0.000000	0.000000	146.000000	53.000000	0.000000	-36.000000
0.640000	20.080000	44.000000	0.000000	0.000000	146.000000	53.000000	28.000000	53.000000
0.650000	20.470000	44.330000	0.000000	0.000000	145.000000	54.000000	39.000000	33.000000
0.660000	20.950000	44.530000	0.000000	0.000000	144.000000	54.000000	48.000000	20.000000
0.670000	21.470000	44.860000	0.000000	0.000000	144.000000	54.000000	52.000000	33.000000
0.680000	21.840000	45.180000	0.000000	0.000000	144.000000	54.000000	37.000000	32.000000
0.690000	22.100000	45.480000	0.000000	0.000000	144.000000	54.000000	26.000000	30.000000
0.700000	22.180000	45.770000	0.000000	0.000000	144.000000	54.000000	8.000000	29.000000
0.710000	22.110000	46.060000	0.000000	0.000000	144.000000	54.000000	-7.000000	29.000000
0.720000	21.950000	46.360000	0.000000	0.000000	144.000000	54.000000	-16.000000	30.000000
0.730000	21.810000	46.720000	0.000000	0.000000	144.000000	54.000000	-14.000000	36.000000
0.740000	21.810000	47.120000	0.000000	0.000000	144.000000	54.000000	0.000000	40.000000
0.750000	21.910000	47.210000	0.000000	0.000000	143.000000	55.000000	10.000000	9.000000
0.760000	21.910000	47.210000	137.000000	1.000000	143.000000	55.000000	0.000000	0.000000
0.770000	21.910000	47.210000	141.000000	0.000000	143.000000	55.000000	0.000000	0.000000
0.780000	21.910000	47.210000	168.000000	0.000000	143.000000	55.000000	0.000000	0.000000
0.790000	21.910000	47.210000	212.000000	0.000000	143.000000	55.000000	0.000000	0.000000
0.800000	21.970000	46.720000	281.000000	0.000000	141.000000	56.000000	6.000000	-49.000000
0.810000	21.860000	46.340000	324.000000	0.000000	141.000000	56.000000	-11.000000	-38.000000
0.820000	21.700000	45.980000	339.000000	0.000000	141.000000	56.000000	-16.000000	-36.000000
0.830000	21.610000	45.660000	304.000000	0.000000	141.000000	56.000000	-9.000000	-32.000000
0.840000	21.550000	45.420000	101.000000	0.000000	140.000000	56.000000	-6.000000	-24.000000
0.850000	21.550000	45.420000	0.000000	1.000000	140.000000	56.000000	0.000000	0.000000
0.860000	21.720000	45.310000	0.000000	0.000000	140.000000	56.000000	17.000000	-11.000000
0.870000	21.990000	45.730000	0.000000	0.000000	140.000000	56.000000	27.000000	42.000000
0.880000	22.310000	46.380000	0.000000	0.000000	140.000000	56.000000	32.000000	65.000000
0.890000	22.630000	47.020000	0.000000	0.000000	140.000000	56.000000	32.000000	64.000000
0.900000	22.940000	47.690000	0.000000	0.000000	140.000000	56.000000	31.000000	67.000000
0.910000	23.120000	48.370000	0.000000	0.000000	141.000000	56.000000	18.000000	68.000000
0.920000	23.210000	48.810000	0.000000	0.000000	141.000000	56.000000	9.000000	44.000000
0.930000	23.210000	48.810000	274.000000	1.000000	143.000000	55.000000	0.000000	0.000000
0.940000	22.950000	49.010000	282.000000	0.000000	143.000000	55.000000	-26.000000	20.000000
0.950000	22.660000	49.110000	285.000000	0.000000	144.000000	54.000000	-29.000000	10.000000
0.960000	22.440000	49.110000	249.000000	0.000000	142.000000	54.000000	-22.000000	0.000000
0.970000	22.270000	48.870000	210.000000	0.000000	142.000000	54.000000	-17.000000	-24.000000
0.980000	22.200000	48.660000	101.000000	0.000000	142.000000	54.000000	-7.000000	-21.000000
0.990000	22.200000	48.660000	0.000000	1.000000	142.000000	54.000000	0.000000	0.000000
1.000000	22.690000	48.160000	0.000000	0.000000	144.000000	54.000000	49.000000	-50.000000
1.010000	23.060000	47.910000	0.000000	0.000000	144.000000	54.000000	37.000000	-25.000000
1.020000	23.360000	47.680000	0.000000	0.000000	144.000000	54.000000	30.000000	-23.000000
1.030000	23.360000	47.680000	18.000000	1.000000	144.000000	54.000000	0.000000	0.000000
1.040000	23.080000	46.860000	96.000000	0.000000	143.000000	55.000000	-28.000000	-82.000000
1.050000	22.760000	46.350000	158.000000	0.000000	143.000000	55.000000	-32.000000	-51.000000
1.060000	22.470000	45.790000	212.000000	0.000000	143.000000	55.000000	-29.000000	-56.000000
1.070000	22.250000	45.380000	249.000000	0.000000	141.000000	56.000000	-22.000000	-41.000000
1.080000	22.250000	45.250000	267.000000	0.000000	141.000000	56.000000	0.000000	-13.000000
1.090000	22.360000	45.300000	282.000000	0.000000	140.000000	56.000000	11.000000	5.000000
1.100000	22.600000	45.560000	297.000000	0.000000	140.000000	56.000000	24.000000	26.000000
1.110000	22.970000	46.090000	306.000000	0.000000	140.000000	56.000000	37.000000	53.000000
1.120000	23.430000	46.800000	312.000000	0.000000	140.000000	56.000000	46.000000	71.000000
1.130000	23.760000	47.490000	309.000000	0.000000	140.000000	56.000000	33.000000	69.000000
1.140000	23.990000	48.270000	327.000000	0.000000	140.000000	56.000000	23.000000	78.000000
1.150000	24.160000	49.100000	339.000000	0.000000	141.000000	56.000000	17.000000	83.000000
1.160000	24.230000	49.460000	343.000000	0.000000	141.000000	56.000000	7.000000	36.000000
1.170000	24.230000	49.590000	349.000000	0.000000	143.000000	55.000000	0.000000	13.000000
1.180000	24.230000	49.590000	358.000000	0.000000	142.000000	54.000000	0.000000	0.000000
1.190000	24.160000	49.150000	368.000000	0.000000	142.000000	54.000000	-7.000000	-44.000000
1.200000	23.980000	48.420000	377.000000	0.000000	142.000000	54.000000	-18.000000	-73.000000
1.210000	23.720000	47.480000	384.000000	0.000000	143.000000	53.000000	-26.000000	-94.000000
1.220000	23.590000	46.820000	387.000000	0.000000	142.000000	54.000000	-13.000000	-66.000000
1.230000	23.670000	46.430000	389.000000	0.000000	142.000000	54.000000	8.000000	-39.000000
1.240000	23.900000	46.210000	396.000000	0.000000	142.000000	54.000000	23.000000	-22.000000
1.250000	24.270000	46.210000	396.000000	0.000000	143.000000	55.000000	37.000000	0.000000
1.260000	24.690000	46.470000	389.000000	0.000000	143.000000	55.000000	42.000000	26.000000
1.270000	25.070000	46.940000	389.000000	0.000000	141.000000	56.000000	38.000000	47.000000
1.280000	25.400000	47.420000	399.000000	0.000000	141.000000	56.000000	33.000000	48.000000
1.290000	25.560000	47.860000	420.000000	0.000000	141.000000	56.000000	16.000000	44.000000
1.300000	25.560000	48.030000	445.000000	0.000000	143.000000	56.000000	0.000000	17.000000
1.310000	25.450000	48.030000	460.000000	0.000000	144.000000	56.000000	-11.000000	0.000000
1.320000	25.320000	47.930000	475.000000	0.000000	144.000000	56.000000	-13.000000	-10.000000
1.330000	25.100000	47.570000	483.000000	0.000000	144.000000	56.000000	-22.000000	-36.000000
1.340000	24.810000	47.030000	483.000000	0.000000	145.000000	55.000000	-29.000000	-54.000000
1.350000	24.860000	46.700000	468.000000	0.000000	145.000000	55.000000	5.000000	-33.000000
1.360000	25.100000	46.480000	441.000000	0.000000	144.000000	56.000000	24.000000	-22.000000
1.370000	25.470000	46.340000	349.000000	0.000000	144.000000	56.000000	37.000000	-14.000000
1.380000	26.090000	46.470000	249.000000	0.000000	144.000000	56.000000	62.000000	13.000000
1.390000	26.760000	46.770000	173.000000	0.000000	143.000000	56.000000	67.000000	30.000000
1.400000	27.100000	47.180000	184.000000	0.000000	143.000000	56.000000	34.000000	41.000000
1.410000	27.190000	47.500000	208.000000	0.000000	143.000000	56.000000	9.000000	32.000000
1.420000	27.120000	47.620000	270.000000	0.000000	143.000000	56.000000	-7.000000	12.000000
1.430000	26.930000	47.620000	292.000000	0.000000	143.000000	56.000000	-19.000000	0.000000
1.440000	26.660000	47.490000	329.000000	0.000000	143.000000	56.000000	-27.000000	-13.000000
1.450000	26.230000	47.330000	343.000000	0.000000	144.000000	56.000000	-43.000000	-16.000000
1.460000	26.010000	47.130000	351.000000	0.000000	144.000000	56.000000	-22.000000	-20.000000
1.470000	25.930000	46.950000	356.000000	0.000000	145.000000	56.000000	-8.000000	-18.000000
1.480000	25.930000	46.950000	356.000000	0.000000	145.000000	56.000000	0.000000	0.000000
1.490000	26.430000	46.630000	354.000000	0.000000	145.000000	56.000000	50.000000	-32.000000
1.500000	26.900000	46.580000	346.000000	0.000000	145.000000	56.000000	47.000000	-5.000000
1.510000	27.290000	46.580000	343.000000	0.000000	144.000000	57.000000	39.000000	0.000000
1.520000	27.470000	46.580000	339.000000	0.000000	144.000000	57.000000	18.000000	0.000000
1.530000	27.470000	46.650000	338.000000	0.000000	144.000000	57.000000	0.000000	7.000000
1.540000	27.550000	46.770000	216.000000	0.000000	144.000000	57.000000	8.000000	12.000000
1.550000	27.550000	46.770000	0.000000	1.000000	144.000000	57.000000	0.000000	0.000000
1.560000	28.030000	47.250000	0.000000	0.000000	144.000000	57.000000	48.000000	48.000000
1.570000	28.080000	47.610000	0.000000	0.000000	144.000000	57.000000	5.000000	36.000000
1.580000	27.990000	48.000000	0.000000	0.000000	147.000000	56.000000	-9.000000	39.000000
1.590000	27.800000	48.380000	0.000000	0.000000	147.000000	56.000000	-19.000000	38.000000
1.600000	27.710000	48.770000	0.000000	0.000000	147.000000	56.000000	-9.000000	39.000000
1.610000	27.570000	49.180000	0.000000	0.000000	147.000000	56.000000	-14.000000	41.000000
1.620000	27.270000	49.320000	0.000000	0.000000	147.000000	56.000000	-30.000000	14.000000
1.630000	26.890000	49.400000	0.000000	0.000000	148.000000	56.000000	-38.000000	8.000000
1.640000	26.890000	49.400000	281.000000	1.000000	146.000000	55.000000	0.000000	0.000000
1.650000	26.380000	49.230000	304.000000	0.000000	146.000000	55.000000	-51.000000	-17.000000
1.660000	26.090000	49.280000	312.000000	0.000000	146.000000	55.000000	-29.000000	5.000000
1.670000	25.760000	49.450000	306.000000	0.000000	146.000000	55.000000	-33.000000	17.000000
1.680000	25.760000	49.450000	220.000000	0.000000	146.000000	55.000000	0.000000	0.000000
1.690000	25.760000	49.450000	110.000000	0.000000	146.000000	54.000000	0.000000	0.000000
1.700000	25.760000	49.450000	0.000000	1.000000	146.000000	54.000000	0.000000	0.000000
1.710000	26.630000	49.560000	0.000000	0.000000	146.000000	54.000000	87.000000	11.000000
1.720000	27.440000	49.800000	0.000000	0.000000	147.000000	55.000000	81.000000	24.000000
1.730000	28.130000	50.290000	0.000000	0.000000	147.000000	55.000000	69.000000	49.000000
1.740000	28.750000	50.750000	0.000000	0.000000	147.000000	55.000000	62.000000	46.000000
1.750000	29.330000	51.150000	0.000000	0.000000	150.000000	54.000000	58.000000	40.000000
1.760000	29.330000	51.150000	228.000000	1.000000	150.000000	54.000000	0.000000	0.000000
1.770000	29.580000	51.420000	282.000000	0.000000	151.000000	54.000000	25.000000	27.000000
1.780000	29.430000	51.420000	279.000000	0.000000	153.000000	54.000000	-15.000000	0.000000
1.790000	29.250000	51.080000	287.000000	0.000000	153.000000	54.000000	-18.000000	-34.000000
1.800000	29.050000	50.570000	348.000000	0.000000	155.000000	54.000000	-20.000000	-51.000000
1.810000	28.750000	49.700000	441.000000	0.000000	155.000000	54.000000	-30.000000	-87.000000
1.820000	28.420000	48.600000	470.000000	0.000000	155.000000	54.000000	-33.000000	-110.000000
1.830000	28.100000	47.350000	496.000000	0.000000	154.000000	55.000000	-32.000000	-125.000000
1.840000	27.700000	46.000000	492.000000	0.000000	153.000000	56.000000	-40.000000	-135.000000
1.850000	27.240000	44.660000	499.000000	0.000000	153.000000	56.000000	-46.000000	-134.000000
1.860000	26.710000	43.650000	502.000000	0.000000	151.000000	56.000000	-53.000000	-101.000000
1.870000	26.200000	42.870000	509.000000	0.000000	148.000000	57.000000	-51.000000	-78.000000
1.880000	25.930000	42.600000	497.000000	0.000000	147.000000	58.000000	-27.000000	-27.000000
1.890000	25.800000	42.600000	439.000000	0.000000	146.000000	57.000000	-13.000000	0.000000
1.900000	25.670000	42.900000	317.000000	0.000000	143.000000	57.000000	-13.000000	30.000000
1.910000	25.800000	43.540000	173.000000	0.000000	143.000000	57.000000	13.000000	64.000000
1.920000	26.110000	44.220000	12.000000	1.000000	142.000000	57.000000	0.000000	0.000000
1.930000	26.110000	44.220000	0.000000	0.000000	142.000000	57.000000	0.000000	0.000000
1.940000	27.460000	45.610000	0.000000	0.000000	143.000000	57.000000	135.000000	139.000000
1.950000	28.220000	46.310000	0.000000	0.000000	143.000000	57.000000	76.000000	70.000000
1.960000	28.940000	47.030000	0.000000	0.000000	143.000000	57.000000	72.000000	72.000000
1.970000	28.940000	47.030000	86.000000	1.000000	144.000000	58.000000	0.000000	0.000000
1.980000	29.710000	47.850000	184.000000	0.000000	146.000000	57.000000	77.000000	82.000000
1.990000	29.710000	48.030000	250.000000	0.000000	146.000000	57.000000	0.000000	18.000000
2.000000	29.600000	48.090000	330.000000	0.000000	148.000000	57.000000	-11.000000	6.000000
2.010000	29.380000	48.090000	389.000000	0.000000	148.000000	57.000000	-22.000000	0.000000
2.020000	29.050000	47.930000	448.000000	0.000000	149.000000	56.000000	-33.000000	-16.000000
2.030000	28.720000	47.620000	445.000000	0.000000	149.000000	56.000000	-33.000000	-31.000000
2.040000	28.380000	47.250000	448.000000	0.000000	149.000000	56.000000	-34.000000	-37.000000
2.050000	28.250000	46.990000	445.000000	0.000000	149.000000	56.000000	-13.000000	-26.000000
2.060000	28.320000	46.800000	423.000000	0.000000	149.000000	56.000000	7.000000	-19.000000
2.070000	28.530000	46.750000	412.000000	0.000000	148.000000	57.000000	21.000000	-5.000000
2.080000	28.900000	46.850000	379.000000	0.000000	148.000000	57.000000	37.000000	10.000000
2.090000	29.290000	47.050000	371.000000	0.000000	148.000000	57.000000	39.000000	20.000000
2.100000	29.690000	47.440000	356.000000	0.000000	148.000000	57.000000	40.000000	39.000000
2.110000	29.960000	47.920000	351.000000	0.000000	148.000000	57.000000	27.000000	48.000000
2.120000	30.160000	48.450000	353.000000	0.000000	147.000000	56.000000	20.000000	53.000000
2.130000	30.240000	48.780000	369.000000	0.000000	147.000000	56.000000	8.000000	33.000000
2.140000	30.240000	48.880000	382.000000	0.000000	147.000000	56.000000	0.000000	10.000000
2.150000	30.240000	48.880000	389.000000	0.000000	148.000000	56.000000	0.000000	0.000000
2.160000	30.240000	48.710000	399.000000	0.000000	148.000000	56.000000	0.000000	-17.000000
2.170000	30.150000	48.430000	394.000000	0.000000	148.000000	56.000000	-9.000000	-28.000000
2.180000	30.030000	48.040000	397.000000	0.000000	149.000000	55.000000	-12.000000	-39.000000
2.190000	30.030000	47.810000	404.000000	0.000000	148.000000	56.000000	0.000000	-23.000000
2.200000	30.150000	47.690000	407.000000	0.000000	148.000000	56.000000	12.000000	-12.000000
