t	x	y	pressure	penup	azimuth	inclination	v_x	v_y
0.000000	8.090000	60.810000	233.000000	1.000000	119.000000	61.000000	0.000000	0.000000
0.010000	7.560000	60.420000	254.000000	0.000000	117.000000	61.000000	-53.000000	-39.000000
0.020000	7.240000	60.500000	247.000000	0.000000	117.000000	61.000000	-32.000000	8.000000
0.030000	7.240000	60.660000	273.000000	0.000000	117.000000	61.000000	0.000000	16.000000
0.040000	7.240000	60.660000	305.000000	0.000000	118.000000	62.000000	0.000000	0.000000
0.050000	7.430000	61.150000	336.000000	0.000000	118.000000	62.000000	19.000000	49.000000
0.060000	7.840000	61.650000	367.000000	0.000000	118.000000	62.000000	41.000000	50.000000
0.070000	8.640000	62.470000	382.000000	0.000000	118.000000	62.000000	80.000000	82.000000
0.080000	9.630000	63.710000	391.000000	0.000000	117.000000	61.000000	99.000000	124.000000
0.090000	10.740000	65.220000	396.000000	0.000000	115.000000	62.000000	111.000000	151.000000
0.100000	11.660000	66.750000	388.000000	0.000000	115.000000	62.000000	92.000000	153.000000
0.110000	12.220000	68.040000	394.000000	0.000000	114.000000	61.000000	56.000000	129.000000
0.120000	12.550000	69.180000	404.000000	0.000000	114.000000	61.000000	33.000000	114.000000
0.130000	12.670000	69.520000	440.000000	0.000000	115.000000	60.000000	12.000000	34.000000
0.140000	12.670000	69.580000	468.000000	0.000000	117.000000	59.000000	0.000000	6.000000
0.150000	12.600000	69.450000	468.000000	0.000000	117.000000	58.000000	-7.000000	-13.000000
0.160000	12.460000	69.120000	473.000000	0.000000	119.000000	58.000000	-14.000000	-33.000000
0.170000	12.320000	68.440000	464.000000	0.000000	119.000000	58.000000	-14.000000	-68.000000
0.180000	12.170000	67.530000	465.000000	0.000000	118.000000	57.000000	-15.000000	-91.000000
0.190000	12.170000	66.680000	464.000000	0.000000	118.000000	57.000000	0.000000	-85.000000
0.200000	12.170000	65.840000	465.000000	0.000000	116.000000	57.000000	0.000000	-84.000000
0.210000	12.380000	65.220000	465.000000	0.000000	115.000000	58.000000	21.000000	-62.000000
0.220000	12.660000	64.750000	473.000000	0.000000	113.000000	58.000000	28.000000	-47.000000
0.230000	12.940000	64.550000	473.000000	0.000000	112.000000	58.000000	28.000000	-20.000000
0.240000	13.270000	64.670000	468.000000	0.000000	112.000000	58.000000	33.000000	12.000000
0.250000	13.660000	65.010000	465.000000	0.000000	110.000000	58.000000	39.000000	34.000000
0.260000	14.070000	65.680000	466.000000	0.000000	110.000000	58.000000	41.000000	67.000000
0.270000	14.330000	66.470000	465.000000	0.000000	110.000000	58.000000	26.000000	79.000000
0.280000	14.500000	67.330000	466.000000	0.000000	110.000000	58.000000	17.000000	86.000000
0.290000	14.570000	68.160000	468.000000	0.000000	110.000000	58.000000	7.000000	83.000000
0.300000	14.570000	68.930000	471.000000	0.000000	112.000000	58.000000	0.000000	77.000000
0.310000	14.640000	69.390000	469.000000	0.000000	112.000000	58.000000	7.000000	46.000000
0.320000	14.640000	69.660000	474.000000	0.000000	113.000000	58.000000	0.000000	27.000000
0.330000	14.640000	69.660000	473.000000	0.000000	115.000000	58.000000	0.000000	0.000000
0.340000	14.640000	69.660000	464.000000	0.000000	116.000000	57.000000	0.000000	0.000000
0.350000	14.700000	69.430000	465.000000	0.000000	118.000000	57.000000	6.000000	-23.000000
0.360000	14.700000	69.010000	470.000000	0.000000	118.000000	57.000000	0.000000	-42.000000
0.370000	14.700000	68.360000	472.000000	0.000000	119.000000	56.000000	0.000000	-65.000000
0.380000	14.700000	67.770000	470.000000	0.000000	118.000000	57.000000	0.000000	-59.000000
0.390000	14.700000	67.220000	467.000000	0.000000	118.000000	57.000000	0.000000	-55.000000
0.400000	14.820000	66.880000	468.000000	0.000000	116.000000	57.000000	12.000000	-34.000000
0.410000	14.980000	66.730000	466.000000	0.000000	115.000000	58.000000	16.000000	-15.000000
0.420000	15.200000	66.730000	455.000000	0.000000	113.000000	58.000000	22.000000	0.000000
0.430000	15.440000	66.960000	443.000000	0.000000	112.000000	58.000000	24.000000	23.000000
0.440000	15.730000	67.430000	412.000000	0.000000	112.000000	58.000000	29.000000	47.000000
0.450000	16.020000	68.050000	402.000000	0.000000	112.000000	58.000000	29.000000	62.000000
0.460000	16.200000	68.650000	392.000000	0.000000	112.000000	58.000000	18.000000	60.000000
0.470000	16.330000	69.230000	388.000000	0.000000	112.000000	58.000000	13.000000	58.000000
0.480000	16.470000	69.760000	399.000000	0.000000	113.000000	57.000000	14.000000	53.000000
0.490000	16.540000	70.050000	389.000000	0.000000	112.000000	56.000000	7.000000	29.000000
0.500000	16.540000	70.200000	388.000000	0.000000	113.000000	56.000000	0.000000	15.000000
0.510000	16.540000	70.200000	389.000000	0.000000	114.000000	55.000000	0.000000	0.000000
0.520000	16.540000	70.200000	394.000000	0.000000	115.000000	54.000000	0.000000	0.000000
0.530000	16.540000	70.140000	394.000000	0.000000	115.000000	54.000000	0.000000	-6.000000
0.540000	16.540000	69.930000	396.000000	0.000000	116.000000	53.000000	0.000000	-21.000000
0.550000	16.540000	69.610000	396.000000	0.000000	116.000000	53.000000	0.000000	-32.000000
0.560000	16.540000	69.270000	394.000000	0.000000	116.000000	53.000000	0.000000	-34.000000
0.570000	16.730000	68.930000	392.000000	0.000000	116.000000	53.000000	19.000000	-34.000000
0.580000	16.900000	68.580000	389.000000	0.000000	115.000000	54.000000	17.000000	-35.000000
0.590000	17.100000	68.380000	379.000000	0.000000	115.000000	54.000000	20.000000	-20.000000
0.600000	17.270000	68.270000	373.000000	0.000000	115.000000	54.000000	17.000000	-11.000000
0.610000	17.470000	68.270000	369.000000	0.000000	116.000000	55.000000	20.000000	0.000000
0.620000	17.700000	68.480000	364.000000	0.000000	115.000000	55.000000	23.000000	21.000000
0.630000	17.930000	68.860000	359.000000	0.000000	115.000000	55.000000	23.000000	38.000000
0.640000	18.140000	69.270000	361.000000	0.000000	116.000000	56.000000	21.000000	41.000000
0.650000	18.320000	69.670000	361.000000	0.000000	116.000000	56.000000	18.000000	40.000000
0.660000	18.370000	70.040000	364.000000	0.000000	117.000000	56.000000	5.000000	37.000000
0.670000	18.370000	70.330000	369.000000	0.000000	117.000000	56.000000	0.000000	29.000000
0.680000	18.260000	70.580000	366.000000	0.000000	118.000000	56.000000	-11.000000	25.000000
0.690000	18.120000	70.750000	404.000000	0.000000	118.000000	56.000000	-14.000000	17.000000
0.700000	17.930000	70.800000	414.000000	0.000000	120.000000	55.000000	-19.000000	5.000000
0.710000	17.930000	70.800000	422.000000	0.000000	121.000000	56.000000	0.000000	0.000000
0.720000	17.880000	70.800000	420.000000	0.000000	122.000000	56.000000	-5.000000	0.000000
0.730000	17.880000	70.750000	418.000000	0.000000	122.000000	56.000000	0.000000	-5.000000
0.740000	17.880000	70.660000	407.000000	0.000000	122.000000	56.000000	0.000000	-9.000000
0.750000	17.930000	70.500000	361.000000	0.000000	122.000000	56.000000	5.000000	-16.000000
0.760000	17.930000	70.290000	235.000000	0.000000	123.000000	56.000000	0.000000	-21.000000
0.770000	17.930000	70.290000	0.000000	1.000000	123.000000	56.000000	0.000000	0.000000
0.780000	17.930000	69.900000	0.000000	0.000000	123.000000	56.000000	0.000000	-39.000000
0.790000	17.930000	69.740000	0.000000	0.000000	123.000000	56.000000	0.000000	-16.000000
0.800000	17.840000	69.660000	0.000000	0.000000	122.000000	57.000000	-9.000000	-8.000000
0.810000	17.950000	69.660000	0.000000	0.000000	121.000000	56.000000	11.000000	0.000000
0.820000	18.120000	69.610000	0.000000	0.000000	121.000000	56.000000	17.000000	-5.000000
0.830000	18.390000	69.560000	0.000000	0.000000	118.000000	56.000000	27.000000	-5.000000
0.840000	18.390000	69.560000	0.000000	0.000000	118.000000	56.000000	0.000000	0.000000
0.850000	18.740000	69.420000	0.000000	0.000000	117.000000	55.000000	35.000000	-14.000000
0.860000	18.820000	69.420000	0.000000	0.000000	117.000000	55.000000	8.000000	0.000000
0.870000	18.870000	69.530000	0.000000	0.000000	117.000000	54.000000	5.000000	11.000000
0.880000	18.870000	69.530000	71.000000	1.000000	117.000000	54.000000	0.000000	0.000000
0.890000	18.790000	69.850000	96.000000	0.000000	117.000000	54.000000	-8.000000	32.000000
0.900000	18.640000	70.070000	112.000000	0.000000	117.000000	54.000000	-15.000000	22.000000
0.910000	18.470000	70.200000	160.000000	0.000000	117.000000	55.000000	-17.000000	13.000000
0.920000	18.340000	70.320000	190.000000	0.000000	117.000000	55.000000	-13.000000	12.000000
0.930000	18.260000	70.390000	200.000000	0.000000	119.000000	54.000000	-8.000000	7.000000
0.940000	18.260000	70.390000	198.000000	0.000000	120.000000	55.000000	0.000000	0.000000
0.950000	18.260000	70.390000	198.000000	0.000000	120.000000	55.000000	0.000000	0.000000
0.960000	18.260000	70.390000	198.000000	0.000000	120.000000	55.000000	0.000000	0.000000
0.970000	18.260000	70.390000	210.000000	0.000000	121.000000	55.000000	0.000000	0.000000
0.980000	18.190000	70.210000	206.000000	0.000000	121.000000	55.000000	-7.000000	-18.000000
0.990000	18.000000	69.840000	221.000000	0.000000	120.000000	55.000000	-19.000000	-37.000000
1.000000	17.790000	69.330000	226.000000	0.000000	120.000000	55.000000	-21.000000	-51.000000
1.010000	17.640000	68.890000	235.000000	0.000000	121.000000	56.000000	-15.000000	-44.000000
1.020000	17.710000	68.540000	247.000000	0.000000	119.000000	56.000000	7.000000	-35.000000
1.030000	17.900000	68.260000	267.000000	0.000000	119.000000	56.000000	19.000000	-28.000000
1.040000	18.090000	68.150000	296.000000	0.000000	119.000000	56.000000	19.000000	-11.000000
1.050000	18.320000	68.280000	335.000000	0.000000	118.000000	57.000000	23.000000	13.000000
1.060000	18.600000	68.560000	351.000000	0.000000	118.000000	57.000000	28.000000	28.000000
1.070000	18.750000	69.010000	418.000000	0.000000	116.000000	57.000000	15.000000	45.000000
1.080000	18.810000	69.450000	460.000000	0.000000	116.000000	57.000000	6.000000	44.000000
1.090000	18.740000	69.880000	481.000000	0.000000	116.000000	57.000000	-7.000000	43.000000
1.100000	18.690000	70.280000	517.000000	0.000000	118.000000	57.000000	-5.000000	40.000000
1.110000	18.690000	70.610000	529.000000	0.000000	118.000000	57.000000	0.000000	33.000000
1.120000	18.690000	70.730000	529.000000	0.000000	119.000000	56.000000	0.000000	12.000000
1.130000	18.750000	70.730000	535.000000	0.000000	120.000000	55.000000	6.000000	0.000000
1.140000	18.810000	70.730000	538.000000	0.000000	120.000000	55.000000	6.000000	0.000000
1.150000	18.910000	70.730000	541.000000	0.000000	121.000000	55.000000	10.000000	0.000000
1.160000	19.010000	70.730000	539.000000	0.000000	121.000000	55.000000	10.000000	0.000000
1.170000	19.080000	70.730000	542.000000	0.000000	121.000000	55.000000	7.000000	0.000000
1.180000	19.140000	70.730000	539.000000	0.000000	122.000000	54.000000	6.000000	0.000000
1.190000	19.210000	70.730000	519.000000	0.000000	122.000000	54.000000	7.000000	0.000000
1.200000	19.280000	70.730000	448.000000	0.000000	122.000000	54.000000	7.000000	0.000000
1.210000	19.350000	70.730000	260.000000	0.000000	122.000000	54.000000	7.000000	0.000000
1.220000	19.350000	70.730000	0.000000	1.000000	122.000000	54.000000	0.000000	0.000000
1.230000	19.760000	70.640000	0.000000	0.000000	120.000000	54.000000	41.000000	-9.000000
1.240000	19.860000	70.340000	0.000000	0.000000	120.000000	54.000000	10.000000	-30.000000
1.250000	19.620000	69.890000	0.000000	0.000000	120.000000	54.000000	-24.000000	-45.000000
1.260000	19.280000	69.280000	0.000000	0.000000	118.000000	54.000000	-34.000000	-61.000000
1.270000	18.880000	68.670000	0.000000	0.000000	118.000000	54.000000	-40.000000	-61.000000
1.280000	18.620000	68.080000	0.000000	0.000000	117.000000	54.000000	-26.000000	-59.000000
1.290000	18.400000	67.600000	0.000000	0.000000	115.000000	54.000000	-22.000000	-48.000000
1.300000	18.320000	67.180000	0.000000	0.000000	114.000000	53.000000	-8.000000	-42.000000
1.310000	18.320000	66.880000	0.000000	0.000000	113.000000	54.000000	0.000000	-30.000000
1.320000	18.240000	66.620000	0.000000	0.000000	112.000000	54.000000	-8.000000	-26.000000
1.330000	18.240000	66.620000	281.000000	1.000000	112.000000	54.000000	0.000000	0.000000
1.340000	17.960000	66.260000	329.000000	0.000000	111.000000	55.000000	-28.000000	-36.000000
1.350000	17.800000	66.260000	349.000000	0.000000	111.000000	55.000000	-16.000000	0.000000
1.360000	17.730000	66.340000	363.000000	0.000000	110.000000	56.000000	-7.000000	8.000000
1.370000	17.790000	66.460000	373.000000	0.000000	111.000000	57.000000	6.000000	12.000000
1.380000	18.020000	66.690000	371.000000	0.000000	110.000000	58.000000	23.000000	23.000000
1.390000	18.370000	67.000000	334.000000	0.000000	110.000000	58.000000	35.000000	31.000000
1.400000	18.760000	67.190000	148.000000	0.000000	111.000000	59.000000	39.000000	19.000000
1.410000	18.760000	67.190000	0.000000	1.000000	111.000000	59.000000	0.000000	0.000000
1.420000	19.290000	67.390000	0.000000	0.000000	111.000000	59.000000	53.000000	20.000000
1.430000	19.380000	67.390000	0.000000	0.000000	110.000000	58.000000	9.000000	0.000000
1.440000	19.330000	67.470000	0.000000	0.000000	110.000000	58.000000	-5.000000	8.000000
1.450000	19.460000	67.610000	0.000000	0.000000	111.000000	57.000000	13.000000	14.000000
1.460000	19.700000	67.750000	0.000000	0.000000	112.000000	56.000000	24.000000	14.000000
1.470000	20.300000	67.870000	0.000000	0.000000	113.000000	56.000000	60.000000	12.000000
1.480000	20.950000	67.980000	0.000000	0.000000	114.000000	55.000000	65.000000	11.000000
1.490000	21.650000	68.110000	0.000000	0.000000	114.000000	53.000000	70.000000	13.000000
1.500000	22.150000	68.250000	0.000000	0.000000	115.000000	52.000000	50.000000	14.000000
1.510000	22.530000	68.340000	0.000000	0.000000	116.000000	52.000000	38.000000	9.000000
1.520000	22.810000	68.440000	0.000000	0.000000	117.000000	52.000000	28.000000	10.000000
1.530000	23.000000	68.550000	0.000000	0.000000	117.000000	52.000000	19.000000	11.000000
1.540000	23.130000	68.690000	0.000000	0.000000	117.000000	52.000000	13.000000	14.000000
1.550000	23.250000	68.850000	0.000000	0.000000	117.000000	52.000000	12.000000	16.000000
1.560000	23.390000	69.060000	0.000000	0.000000	117.000000	53.000000	14.000000	21.000000
1.570000	23.550000	69.300000	0.000000	0.000000	117.000000	53.000000	16.000000	24.000000
1.580000	23.700000	69.560000	0.000000	0.000000	116.000000	53.000000	15.000000	26.000000
1.590000	23.700000	69.800000	0.000000	0.000000	116.000000	53.000000	0.000000	24.000000
1.600000	23.590000	69.880000	0.000000	0.000000	116.000000	53.000000	-11.000000	8.000000
1.610000	23.420000	69.880000	0.000000	0.000000	116.000000	53.000000	-17.000000	0.000000
1.620000	23.230000	69.780000	0.000000	0.000000	116.000000	53.000000	-19.000000	-10.000000
1.630000	23.020000	69.690000	0.000000	0.000000	116.000000	53.000000	-21.000000	-9.000000
1.640000	22.860000	69.580000	0.000000	0.000000	116.000000	53.000000	-16.000000	-11.000000
1.650000	22.730000	69.480000	0.000000	0.000000	116.000000	53.000000	-13.000000	-10.000000
1.660000	22.620000	69.370000	0.000000	0.000000	114.000000	53.000000	-11.000000	-11.000000
1.670000	22.530000	69.270000	0.000000	0.000000	114.000000	53.000000	-9.000000	-10.000000
1.680000	22.530000	69.220000	0.000000	0.000000	114.000000	53.000000	0.000000	-5.000000
1.690000	22.620000	69.220000	0.000000	0.000000	112.000000	53.000000	9.000000	0.000000
1.700000	22.860000	69.220000	0.000000	0.000000	111.000000	53.000000	24.000000	0.000000
1.710000	23.050000	69.280000	0.000000	0.000000	111.000000	53.000000	19.000000	6.000000
1.720000	23.150000	69.280000	0.000000	0.000000	109.000000	52.000000	10.000000	0.000000
1.730000	23.150000	69.280000	0.000000	0.000000	109.000000	52.000000	0.000000	0.000000
1.740000	23.210000	69.280000	0.000000	0.000000	110.000000	53.000000	6.000000	0.000000
1.750000	23.210000	69.380000	0.000000	0.000000	110.000000	53.000000	0.000000	10.000000
1.760000	23.080000	69.380000	0.000000	0.000000	110.000000	53.000000	-13.000000	0.000000
1.770000	22.910000	69.290000	0.000000	0.000000	110.000000	53.000000	-17.000000	-9.000000
1.780000	22.770000	69.190000	0.000000	0.000000	110.000000	53.000000	-14.000000	-10.000000
1.790000	22.690000	69.090000	0.000000	0.000000	110.000000	53.000000	-8.000000	-10.000000
1.800000	22.690000	68.990000	0.000000	0.000000	110.000000	53.000000	0.000000	-10.000000
1.810000	22.690000	68.880000	0.000000	0.000000	111.000000	53.000000	0.000000	-11.000000
1.820000	22.690000	68.880000	190.000000	1.000000	111.000000	53.000000	0.000000	0.000000
1.830000	22.590000	68.670000	226.000000	0.000000	110.000000	52.000000	-10.000000	-21.000000
1.840000	22.590000	68.670000	254.000000	0.000000	111.000000	53.000000	0.000000	0.000000
1.850000	22.590000	68.670000	250.000000	0.000000	111.000000	53.000000	0.000000	0.000000
1.860000	22.590000	68.670000	289.000000	0.000000	111.000000	53.000000	0.000000	0.000000
1.870000	22.760000	68.670000	312.000000	0.000000	112.000000	53.000000	17.000000	0.000000
1.880000	23.070000	68.870000	319.000000	0.000000	112.000000	53.000000	31.000000	20.000000
1.890000	23.490000	69.170000	327.000000	0.000000	113.000000	54.000000	42.000000	30.000000
1.900000	23.850000	69.630000	341.000000	0.000000	113.000000	54.000000	36.000000	46.000000
1.910000	24.130000	70.090000	353.000000	0.000000	114.000000	53.000000	28.000000	46.000000
1.920000	24.360000	70.530000	366.000000	0.000000	114.000000	53.000000	23.000000	44.000000
1.930000	24.360000	70.940000	405.000000	0.000000	116.000000	53.000000	0.000000	41.000000
1.940000	24.290000	71.180000	440.000000	0.000000	116.000000	53.000000	-7.000000	24.000000
1.950000	24.180000	71.320000	480.000000	0.000000	117.000000	53.000000	-11.000000	14.000000
1.960000	24.180000	71.320000	496.000000	0.000000	117.000000	53.000000	0.000000	0.000000
1.970000	24.110000	71.370000	490.000000	0.000000	118.000000	53.000000	-7.000000	5.000000
1.980000	24.110000	71.370000	491.000000	0.000000	118.000000	53.000000	0.000000	0.000000
1.990000	24.110000	70.870000	496.000000	0.000000	118.000000	53.000000	0.000000	-50.000000
2.000000	24.110000	70.140000	496.000000	0.000000	118.000000	53.000000	0.000000	-73.000000
2.010000	24.020000	69.170000	494.000000	0.000000	118.000000	53.000000	-9.000000	-97.000000
2.020000	23.940000	68.050000	502.000000	0.000000	118.000000	53.000000	-8.000000	-112.000000
2.030000	23.880000	66.830000	515.000000	0.000000	117.000000	53.000000	-6.000000	-122.000000
2.040000	23.880000	65.690000	520.000000	0.000000	116.000000	53.000000	0.000000	-114.000000
2.050000	23.820000	64.750000	519.000000	0.000000	114.000000	53.000000	-6.000000	-94.000000
2.060000	23.770000	63.950000	522.000000	0.000000	113.000000	54.000000	-5.000000	-80.000000
2.070000	23.770000	63.500000	512.000000	0.000000	112.000000	54.000000	0.000000	-45.000000
2.080000	23.840000	63.330000	518.000000	0.000000	110.000000	54.000000	7.000000	-17.000000
2.090000	23.840000	63.330000	529.000000	0.000000	109.000000	55.000000	0.000000	0.000000
2.100000	23.840000	63.500000	530.000000	0.000000	109.000000	55.000000	0.000000	17.000000
2.110000	23.790000	63.940000	535.000000	0.000000	109.000000	55.000000	-5.000000	44.000000
2.120000	23.790000	64.590000	513.000000	0.000000	108.000000	54.000000	0.000000	65.000000
2.130000	23.840000	65.170000	448.000000	0.000000	107.000000	54.000000	5.000000	58.000000
2.140000	23.970000	65.700000	305.000000	0.000000	107.000000	55.000000	13.000000	53.000000
2.150000	24.140000	66.140000	91.000000	0.000000	107.000000	55.000000	17.000000	44.000000
2.160000	24.140000	66.140000	0.000000	1.000000	107.000000	55.000000	0.000000	0.000000
2.170000	24.700000	66.880000	0.000000	0.000000	108.000000	56.000000	56.000000	74.000000
2.180000	24.910000	67.140000	0.000000	0.000000	108.000000	56.000000	21.000000	26.000000
2.190000	25.050000	67.330000	0.000000	0.000000	108.000000	56.000000	14.000000	19.000000
2.200000	25.050000	67.330000	51.000000	1.000000	108.000000	56.000000	0.000000	0.000000
2.210000	25.170000	67.610000	167.000000	0.000000	109.000000	57.000000	12.000000	28.000000
2.220000	25.170000	67.710000	242.000000	0.000000	109.000000	57.000000	0.000000	10.000000
