t	x	y	pressure	penup	azimuth	inclination	v_x	v_y
0.000000	45.170000	4.850000	486.000000	1.000000	167.000000	49.000000	0.000000	0.000000
0.010000	45.120000	4.000000	519.000000	0.000000	168.000000	50.000000	-5.000000	-85.000000
0.020000	45.120000	4.080000	540.000000	0.000000	169.000000	51.000000	0.000000	8.000000
0.030000	45.170000	4.320000	664.000000	0.000000	168.000000	53.000000	5.000000	24.000000
0.040000	45.520000	4.950000	753.000000	0.000000	166.000000	54.000000	35.000000	63.000000
0.050000	46.030000	5.980000	799.000000	0.000000	165.000000	55.000000	51.000000	103.000000
0.060000	47.000000	7.280000	817.000000	0.000000	165.000000	56.000000	97.000000	130.000000
0.070000	48.180000	8.690000	845.000000	0.000000	163.000000	57.000000	118.000000	141.000000
0.080000	49.490000	10.660000	855.000000	0.000000	163.000000	57.000000	131.000000	197.000000
0.090000	50.810000	13.010000	869.000000	0.000000	163.000000	57.000000	132.000000	235.000000
0.100000	52.170000	15.830000	853.000000	0.000000	164.000000	57.000000	136.000000	282.000000
0.110000	53.130000	18.070000	860.000000	0.000000	165.000000	56.000000	96.000000	224.000000
0.120000	53.810000	19.920000	855.000000	0.000000	165.000000	55.000000	68.000000	185.000000
0.130000	54.070000	20.550000	849.000000	0.000000	167.000000	54.000000	26.000000	63.000000
0.140000	54.070000	20.630000	827.000000	0.000000	167.000000	54.000000	0.000000	8.000000
0.150000	53.990000	20.340000	824.000000	0.000000	168.000000	53.000000	-8.000000	-29.000000
0.160000	53.590000	19.460000	818.000000	0.000000	169.000000	53.000000	-40.000000	-88.000000
0.170000	53.000000	17.980000	824.000000	0.000000	170.000000	52.000000	-59.000000	-148.000000
0.180000	52.290000	16.100000	819.000000	0.000000	170.000000	52.000000	-71.000000	-188.000000
0.190000	51.740000	14.380000	827.000000	0.000000	170.000000	52.000000	-55.000000	-172.000000
0.200000	51.510000	12.790000	827.000000	0.000000	169.000000	53.000000	-23.000000	-159.000000
0.210000	51.510000	11.300000	827.000000	0.000000	168.000000	53.000000	0.000000	-149.000000
0.220000	51.670000	10.600000	834.000000	0.000000	167.000000	54.000000	16.000000	-70.000000
0.230000	51.870000	10.320000	843.000000	0.000000	167.000000	55.000000	20.000000	-28.000000
0.240000	52.110000	10.320000	860.000000	0.000000	165.000000	56.000000	24.000000	0.000000
0.250000	52.670000	10.630000	864.000000	0.000000	165.000000	56.000000	56.000000	31.000000
0.260000	53.430000	11.530000	860.000000	0.000000	164.000000	57.000000	76.000000	90.000000
0.270000	54.160000	12.820000	861.000000	0.000000	166.000000	57.000000	73.000000	129.000000
0.280000	54.860000	14.380000	845.000000	0.000000	166.000000	57.000000	70.000000	156.000000
0.290000	55.550000	15.920000	834.000000	0.000000	166.000000	57.000000	69.000000	154.000000
0.300000	56.090000	17.460000	827.000000	0.000000	168.000000	56.000000	54.000000	154.000000
0.310000	56.400000	18.440000	827.000000	0.000000	168.000000	55.000000	31.000000	98.000000
0.320000	56.550000	18.800000	818.000000	0.000000	168.000000	55.000000	15.000000	36.000000
0.330000	56.550000	18.800000	805.000000	0.000000	170.000000	55.000000	0.000000	0.000000
0.340000	56.470000	18.740000	797.000000	0.000000	170.000000	54.000000	-8.000000	-6.000000
0.350000	56.370000	18.450000	791.000000	0.000000	172.000000	53.000000	-10.000000	-29.000000
0.360000	56.290000	17.970000	785.000000	0.000000	172.000000	53.000000	-8.000000	-48.000000
0.370000	56.230000	17.150000	785.000000	0.000000	172.000000	53.000000	-6.000000	-82.000000
0.380000	56.230000	16.520000	790.000000	0.000000	172.000000	52.000000	0.000000	-63.000000
0.390000	56.410000	16.030000	790.000000	0.000000	172.000000	52.000000	18.000000	-49.000000
0.400000	56.600000	15.720000	790.000000	0.000000	172.000000	52.000000	19.000000	-31.000000
0.410000	56.850000	15.540000	791.000000	0.000000	172.000000	52.000000	25.000000	-18.000000
0.420000	57.090000	15.450000	794.000000	0.000000	172.000000	53.000000	24.000000	-9.000000
0.430000	57.310000	15.510000	796.000000	0.000000	173.000000	53.000000	22.000000	6.000000
0.440000	57.550000	15.570000	797.000000	0.000000	173.000000	53.000000	24.000000	6.000000
0.450000	57.700000	15.630000	802.000000	0.000000	173.000000	53.000000	15.000000	6.000000
0.460000	57.790000	15.630000	805.000000	0.000000	173.000000	53.000000	9.000000	0.000000
0.470000	57.790000	15.680000	803.000000	0.000000	175.000000	54.000000	0.000000	5.000000
0.480000	57.790000	15.680000	800.000000	0.000000	175.000000	54.000000	0.000000	0.000000
0.490000	57.790000	15.680000	793.000000	0.000000	175.000000	54.000000	0.000000	0.000000
0.500000	57.790000	15.680000	760.000000	0.000000	176.000000	54.000000	0.000000	0.000000
0.510000	57.790000	15.680000	638.000000	0.000000	176.000000	54.000000	0.000000	0.000000
0.520000	57.790000	15.680000	468.000000	0.000000	176.000000	54.000000	0.000000	0.000000
0.530000	58.110000	15.600000	187.000000	0.000000	176.000000	54.000000	32.000000	-8.000000
0.540000	58.110000	15.600000	0.000000	1.000000	176.000000	54.000000	0.000000	0.000000
0.550000	58.650000	15.740000	0.000000	0.000000	176.000000	54.000000	54.000000	14.000000
0.560000	58.840000	16.100000	0.000000	0.000000	175.000000	53.000000	19.000000	36.000000
0.570000	58.990000	16.480000	0.000000	0.000000	175.000000	53.000000	15.000000	38.000000
0.580000	59.160000	16.870000	0.000000	0.000000	175.000000	52.000000	17.000000	39.000000
0.590000	59.330000	17.170000	0.000000	0.000000	174.000000	52.000000	17.000000	30.000000
0.600000	59.510000	17.490000	0.000000	0.000000	174.000000	51.000000	18.000000	32.000000
0.610000	59.700000	17.800000	0.000000	0.000000	174.000000	51.000000	19.000000	31.000000
0.620000	59.890000	18.070000	0.000000	0.000000	174.000000	51.000000	19.000000	27.000000
0.630000	60.090000	18.340000	0.000000	0.000000	174.000000	51.000000	20.000000	27.000000
0.640000	60.090000	18.340000	80.000000	1.000000	175.000000	51.000000	0.000000	0.000000
0.650000	60.420000	18.650000	149.000000	0.000000	175.000000	52.000000	33.000000	31.000000
0.660000	60.490000	18.840000	250.000000	0.000000	175.000000	52.000000	7.000000	19.000000
0.670000	60.490000	18.980000	399.000000	0.000000	174.000000	52.000000	0.000000	14.000000
0.680000	60.490000	19.100000	491.000000	0.000000	174.000000	52.000000	0.000000	12.000000
0.690000	60.490000	19.100000	519.000000	0.000000	172.000000	52.000000	0.000000	0.000000
0.700000	60.490000	19.100000	540.000000	0.000000	172.000000	52.000000	0.000000	0.000000
0.710000	60.150000	19.460000	543.000000	0.000000	171.000000	52.000000	-34.000000	36.000000
0.720000	59.860000	19.610000	536.000000	0.000000	170.000000	52.000000	-29.000000	15.000000
0.730000	59.540000	19.610000	536.000000	0.000000	169.000000	51.000000	-32.000000	0.000000
0.740000	59.400000	19.480000	537.000000	0.000000	169.000000	50.000000	-14.000000	-13.000000
0.750000	59.270000	19.370000	537.000000	0.000000	168.000000	50.000000	-13.000000	-11.000000
0.760000	59.140000	19.220000	546.000000	0.000000	168.000000	50.000000	-13.000000	-15.000000
0.770000	59.140000	19.050000	540.000000	0.000000	168.000000	50.000000	0.000000	-17.000000
0.780000	59.240000	18.970000	543.000000	0.000000	167.000000	50.000000	10.000000	-8.000000
0.790000	59.330000	18.970000	570.000000	0.000000	167.000000	50.000000	9.000000	0.000000
0.800000	59.480000	18.970000	561.000000	0.000000	166.000000	51.000000	15.000000	0.000000
0.810000	59.660000	18.970000	536.000000	0.000000	165.000000	51.000000	18.000000	0.000000
0.820000	59.810000	18.970000	431.000000	0.000000	165.000000	51.000000	15.000000	0.000000
0.830000	59.900000	18.970000	170.000000	0.000000	165.000000	51.000000	9.000000	0.000000
0.840000	59.900000	18.970000	0.000000	1.000000	166.000000	51.000000	0.000000	0.000000
0.850000	60.080000	18.890000	0.000000	0.000000	167.000000	51.000000	18.000000	-8.000000
0.860000	60.080000	18.890000	0.000000	0.000000	169.000000	51.000000	0.000000	0.000000
0.870000	59.910000	18.890000	0.000000	0.000000	170.000000	52.000000	-17.000000	0.000000
0.880000	59.820000	18.890000	0.000000	0.000000	171.000000	52.000000	-9.000000	0.000000
0.890000	59.740000	18.610000	0.000000	0.000000	171.000000	52.000000	-8.000000	-28.000000
0.900000	59.670000	18.250000	0.000000	0.000000	172.000000	52.000000	-7.000000	-36.000000
0.910000	59.670000	18.250000	232.000000	1.000000	174.000000	52.000000	0.000000	0.000000
0.920000	59.360000	17.630000	311.000000	0.000000	174.000000	52.000000	-31.000000	-62.000000
0.930000	59.360000	17.740000	480.000000	0.000000	172.000000	52.000000	0.000000	11.000000
0.940000	59.360000	17.740000	588.000000	0.000000	171.000000	53.000000	0.000000	0.000000
0.950000	59.360000	17.740000	591.000000	0.000000	169.000000	53.000000	0.000000	0.000000
0.960000	59.620000	17.830000	570.000000	0.000000	169.000000	53.000000	26.000000	9.000000
0.970000	59.880000	17.950000	438.000000	0.000000	168.000000	52.000000	26.000000	12.000000
0.980000	60.220000	18.070000	90.000000	0.000000	167.000000	52.000000	34.000000	12.000000
0.990000	60.220000	18.070000	0.000000	1.000000	167.000000	52.000000	0.000000	0.000000
1.000000	60.940000	18.280000	0.000000	0.000000	168.000000	52.000000	72.000000	21.000000
1.010000	61.170000	18.580000	0.000000	0.000000	169.000000	53.000000	23.000000	30.000000
1.020000	61.340000	19.000000	0.000000	0.000000	171.000000	53.000000	17.000000	42.000000
1.030000	61.610000	19.550000	0.000000	0.000000	171.000000	52.000000	27.000000	55.000000
1.040000	61.890000	20.160000	0.000000	0.000000	172.000000	52.000000	28.000000	61.000000
1.050000	62.020000	20.810000	0.000000	0.000000	174.000000	51.000000	13.000000	65.000000
1.060000	62.020000	21.420000	0.000000	0.000000	174.000000	51.000000	0.000000	61.000000
1.070000	62.020000	21.420000	277.000000	1.000000	175.000000	51.000000	0.000000	0.000000
1.080000	61.620000	22.200000	354.000000	0.000000	175.000000	50.000000	-40.000000	78.000000
1.090000	61.290000	22.570000	399.000000	0.000000	175.000000	50.000000	-33.000000	37.000000
1.100000	61.140000	22.570000	461.000000	0.000000	174.000000	50.000000	-15.000000	0.000000
1.110000	60.990000	22.230000	561.000000	0.000000	174.000000	50.000000	-15.000000	-34.000000
1.120000	60.860000	21.390000	622.000000	0.000000	174.000000	50.000000	-13.000000	-84.000000
1.130000	60.720000	20.010000	687.000000	0.000000	174.000000	50.000000	-14.000000	-138.000000
1.140000	60.590000	18.270000	733.000000	0.000000	174.000000	51.000000	-13.000000	-174.000000
1.150000	60.440000	16.020000	785.000000	0.000000	173.000000	51.000000	-15.000000	-225.000000
1.160000	60.280000	13.860000	800.000000	0.000000	172.000000	52.000000	-16.000000	-216.000000
1.170000	60.010000	11.760000	827.000000	0.000000	173.000000	53.000000	-27.000000	-210.000000
1.180000	59.680000	10.230000	830.000000	0.000000	173.000000	54.000000	-33.000000	-153.000000
1.190000	59.310000	9.170000	837.000000	0.000000	173.000000	55.000000	-37.000000	-106.000000
1.200000	59.100000	8.430000	845.000000	0.000000	173.000000	56.000000	-21.000000	-74.000000
1.210000	58.920000	8.140000	863.000000	0.000000	172.000000	57.000000	-18.000000	-29.000000
1.220000	58.840000	8.080000	902.000000	0.000000	172.000000	57.000000	-8.000000	-6.000000
1.230000	58.840000	8.180000	900.000000	0.000000	172.000000	58.000000	0.000000	10.000000
1.240000	58.760000	8.590000	890.000000	0.000000	172.000000	58.000000	-8.000000	41.000000
1.250000	58.700000	9.390000	857.000000	0.000000	172.000000	58.000000	-6.000000	80.000000
1.260000	58.700000	10.450000	828.000000	0.000000	172.000000	58.000000	0.000000	106.000000
1.270000	59.020000	11.880000	821.000000	0.000000	170.000000	58.000000	32.000000	143.000000
1.280000	59.550000	13.010000	821.000000	0.000000	172.000000	58.000000	53.000000	113.000000
1.290000	60.150000	13.930000	832.000000	0.000000	172.000000	58.000000	60.000000	92.000000
1.300000	60.760000	14.530000	830.000000	0.000000	172.000000	58.000000	61.000000	60.000000
1.310000	61.410000	14.910000	832.000000	0.000000	172.000000	58.000000	65.000000	38.000000
1.320000	62.110000	15.150000	818.000000	0.000000	174.000000	58.000000	70.000000	24.000000
1.330000	62.920000	15.300000	819.000000	0.000000	174.000000	57.000000	81.000000	15.000000
1.340000	63.810000	15.490000	824.000000	0.000000	174.000000	56.000000	89.000000	19.000000
1.350000	64.480000	15.740000	824.000000	0.000000	174.000000	56.000000	67.000000	25.000000
1.360000	64.990000	16.020000	825.000000	0.000000	174.000000	55.000000	51.000000	28.000000
1.370000	65.390000	16.340000	825.000000	0.000000	175.000000	54.000000	40.000000	32.000000
1.380000	65.590000	16.750000	821.000000	0.000000	175.000000	54.000000	20.000000	41.000000
1.390000	65.650000	17.230000	817.000000	0.000000	175.000000	53.000000	6.000000	48.000000
1.400000	65.430000	17.660000	791.000000	0.000000	176.000000	53.000000	-22.000000	43.000000
1.410000	65.020000	18.050000	787.000000	0.000000	176.000000	52.000000	-41.000000	39.000000
1.420000	64.490000	18.150000	776.000000	0.000000	176.000000	52.000000	-53.000000	10.000000
1.430000	63.880000	18.080000	773.000000	0.000000	176.000000	52.000000	-61.000000	-7.000000
1.440000	63.310000	17.680000	770.000000	0.000000	176.000000	51.000000	-57.000000	-40.000000
1.450000	62.820000	17.140000	771.000000	0.000000	176.000000	51.000000	-49.000000	-54.000000
1.460000	62.660000	16.500000	770.000000	0.000000	176.000000	51.000000	-16.000000	-64.000000
1.470000	62.710000	16.050000	779.000000	0.000000	175.000000	51.000000	5.000000	-45.000000
1.480000	63.040000	15.810000	787.000000	0.000000	175.000000	52.000000	33.000000	-24.000000
1.490000	63.400000	15.720000	796.000000	0.000000	174.000000	52.000000	36.000000	-9.000000
1.500000	63.840000	15.790000	787.000000	0.000000	174.000000	52.000000	44.000000	7.000000
1.510000	64.300000	16.030000	790.000000	0.000000	174.000000	52.000000	46.000000	24.000000
1.520000	64.780000	16.380000	790.000000	0.000000	172.000000	52.000000	48.000000	35.000000
1.530000	65.160000	16.770000	788.000000	0.000000	172.000000	52.000000	38.000000	39.000000
1.540000	65.470000	17.130000	793.000000	0.000000	174.000000	52.000000	31.000000	36.000000
1.550000	65.830000	17.470000	790.000000	0.000000	174.000000	52.000000	36.000000	34.000000
1.560000	66.060000	17.550000	790.000000	0.000000	174.000000	52.000000	23.000000	8.000000
1.570000	66.210000	17.550000	783.000000	0.000000	175.000000	52.000000	15.000000	0.000000
1.580000	66.380000	17.490000	794.000000	0.000000	175.000000	52.000000	17.000000	-6.000000
1.590000	66.560000	17.270000	779.000000	0.000000	176.000000	52.000000	18.000000	-22.000000
1.600000	66.640000	16.960000	770.000000	0.000000	176.000000	52.000000	8.000000	-31.000000
1.610000	66.640000	16.630000	745.000000	0.000000	178.000000	51.000000	0.000000	-33.000000
1.620000	66.640000	16.630000	737.000000	0.000000	178.000000	51.000000	0.000000	0.000000
1.630000	66.470000	16.280000	733.000000	0.000000	178.000000	51.000000	-17.000000	-35.000000
1.640000	66.300000	16.160000	733.000000	0.000000	178.000000	51.000000	-17.000000	-12.000000
1.650000	65.980000	16.030000	724.000000	0.000000	178.000000	51.000000	-32.000000	-13.000000
1.660000	65.660000	16.030000	717.000000	0.000000	176.000000	51.000000	-32.000000	0.000000
1.670000	65.370000	16.170000	724.000000	0.000000	176.000000	51.000000	-29.000000	14.000000
1.680000	65.150000	16.320000	717.000000	0.000000	175.000000	51.000000	-22.000000	15.000000
1.690000	65.060000	16.550000	724.000000	0.000000	175.000000	51.000000	-9.000000	23.000000
1.700000	65.180000	16.830000	722.000000	0.000000	175.000000	51.000000	12.000000	28.000000
1.710000	65.440000	16.960000	724.000000	0.000000	174.000000	51.000000	26.000000	13.000000
1.720000	65.800000	17.040000	728.000000	0.000000	174.000000	51.000000	36.000000	8.000000
1.730000	66.210000	17.040000	720.000000	0.000000	174.000000	50.000000	41.000000	0.000000
1.740000	66.650000	17.040000	721.000000	0.000000	174.000000	50.000000	44.000000	0.000000
1.750000	67.060000	17.090000	721.000000	0.000000	175.000000	50.000000	41.000000	5.000000
1.760000	67.330000	17.190000	724.000000	0.000000	175.000000	50.000000	27.000000	10.000000
1.770000	67.540000	17.260000	722.000000	0.000000	176.000000	50.000000	21.000000	7.000000
1.780000	67.600000	17.360000	721.000000	0.000000	176.000000	50.000000	6.000000	10.000000
1.790000	67.600000	17.470000	731.000000	0.000000	178.000000	51.000000	0.000000	11.000000
1.800000	67.600000	17.610000	724.000000	0.000000	179.000000	51.000000	0.000000	14.000000
1.810000	67.490000	17.780000	716.000000	0.000000	180.000000	51.000000	-11.000000	17.000000
1.820000	67.420000	17.840000	719.000000	0.000000	180.000000	52.000000	-7.000000	6.000000
1.830000	67.370000	17.890000	724.000000	0.000000	180.000000	52.000000	-5.000000	5.000000
1.840000	67.320000	17.940000	733.000000	0.000000	180.000000	52.000000	-5.000000	5.000000
1.850000	67.320000	17.940000	733.000000	0.000000	180.000000	52.000000	0.000000	0.000000
1.860000	67.270000	17.940000	720.000000	0.000000	180.000000	51.000000	-5.000000	0.000000
1.870000	67.270000	17.940000	720.000000	0.000000	180.000000	51.000000	0.000000	0.000000
1.880000	67.270000	17.890000	721.000000	0.000000	180.000000	51.000000	0.000000	-5.000000
1.890000	67.360000	17.790000	720.000000	0.000000	180.000000	51.000000	9.000000	-10.000000
1.900000	67.440000	17.700000	720.000000	0.000000	180.000000	51.000000	8.000000	-9.000000
1.910000	67.490000	17.630000	722.000000	0.000000	180.000000	51.000000	5.000000	-7.000000
1.920000	67.490000	17.630000	727.000000	0.000000	180.000000	51.000000	0.000000	0.000000
1.930000	67.490000	17.630000	727.000000	0.000000	180.000000	51.000000	0.000000	0.000000
1.940000	67.490000	17.630000	734.000000	0.000000	180.000000	51.000000	0.000000	0.000000
1.950000	67.490000	17.630000	746.000000	0.000000	180.000000	51.000000	0.000000	0.000000
1.960000	67.490000	17.630000	757.000000	0.000000	180.000000	51.000000	0.000000	0.000000
1.970000	67.490000	17.630000	751.000000	0.000000	180.000000	52.000000	0.000000	0.000000
1.980000	67.490000	17.630000	754.000000	0.000000	180.000000	52.000000	0.000000	0.000000
1.990000	67.490000	17.630000	751.000000	0.000000	180.000000	52.000000	0.000000	0.000000
2.000000	67.490000	17.680000	746.000000	0.000000	180.000000	52.000000	0.000000	5.000000
2.010000	67.490000	17.680000	637.000000	0.000000	180.000000	52.000000	0.000000	0.000000
2.020000	67.430000	17.680000	344.000000	0.000000	180.000000	52.000000	-6.000000	0.000000
2.030000	67.430000	17.680000	0.000000	1.000000	180.000000	52.000000	0.000000	0.000000
2.040000	67.240000	17.680000	0.000000	0.000000	180.000000	52.000000	-19.000000	0.000000
2.050000	67.060000	17.680000	0.000000	0.000000	180.000000	52.000000	-18.000000	0.000000
2.060000	67.060000	17.680000	0.000000	0.000000	179.000000	52.000000	0.000000	0.000000
2.070000	67.060000	17.790000	0.000000	0.000000	179.000000	52.000000	0.000000	11.000000
2.080000	67.180000	17.840000	0.000000	0.000000	179.000000	52.000000	12.000000	5.000000
2.090000	67.300000	17.840000	0.000000	0.000000	177.000000	52.000000	12.000000	0.000000
2.100000	67.360000	17.920000	0.000000	0.000000	177.000000	52.000000	6.000000	8.000000
2.110000	67.360000	17.920000	10.000000	0.000000	177.000000	52.000000	0.000000	0.000000
2.120000	67.360000	17.920000	161.000000	1.000000	176.000000	52.000000	0.000000	0.000000
2.130000	67.360000	17.920000	314.000000	0.000000	177.000000	52.000000	0.000000	0.000000
2.140000	67.360000	17.920000	473.000000	0.000000	177.000000	52.000000	0.000000	0.000000
2.150000	67.360000	17.920000	519.000000	0.000000	177.000000	52.000000	0.000000	0.000000
2.160000	67.360000	17.920000	569.000000	0.000000	178.000000	51.000000	0.000000	0.000000
2.170000	67.360000	17.920000	613.000000	0.000000	179.000000	51.000000	0.000000	0.000000
2.180000	67.410000	17.620000	628.000000	0.000000	179.000000	51.000000	5.000000	-30.000000
2.190000	67.410000	17.260000	642.000000	0.000000	179.000000	51.000000	0.000000	-36.000000
2.200000	67.410000	16.870000	636.000000	0.000000	179.000000	51.000000	0.000000	-39.000000
2.210000	67.460000	16.600000	643.000000	0.000000	179.000000	51.000000	5.000000	-27.000000
