t	x	y	pressure	penup	azimuth	inclination	v_x	v_y
0.000000	81.890000	0.070000	580.000000	1.000000	165.000000	51.000000	0.000000	0.000000
0.010000	81.890000	0.070000	667.000000	0.000000	164.000000	53.000000	0.000000	0.000000
0.020000	81.890000	0.070000	750.000000	0.000000	163.000000	55.000000	0.000000	0.000000
0.030000	81.890000	0.070000	827.000000	0.000000	161.000000	57.000000	0.000000	0.000000
0.040000	82.030000	0.350000	890.000000	0.000000	161.000000	59.000000	14.000000	28.000000
0.050000	82.600000	0.930000	941.000000	0.000000	161.000000	60.000000	57.000000	58.000000
0.060000	83.510000	2.540000	970.000000	0.000000	162.000000	61.000000	91.000000	161.000000
0.070000	84.640000	4.540000	982.000000	0.000000	163.000000	61.000000	113.000000	200.000000
0.080000	85.630000	6.800000	977.000000	0.000000	166.000000	60.000000	99.000000	226.000000
0.090000	86.660000	9.070000	977.000000	0.000000	166.000000	59.000000	103.000000	227.000000
0.100000	87.710000	11.430000	992.000000	0.000000	168.000000	58.000000	105.000000	236.000000
0.110000	88.440000	14.080000	991.000000	0.000000	171.000000	57.000000	73.000000	265.000000
0.120000	88.800000	16.900000	991.000000	0.000000	173.000000	56.000000	36.000000	282.000000
0.130000	88.910000	18.020000	977.000000	0.000000	175.000000	54.000000	11.000000	112.000000
0.140000	88.910000	18.310000	947.000000	0.000000	176.000000	53.000000	0.000000	29.000000
0.150000	88.750000	18.040000	946.000000	0.000000	178.000000	51.000000	-16.000000	-27.000000
0.160000	88.520000	16.970000	944.000000	0.000000	179.000000	50.000000	-23.000000	-107.000000
0.170000	87.920000	15.230000	950.000000	0.000000	179.000000	50.000000	-60.000000	-174.000000
0.180000	87.440000	13.040000	955.000000	0.000000	180.000000	50.000000	-48.000000	-219.000000
0.190000	87.050000	10.860000	965.000000	0.000000	180.000000	50.000000	-39.000000	-218.000000
0.200000	86.980000	9.390000	970.000000	0.000000	179.000000	50.000000	-7.000000	-147.000000
0.210000	86.930000	8.390000	977.000000	0.000000	179.000000	51.000000	-5.000000	-100.000000
0.220000	87.190000	7.630000	985.000000	0.000000	178.000000	51.000000	26.000000	-76.000000
0.230000	87.650000	7.260000	977.000000	0.000000	176.000000	52.000000	46.000000	-37.000000
0.240000	87.880000	7.160000	1023.000000	0.000000	176.000000	52.000000	23.000000	-10.000000
0.250000	88.190000	7.280000	1023.000000	0.000000	176.000000	52.000000	31.000000	12.000000
0.260000	88.550000	7.880000	1023.000000	0.000000	176.000000	52.000000	36.000000	60.000000
0.270000	89.280000	8.810000	1023.000000	0.000000	177.000000	52.000000	73.000000	93.000000
0.280000	89.970000	10.050000	1015.000000	0.000000	177.000000	52.000000	69.000000	124.000000
0.290000	90.620000	11.560000	999.000000	0.000000	177.000000	52.000000	65.000000	151.000000
0.300000	91.160000	13.250000	988.000000	0.000000	177.000000	52.000000	54.000000	169.000000
0.310000	91.550000	14.370000	968.000000	0.000000	177.000000	52.000000	39.000000	112.000000
0.320000	91.850000	14.830000	937.000000	0.000000	176.000000	52.000000	30.000000	46.000000
0.330000	91.850000	14.830000	914.000000	0.000000	175.000000	52.000000	0.000000	0.000000
0.340000	91.850000	14.700000	911.000000	0.000000	175.000000	51.000000	0.000000	-13.000000
0.350000	91.700000	14.010000	912.000000	0.000000	174.000000	51.000000	-15.000000	-69.000000
0.360000	91.440000	12.950000	917.000000	0.000000	173.000000	51.000000	-26.000000	-106.000000
0.370000	91.490000	11.890000	918.000000	0.000000	173.000000	51.000000	5.000000	-106.000000
0.380000	91.690000	11.180000	927.000000	0.000000	173.000000	51.000000	20.000000	-71.000000
0.390000	91.980000	10.710000	941.000000	0.000000	174.000000	51.000000	29.000000	-47.000000
0.400000	92.400000	10.550000	940.000000	0.000000	175.000000	51.000000	42.000000	-16.000000
0.410000	92.860000	10.550000	944.000000	0.000000	175.000000	52.000000	46.000000	0.000000
0.420000	93.350000	10.770000	944.000000	0.000000	176.000000	52.000000	49.000000	22.000000
0.430000	93.830000	10.980000	944.000000	0.000000	177.000000	52.000000	48.000000	21.000000
0.440000	93.970000	11.100000	940.000000	0.000000	179.000000	52.000000	14.000000	12.000000
0.450000	94.110000	11.100000	934.000000	0.000000	180.000000	52.000000	14.000000	0.000000
0.460000	94.260000	11.100000	941.000000	0.000000	180.000000	52.000000	15.000000	0.000000
0.470000	94.260000	11.010000	938.000000	0.000000	180.000000	52.000000	0.000000	-9.000000
0.480000	94.390000	10.930000	917.000000	0.000000	180.000000	52.000000	13.000000	-8.000000
0.490000	94.550000	10.840000	834.000000	0.000000	180.000000	52.000000	16.000000	-9.000000
0.500000	94.660000	10.840000	641.000000	0.000000	179.000000	52.000000	11.000000	0.000000
0.510000	94.720000	10.840000	53.000000	0.000000	179.000000	52.000000	6.000000	0.000000
0.520000	94.720000	10.840000	0.000000	1.000000	177.000000	52.000000	0.000000	0.000000
0.530000	95.040000	11.270000	0.000000	0.000000	177.000000	52.000000	32.000000	43.000000
0.540000	95.150000	11.750000	0.000000	0.000000	176.000000	51.000000	11.000000	48.000000
0.550000	95.230000	12.340000	0.000000	0.000000	176.000000	50.000000	8.000000	59.000000
0.560000	95.510000	12.860000	0.000000	0.000000	177.000000	49.000000	28.000000	52.000000
0.570000	95.790000	13.340000	0.000000	0.000000	176.000000	48.000000	28.000000	48.000000
0.580000	96.080000	13.810000	0.000000	0.000000	176.000000	46.000000	29.000000	47.000000
0.590000	96.260000	14.090000	0.000000	0.000000	176.000000	45.000000	18.000000	28.000000
0.600000	96.390000	14.320000	0.000000	0.000000	176.000000	44.000000	13.000000	23.000000
0.610000	96.390000	14.320000	175.000000	1.000000	176.000000	43.000000	0.000000	0.000000
0.620000	96.460000	14.750000	327.000000	0.000000	176.000000	43.000000	7.000000	43.000000
0.630000	96.410000	15.090000	449.000000	0.000000	176.000000	42.000000	-5.000000	34.000000
0.640000	96.350000	15.310000	543.000000	0.000000	176.000000	43.000000	-6.000000	22.000000
0.650000	96.350000	15.390000	597.000000	0.000000	176.000000	43.000000	0.000000	8.000000
0.660000	96.300000	15.390000	628.000000	0.000000	177.000000	44.000000	-5.000000	0.000000
0.670000	96.300000	15.320000	644.000000	0.000000	177.000000	44.000000	0.000000	-7.000000
0.680000	96.150000	15.200000	647.000000	0.000000	177.000000	45.000000	-15.000000	-12.000000
0.690000	95.950000	15.100000	652.000000	0.000000	178.000000	45.000000	-20.000000	-10.000000
0.700000	95.850000	15.030000	636.000000	0.000000	178.000000	45.000000	-10.000000	-7.000000
0.710000	95.770000	14.920000	591.000000	0.000000	178.000000	46.000000	-8.000000	-11.000000
0.720000	95.770000	14.920000	507.000000	0.000000	178.000000	46.000000	0.000000	0.000000
0.730000	95.770000	14.920000	277.000000	0.000000	178.000000	46.000000	0.000000	0.000000
0.740000	95.770000	14.920000	141.000000	0.000000	178.000000	46.000000	0.000000	0.000000
0.750000	95.770000	14.920000	0.000000	1.000000	177.000000	46.000000	0.000000	0.000000
0.760000	95.960000	14.540000	0.000000	0.000000	177.000000	46.000000	19.000000	-38.000000
0.770000	95.960000	14.290000	0.000000	0.000000	177.000000	46.000000	0.000000	-25.000000
0.780000	95.960000	14.040000	0.000000	0.000000	176.000000	46.000000	0.000000	-25.000000
0.790000	96.060000	13.800000	0.000000	0.000000	176.000000	46.000000	10.000000	-24.000000
0.800000	96.060000	13.800000	120.000000	1.000000	176.000000	46.000000	0.000000	0.000000
0.810000	96.060000	13.800000	280.000000	0.000000	176.000000	47.000000	0.000000	0.000000
0.820000	96.060000	13.800000	400.000000	0.000000	176.000000	47.000000	0.000000	0.000000
0.830000	96.060000	13.800000	427.000000	0.000000	176.000000	47.000000	0.000000	0.000000
0.840000	96.060000	13.800000	392.000000	0.000000	176.000000	47.000000	0.000000	0.000000
0.850000	96.340000	13.780000	58.000000	0.000000	177.000000	47.000000	28.000000	-2.000000
0.860000	96.340000	13.780000	0.000000	1.000000	177.000000	47.000000	0.000000	0.000000
0.870000	96.900000	13.830000	0.000000	0.000000	177.000000	47.000000	56.000000	5.000000
0.880000	97.230000	14.080000	0.000000	0.000000	178.000000	46.000000	33.000000	25.000000
0.890000	97.880000	14.420000	0.000000	0.000000	178.000000	45.000000	65.000000	34.000000
0.900000	98.730000	14.680000	0.000000	0.000000	179.000000	43.000000	85.000000	26.000000
0.910000	99.980000	14.980000	0.000000	0.000000	179.000000	41.000000	125.000000	30.000000
0.920000	101.080000	15.320000	0.000000	0.000000	179.000000	38.000000	110.000000	34.000000
0.930000	102.090000	15.470000	0.000000	0.000000	179.000000	34.000000	101.000000	15.000000
0.940000	103.000000	15.620000	0.000000	0.000000	179.000000	31.000000	91.000000	15.000000
0.950000	103.570000	15.780000	0.000000	0.000000	179.000000	30.000000	57.000000	16.000000
0.960000	103.910000	15.600000	0.000000	0.000000	179.000000	30.000000	34.000000	-18.000000
0.970000	104.200000	15.340000	0.000000	0.000000	178.000000	30.000000	29.000000	-26.000000
0.980000	104.320000	15.020000	0.000000	0.000000	178.000000	30.000000	12.000000	-32.000000
0.990000	104.320000	14.540000	0.000000	0.000000	178.000000	30.000000	0.000000	-48.000000
1.000000	104.030000	14.060000	0.000000	0.000000	178.000000	30.000000	-29.000000	-48.000000
1.010000	103.730000	13.890000	0.000000	0.000000	179.000000	30.000000	-30.000000	-17.000000
1.020000	103.430000	13.890000	0.000000	0.000000	179.000000	30.000000	-30.000000	0.000000
1.030000	103.120000	14.110000	0.000000	0.000000	179.000000	30.000000	-31.000000	22.000000
1.040000	102.450000	14.240000	0.000000	0.000000	179.000000	30.000000	-67.000000	13.000000
1.050000	101.940000	14.240000	0.000000	0.000000	179.000000	30.000000	-51.000000	0.000000
1.060000	101.540000	14.240000	0.000000	0.000000	179.000000	30.000000	-40.000000	0.000000
1.070000	101.190000	14.240000	0.000000	0.000000	178.000000	30.000000	-35.000000	0.000000
1.080000	100.870000	14.420000	0.000000	0.000000	178.000000	30.000000	-32.000000	18.000000
1.090000	100.720000	14.710000	0.000000	0.000000	178.000000	30.000000	-15.000000	29.000000
1.100000	100.720000	15.090000	0.000000	0.000000	178.000000	30.000000	0.000000	38.000000
1.110000	100.790000	15.620000	0.000000	0.000000	177.000000	30.000000	7.000000	53.000000
1.120000	100.880000	16.250000	0.000000	0.000000	178.000000	30.000000	9.000000	63.000000
1.130000	100.880000	16.250000	394.000000	1.000000	178.000000	30.000000	0.000000	0.000000
1.140000	100.950000	17.690000	502.000000	0.000000	178.000000	31.000000	7.000000	144.000000
1.150000	100.900000	18.670000	551.000000	0.000000	177.000000	33.000000	-5.000000	98.000000
1.160000	100.710000	18.850000	569.000000	0.000000	177.000000	35.000000	-19.000000	18.000000
1.170000	100.640000	18.620000	636.000000	0.000000	177.000000	37.000000	-7.000000	-23.000000
1.180000	100.320000	18.130000	714.000000	0.000000	177.000000	40.000000	-32.000000	-49.000000
1.190000	99.830000	16.550000	756.000000	0.000000	177.000000	42.000000	-49.000000	-158.000000
1.200000	99.340000	14.580000	817.000000	0.000000	177.000000	44.000000	-49.000000	-197.000000
1.210000	98.880000	12.340000	864.000000	0.000000	177.000000	46.000000	-46.000000	-224.000000
1.220000	98.460000	10.410000	894.000000	0.000000	177.000000	47.000000	-42.000000	-193.000000
1.230000	98.180000	8.940000	911.000000	0.000000	177.000000	48.000000	-28.000000	-147.000000
1.240000	97.980000	7.780000	923.000000	0.000000	177.000000	48.000000	-20.000000	-116.000000
1.250000	97.730000	6.570000	930.000000	0.000000	177.000000	48.000000	-25.000000	-121.000000
1.260000	97.660000	5.900000	936.000000	0.000000	177.000000	49.000000	-7.000000	-67.000000
1.270000	97.720000	5.590000	941.000000	0.000000	177.000000	49.000000	6.000000	-31.000000
1.280000	97.720000	5.590000	994.000000	0.000000	175.000000	50.000000	0.000000	0.000000
1.290000	97.720000	5.870000	997.000000	0.000000	175.000000	50.000000	0.000000	28.000000
1.300000	97.720000	6.290000	982.000000	0.000000	174.000000	50.000000	0.000000	42.000000
1.310000	97.830000	7.230000	946.000000	0.000000	174.000000	50.000000	11.000000	94.000000
1.320000	98.070000	8.300000	926.000000	0.000000	174.000000	50.000000	24.000000	107.000000
1.330000	98.340000	9.460000	908.000000	0.000000	174.000000	50.000000	27.000000	116.000000
1.340000	98.650000	10.470000	892.000000	0.000000	175.000000	50.000000	31.000000	101.000000
1.350000	99.220000	11.450000	908.000000	0.000000	175.000000	50.000000	57.000000	98.000000
1.360000	99.950000	12.390000	908.000000	0.000000	175.000000	50.000000	73.000000	94.000000
1.370000	100.500000	12.890000	894.000000	0.000000	175.000000	50.000000	55.000000	50.000000
1.380000	101.020000	13.100000	893.000000	0.000000	175.000000	49.000000	52.000000	21.000000
1.390000	101.520000	13.100000	894.000000	0.000000	175.000000	49.000000	50.000000	0.000000
1.400000	102.300000	13.100000	896.000000	0.000000	175.000000	49.000000	78.000000	0.000000
1.410000	102.960000	13.100000	896.000000	0.000000	177.000000	48.000000	66.000000	0.000000
1.420000	103.550000	13.100000	897.000000	0.000000	177.000000	48.000000	59.000000	0.000000
1.430000	103.990000	13.260000	900.000000	0.000000	177.000000	47.000000	44.000000	16.000000
1.440000	104.170000	13.400000	908.000000	0.000000	177.000000	47.000000	18.000000	14.000000
1.450000	104.170000	13.520000	900.000000	0.000000	177.000000	46.000000	0.000000	12.000000
1.460000	103.990000	13.770000	893.000000	0.000000	178.000000	46.000000	-18.000000	25.000000
1.470000	103.590000	14.110000	903.000000	0.000000	178.000000	45.000000	-40.000000	34.000000
1.480000	103.050000	14.110000	888.000000	0.000000	178.000000	45.000000	-54.000000	0.000000
1.490000	102.390000	13.800000	890.000000	0.000000	178.000000	45.000000	-66.000000	-31.000000
1.500000	101.780000	13.340000	888.000000	0.000000	178.000000	45.000000	-61.000000	-46.000000
1.510000	101.410000	12.740000	888.000000	0.000000	178.000000	45.000000	-37.000000	-60.000000
1.520000	101.180000	12.260000	890.000000	0.000000	177.000000	45.000000	-23.000000	-48.000000
1.530000	101.240000	11.870000	897.000000	0.000000	176.000000	46.000000	6.000000	-39.000000
1.540000	101.460000	11.750000	906.000000	0.000000	175.000000	46.000000	22.000000	-12.000000
1.550000	101.790000	11.830000	893.000000	0.000000	175.000000	47.000000	33.000000	8.000000
1.560000	102.370000	12.050000	899.000000	0.000000	175.000000	47.000000	58.000000	22.000000
1.570000	103.020000	12.610000	899.000000	0.000000	175.000000	47.000000	65.000000	56.000000
1.580000	103.720000	13.120000	899.000000	0.000000	175.000000	47.000000	70.000000	51.000000
1.590000	104.330000	13.600000	897.000000	0.000000	176.000000	47.000000	61.000000	48.000000
1.600000	104.760000	13.650000	894.000000	0.000000	177.000000	47.000000	43.000000	5.000000
1.610000	105.070000	13.520000	908.000000	0.000000	178.000000	46.000000	31.000000	-13.000000
1.620000	105.250000	13.280000	905.000000	0.000000	178.000000	45.000000	18.000000	-24.000000
1.630000	105.350000	12.860000	900.000000	0.000000	179.000000	45.000000	10.000000	-42.000000
1.640000	105.400000	12.420000	900.000000	0.000000	180.000000	45.000000	5.000000	-44.000000
1.650000	105.340000	11.990000	902.000000	0.000000	180.000000	44.000000	-6.000000	-43.000000
1.660000	105.290000	11.690000	902.000000	0.000000	180.000000	44.000000	-5.000000	-30.000000
1.670000	105.240000	11.460000	900.000000	0.000000	180.000000	44.000000	-5.000000	-23.000000
1.680000	105.160000	11.460000	905.000000	0.000000	181.000000	44.000000	-8.000000	0.000000
1.690000	105.110000	11.520000	902.000000	0.000000	181.000000	44.000000	-5.000000	6.000000
1.700000	105.110000	11.670000	894.000000	0.000000	181.000000	45.000000	0.000000	15.000000
1.710000	104.990000	12.090000	896.000000	0.000000	181.000000	45.000000	-12.000000	42.000000
1.720000	104.990000	12.320000	897.000000	0.000000	181.000000	45.000000	0.000000	23.000000
1.730000	104.990000	12.430000	900.000000	0.000000	181.000000	45.000000	0.000000	11.000000
1.740000	104.990000	12.430000	900.000000	0.000000	181.000000	45.000000	0.000000	0.000000
1.750000	104.990000	12.430000	903.000000	0.000000	181.000000	45.000000	0.000000	0.000000
1.760000	105.140000	12.360000	906.000000	0.000000	181.000000	45.000000	15.000000	-7.000000
1.770000	105.600000	12.360000	892.000000	0.000000	181.000000	45.000000	46.000000	0.000000
1.780000	106.050000	12.360000	909.000000	0.000000	181.000000	45.000000	45.000000	0.000000
1.790000	106.470000	12.520000	909.000000	0.000000	181.000000	45.000000	42.000000	16.000000
1.800000	106.880000	12.700000	892.000000	0.000000	181.000000	45.000000	41.000000	18.000000
1.810000	107.190000	12.890000	909.000000	0.000000	181.000000	45.000000	31.000000	19.000000
1.820000	107.310000	13.050000	893.000000	0.000000	182.000000	44.000000	12.000000	16.000000
1.830000	107.310000	13.190000	896.000000	0.000000	182.000000	44.000000	0.000000	14.000000
1.840000	107.310000	13.270000	897.000000	0.000000	183.000000	44.000000	0.000000	8.000000
1.850000	107.310000	13.270000	897.000000	0.000000	183.000000	43.000000	0.000000	0.000000
1.860000	107.310000	13.270000	897.000000	0.000000	183.000000	43.000000	0.000000	0.000000
1.870000	107.310000	13.270000	896.000000	0.000000	184.000000	43.000000	0.000000	0.000000
1.880000	107.310000	13.270000	896.000000	0.000000	184.000000	43.000000	0.000000	0.000000
1.890000	107.310000	13.270000	894.000000	0.000000	184.000000	42.000000	0.000000	0.000000
1.900000	107.310000	13.270000	894.000000	0.000000	184.000000	42.000000	0.000000	0.000000
1.910000	107.310000	13.270000	894.000000	0.000000	184.000000	42.000000	0.000000	0.000000
1.920000	107.310000	13.270000	894.000000	0.000000	184.000000	42.000000	0.000000	0.000000
1.930000	107.310000	13.270000	894.000000	0.000000	184.000000	42.000000	0.000000	0.000000
1.940000	107.310000	13.270000	894.000000	0.000000	184.000000	42.000000	0.000000	0.000000
1.950000	107.310000	13.270000	896.000000	0.000000	184.000000	42.000000	0.000000	0.000000
1.960000	107.310000	13.270000	897.000000	0.000000	184.000000	42.000000	0.000000	0.000000
1.970000	107.310000	13.270000	894.000000	0.000000	184.000000	42.000000	0.000000	0.000000
1.980000	107.260000	13.270000	892.000000	0.000000	184.000000	42.000000	-5.000000	0.000000
1.990000	107.260000	13.270000	887.000000	0.000000	184.000000	42.000000	0.000000	0.000000
2.000000	107.260000	13.270000	819.000000	0.000000	184.000000	42.000000	0.000000	0.000000
2.010000	107.260000	13.270000	761.000000	0.000000	184.000000	42.000000	0.000000	0.000000
2.020000	107.260000	13.270000	624.000000	0.000000	184.000000	42.000000	0.000000	0.000000
2.030000	107.260000	13.270000	441.000000	0.000000	183.000000	42.000000	0.000000	0.000000
2.040000	107.260000	13.270000	220.000000	0.000000	183.000000	42.000000	0.000000	0.000000
2.050000	107.260000	13.270000	0.000000	1.000000	183.000000	42.000000	0.000000	0.000000
2.060000	107.060000	13.130000	0.000000	0.000000	182.000000	42.000000	-20.000000	-14.000000
2.070000	106.950000	13.200000	0.000000	0.000000	182.000000	42.000000	-11.000000	7.000000
2.080000	106.860000	13.360000	0.000000	0.000000	182.000000	41.000000	-9.000000	16.000000
2.090000	106.780000	13.430000	0.000000	0.000000	182.000000	40.000000	-8.000000	7.000000
2.100000	106.710000	13.350000	0.000000	0.000000	182.000000	38.000000	-7.000000	-8.000000
2.110000	106.710000	13.180000	0.000000	0.000000	182.000000	37.000000	0.000000	-17.000000
2.120000	106.640000	13.080000	0.000000	0.000000	181.000000	35.000000	-7.000000	-10.000000
2.130000	106.640000	12.970000	0.000000	0.000000	181.000000	33.000000	0.000000	-11.000000
2.140000	106.580000	12.970000	0.000000	0.000000	181.000000	32.000000	-6.000000	0.000000
2.150000	106.530000	12.970000	0.000000	0.000000	181.000000	31.000000	-5.000000	0.000000
2.160000	106.450000	12.970000	0.000000	0.000000	181.000000	31.000000	-8.000000	0.000000
2.170000	106.350000	13.030000	0.000000	0.000000	181.000000	30.000000	-10.000000	6.000000
2.180000	106.260000	13.030000	0.000000	0.000000	181.000000	31.000000	-9.000000	0.000000
2.190000	106.260000	13.030000	0.000000	0.000000	181.000000	31.000000	0.000000	0.000000
2.200000	106.260000	13.030000	0.000000	0.000000	181.000000	32.000000	0.000000	0.000000
2.210000	106.260000	13.030000	0.000000	0.000000	181.000000	32.000000	0.000000	0.000000
