t	x	y	pressure	penup	azimuth	inclination	v_x	v_y
0.000000	44.690000	54.700000	455.000000	1.000000	153.000000	54.000000	0.000000	0.000000
0.010000	45.430000	53.070000	493.000000	0.000000	152.000000	54.000000	74.000000	-163.000000
0.020000	45.720000	53.370000	580.000000	0.000000	152.000000	54.000000	29.000000	30.000000
0.030000	46.060000	54.150000	727.000000	0.000000	151.000000	54.000000	34.000000	78.000000
0.040000	46.790000	54.870000	866.000000	0.000000	149.000000	56.000000	73.000000	72.000000
0.050000	47.760000	55.940000	915.000000	0.000000	148.000000	57.000000	97.000000	107.000000
0.060000	48.590000	57.250000	953.000000	0.000000	149.000000	58.000000	83.000000	131.000000
0.070000	49.470000	58.890000	995.000000	0.000000	150.000000	58.000000	88.000000	164.000000
0.080000	50.410000	60.930000	996.000000	0.000000	152.000000	59.000000	94.000000	204.000000
0.090000	51.330000	63.250000	1002.000000	0.000000	153.000000	59.000000	92.000000	232.000000
0.100000	52.090000	65.850000	993.000000	0.000000	156.000000	59.000000	76.000000	260.000000
0.110000	52.770000	68.260000	988.000000	0.000000	158.000000	58.000000	68.000000	241.000000
0.120000	53.300000	70.540000	995.000000	0.000000	161.000000	57.000000	53.000000	228.000000
0.130000	53.590000	71.570000	992.000000	0.000000	163.000000	57.000000	29.000000	103.000000
0.140000	53.730000	71.960000	965.000000	0.000000	164.000000	55.000000	14.000000	39.000000
0.150000	53.730000	71.960000	951.000000	0.000000	164.000000	54.000000	0.000000	0.000000
0.160000	53.520000	71.660000	942.000000	0.000000	165.000000	53.000000	-21.000000	-30.000000
0.170000	53.260000	70.450000	941.000000	0.000000	166.000000	52.000000	-26.000000	-121.000000
0.180000	52.860000	68.610000	941.000000	0.000000	166.000000	52.000000	-40.000000	-184.000000
0.190000	52.460000	66.840000	942.000000	0.000000	166.000000	52.000000	-40.000000	-177.000000
0.200000	52.300000	65.020000	944.000000	0.000000	166.000000	52.000000	-16.000000	-182.000000
0.210000	52.300000	63.680000	947.000000	0.000000	166.000000	52.000000	0.000000	-134.000000
0.220000	52.580000	62.680000	948.000000	0.000000	165.000000	53.000000	28.000000	-100.000000
0.230000	52.910000	62.280000	935.000000	0.000000	164.000000	53.000000	33.000000	-40.000000
0.240000	53.330000	62.280000	950.000000	0.000000	163.000000	54.000000	42.000000	0.000000
0.250000	53.810000	62.430000	956.000000	0.000000	163.000000	54.000000	48.000000	15.000000
0.260000	54.520000	63.230000	958.000000	0.000000	162.000000	54.000000	71.000000	80.000000
0.270000	55.380000	64.390000	951.000000	0.000000	162.000000	54.000000	86.000000	116.000000
0.280000	56.110000	65.790000	921.000000	0.000000	161.000000	55.000000	73.000000	140.000000
0.290000	56.720000	67.270000	887.000000	0.000000	161.000000	55.000000	61.000000	148.000000
0.300000	57.250000	68.600000	858.000000	0.000000	163.000000	55.000000	53.000000	133.000000
0.310000	57.550000	69.340000	860.000000	0.000000	163.000000	55.000000	30.000000	74.000000
0.320000	57.660000	69.740000	845.000000	0.000000	164.000000	55.000000	11.000000	40.000000
0.330000	57.660000	69.690000	843.000000	0.000000	166.000000	54.000000	0.000000	-5.000000
0.340000	57.490000	69.100000	848.000000	0.000000	166.000000	54.000000	-17.000000	-59.000000
0.350000	57.230000	68.150000	846.000000	0.000000	167.000000	54.000000	-26.000000	-95.000000
0.360000	56.900000	67.250000	852.000000	0.000000	167.000000	54.000000	-33.000000	-90.000000
0.370000	56.900000	66.570000	855.000000	0.000000	167.000000	54.000000	0.000000	-68.000000
0.380000	57.170000	66.050000	858.000000	0.000000	167.000000	54.000000	27.000000	-52.000000
0.390000	57.560000	65.790000	855.000000	0.000000	165.000000	55.000000	39.000000	-26.000000
0.400000	58.010000	65.790000	861.000000	0.000000	167.000000	55.000000	45.000000	0.000000
0.410000	58.490000	65.900000	872.000000	0.000000	167.000000	55.000000	48.000000	11.000000
0.420000	58.990000	66.230000	873.000000	0.000000	166.000000	56.000000	50.000000	33.000000
0.430000	59.470000	66.530000	870.000000	0.000000	168.000000	56.000000	48.000000	30.000000
0.440000	59.780000	66.740000	872.000000	0.000000	168.000000	56.000000	31.000000	21.000000
0.450000	60.000000	66.740000	873.000000	0.000000	169.000000	57.000000	22.000000	0.000000
0.460000	60.100000	66.740000	872.000000	0.000000	171.000000	57.000000	10.000000	0.000000
0.470000	60.200000	66.690000	870.000000	0.000000	171.000000	57.000000	10.000000	-5.000000
0.480000	60.290000	66.640000	860.000000	0.000000	172.000000	57.000000	9.000000	-5.000000
0.490000	60.460000	66.560000	820.000000	0.000000	172.000000	57.000000	17.000000	-8.000000
0.500000	60.630000	66.560000	578.000000	0.000000	172.000000	57.000000	17.000000	0.000000
0.510000	60.800000	66.560000	10.000000	1.000000	172.000000	57.000000	0.000000	0.000000
0.520000	60.800000	66.560000	0.000000	0.000000	172.000000	57.000000	0.000000	0.000000
0.530000	60.970000	66.980000	0.000000	0.000000	172.000000	57.000000	17.000000	42.000000
0.540000	60.970000	67.370000	0.000000	0.000000	172.000000	57.000000	0.000000	39.000000
0.550000	60.970000	67.800000	0.000000	0.000000	172.000000	57.000000	0.000000	43.000000
0.560000	61.050000	68.270000	0.000000	0.000000	171.000000	57.000000	8.000000	47.000000
0.570000	61.110000	68.760000	0.000000	0.000000	171.000000	56.000000	6.000000	49.000000
0.580000	61.110000	69.330000	0.000000	0.000000	170.000000	56.000000	0.000000	57.000000
0.590000	61.010000	69.710000	0.000000	0.000000	170.000000	55.000000	-10.000000	38.000000
0.600000	60.840000	69.970000	0.000000	0.000000	170.000000	54.000000	-17.000000	26.000000
0.610000	60.650000	70.080000	0.000000	0.000000	169.000000	53.000000	-19.000000	11.000000
0.620000	60.650000	70.080000	205.000000	1.000000	170.000000	54.000000	0.000000	0.000000
0.630000	60.280000	70.240000	329.000000	0.000000	171.000000	53.000000	-37.000000	16.000000
0.640000	60.160000	70.400000	529.000000	0.000000	172.000000	53.000000	-12.000000	16.000000
0.650000	60.160000	70.400000	673.000000	0.000000	173.000000	53.000000	0.000000	0.000000
0.660000	60.160000	70.400000	748.000000	0.000000	174.000000	52.000000	0.000000	0.000000
0.670000	60.160000	70.400000	785.000000	0.000000	175.000000	52.000000	0.000000	0.000000
0.680000	60.160000	70.400000	794.000000	0.000000	176.000000	52.000000	0.000000	0.000000
0.690000	60.160000	70.400000	785.000000	0.000000	176.000000	52.000000	0.000000	0.000000
0.700000	60.160000	70.400000	777.000000	0.000000	176.000000	52.000000	0.000000	0.000000
0.710000	60.220000	70.450000	664.000000	0.000000	176.000000	52.000000	6.000000	5.000000
0.720000	60.280000	70.450000	362.000000	0.000000	176.000000	51.000000	6.000000	0.000000
0.730000	60.280000	70.450000	0.000000	1.000000	176.000000	52.000000	0.000000	0.000000
0.740000	60.420000	70.310000	0.000000	0.000000	176.000000	52.000000	14.000000	-14.000000
0.750000	60.420000	70.380000	0.000000	0.000000	175.000000	52.000000	0.000000	7.000000
0.760000	60.320000	70.560000	0.000000	0.000000	175.000000	52.000000	-10.000000	18.000000
0.770000	60.400000	70.700000	0.000000	0.000000	174.000000	52.000000	8.000000	14.000000
0.780000	60.500000	70.810000	0.000000	0.000000	174.000000	52.000000	10.000000	11.000000
0.790000	60.620000	70.810000	0.000000	0.000000	172.000000	53.000000	12.000000	0.000000
0.800000	60.720000	70.810000	0.000000	0.000000	171.000000	53.000000	10.000000	0.000000
0.810000	60.770000	70.730000	0.000000	0.000000	169.000000	53.000000	5.000000	-8.000000
0.820000	60.770000	70.730000	0.000000	0.000000	169.000000	53.000000	0.000000	0.000000
0.830000	60.860000	70.780000	0.000000	0.000000	168.000000	52.000000	9.000000	5.000000
0.840000	60.930000	70.840000	0.000000	0.000000	168.000000	52.000000	7.000000	6.000000
0.850000	61.000000	70.890000	0.000000	0.000000	168.000000	52.000000	7.000000	5.000000
0.860000	61.000000	70.890000	0.000000	0.000000	168.000000	52.000000	0.000000	0.000000
0.870000	61.070000	70.950000	0.000000	0.000000	168.000000	52.000000	7.000000	6.000000
0.880000	61.070000	70.950000	0.000000	0.000000	168.000000	52.000000	0.000000	0.000000
0.890000	61.070000	70.950000	0.000000	0.000000	169.000000	51.000000	0.000000	0.000000
0.900000	61.070000	70.840000	0.000000	0.000000	170.000000	52.000000	0.000000	-11.000000
0.910000	61.150000	70.780000	0.000000	0.000000	170.000000	52.000000	8.000000	-6.000000
0.920000	61.150000	70.780000	143.000000	1.000000	170.000000	52.000000	0.000000	0.000000
0.930000	61.150000	70.780000	228.000000	0.000000	171.000000	52.000000	0.000000	0.000000
0.940000	61.150000	70.780000	329.000000	0.000000	171.000000	52.000000	0.000000	0.000000
0.950000	60.820000	71.020000	412.000000	0.000000	171.000000	52.000000	-33.000000	24.000000
0.960000	60.590000	71.090000	423.000000	0.000000	172.000000	52.000000	-23.000000	7.000000
0.970000	60.250000	71.090000	448.000000	0.000000	174.000000	52.000000	-34.000000	0.000000
0.980000	59.940000	71.020000	461.000000	0.000000	174.000000	51.000000	-31.000000	-7.000000
0.990000	59.690000	70.860000	474.000000	0.000000	175.000000	51.000000	-25.000000	-16.000000
1.000000	59.690000	70.700000	468.000000	0.000000	175.000000	51.000000	0.000000	-16.000000
1.010000	59.690000	70.550000	496.000000	0.000000	175.000000	50.000000	0.000000	-15.000000
1.020000	59.960000	70.470000	546.000000	0.000000	175.000000	50.000000	27.000000	-8.000000
1.030000	60.240000	70.420000	588.000000	0.000000	175.000000	50.000000	28.000000	-5.000000
1.040000	60.590000	70.420000	620.000000	0.000000	175.000000	51.000000	35.000000	0.000000
1.050000	60.880000	70.520000	631.000000	0.000000	175.000000	51.000000	29.000000	10.000000
1.060000	61.140000	70.650000	636.000000	0.000000	175.000000	51.000000	26.000000	13.000000
1.070000	61.260000	70.700000	634.000000	0.000000	174.000000	51.000000	12.000000	5.000000
1.080000	61.310000	70.700000	603.000000	0.000000	174.000000	51.000000	5.000000	0.000000
1.090000	61.310000	70.700000	400.000000	0.000000	174.000000	51.000000	0.000000	0.000000
1.100000	61.310000	70.700000	0.000000	1.000000	174.000000	51.000000	0.000000	0.000000
1.110000	61.200000	70.650000	0.000000	0.000000	174.000000	51.000000	-11.000000	-5.000000
1.120000	61.030000	70.700000	0.000000	0.000000	174.000000	51.000000	-17.000000	5.000000
1.130000	60.830000	70.830000	0.000000	0.000000	174.000000	51.000000	-20.000000	13.000000
1.140000	60.760000	70.830000	0.000000	0.000000	174.000000	51.000000	-7.000000	0.000000
1.150000	60.760000	70.690000	0.000000	0.000000	173.000000	51.000000	0.000000	-14.000000
1.160000	60.670000	70.430000	0.000000	0.000000	172.000000	52.000000	-9.000000	-26.000000
1.170000	60.560000	70.010000	0.000000	0.000000	172.000000	52.000000	-11.000000	-42.000000
1.180000	60.560000	70.010000	302.000000	1.000000	171.000000	52.000000	0.000000	0.000000
1.190000	60.360000	69.040000	396.000000	0.000000	171.000000	52.000000	-20.000000	-97.000000
1.200000	60.290000	69.040000	497.000000	0.000000	172.000000	52.000000	-7.000000	0.000000
1.210000	60.290000	68.990000	570.000000	0.000000	172.000000	52.000000	0.000000	-5.000000
1.220000	60.290000	68.990000	580.000000	0.000000	172.000000	53.000000	0.000000	0.000000
1.230000	60.670000	68.990000	491.000000	0.000000	173.000000	53.000000	38.000000	0.000000
1.240000	61.220000	68.990000	132.000000	0.000000	173.000000	53.000000	55.000000	0.000000
1.250000	61.220000	68.990000	0.000000	1.000000	175.000000	53.000000	0.000000	0.000000
1.260000	62.550000	69.100000	0.000000	0.000000	175.000000	53.000000	133.000000	11.000000
1.270000	63.210000	69.310000	0.000000	0.000000	175.000000	53.000000	66.000000	21.000000
1.280000	63.880000	69.720000	0.000000	0.000000	173.000000	53.000000	67.000000	41.000000
1.290000	64.570000	70.280000	0.000000	0.000000	173.000000	53.000000	69.000000	56.000000
1.300000	65.060000	70.930000	0.000000	0.000000	173.000000	53.000000	49.000000	65.000000
1.310000	65.420000	71.770000	0.000000	0.000000	172.000000	53.000000	36.000000	84.000000
1.320000	65.420000	72.580000	0.000000	0.000000	172.000000	52.000000	0.000000	81.000000
1.330000	65.270000	73.380000	0.000000	0.000000	172.000000	52.000000	-15.000000	80.000000
1.340000	65.270000	73.380000	464.000000	1.000000	173.000000	51.000000	0.000000	0.000000
1.350000	64.570000	74.070000	515.000000	0.000000	172.000000	50.000000	-70.000000	69.000000
1.360000	64.330000	74.190000	564.000000	0.000000	172.000000	49.000000	-24.000000	12.000000
1.370000	64.210000	73.940000	669.000000	0.000000	172.000000	49.000000	-12.000000	-25.000000
1.380000	64.000000	73.060000	780.000000	0.000000	172.000000	48.000000	-21.000000	-88.000000
1.390000	63.790000	71.760000	851.000000	0.000000	172.000000	48.000000	-21.000000	-130.000000
1.400000	63.520000	69.700000	893.000000	0.000000	172.000000	48.000000	-27.000000	-206.000000
1.410000	63.200000	67.380000	923.000000	0.000000	172.000000	49.000000	-32.000000	-232.000000
1.420000	62.880000	64.890000	944.000000	0.000000	172.000000	50.000000	-32.000000	-249.000000
1.430000	62.730000	62.790000	948.000000	0.000000	171.000000	51.000000	-15.000000	-210.000000
1.440000	62.730000	61.160000	933.000000	0.000000	171.000000	52.000000	0.000000	-163.000000
1.450000	62.670000	59.850000	938.000000	0.000000	171.000000	53.000000	-6.000000	-131.000000
1.460000	62.670000	59.340000	946.000000	0.000000	169.000000	53.000000	0.000000	-51.000000
1.470000	62.670000	59.210000	968.000000	0.000000	169.000000	54.000000	0.000000	-13.000000
1.480000	62.670000	59.340000	967.000000	0.000000	168.000000	55.000000	0.000000	13.000000
1.490000	62.580000	59.890000	958.000000	0.000000	166.000000	56.000000	-9.000000	55.000000
1.500000	62.510000	60.800000	924.000000	0.000000	166.000000	56.000000	-7.000000	91.000000
1.510000	62.440000	61.960000	860.000000	0.000000	166.000000	56.000000	-7.000000	116.000000
1.520000	62.380000	63.360000	797.000000	0.000000	166.000000	56.000000	-6.000000	140.000000
1.530000	62.650000	64.750000	750.000000	0.000000	166.000000	56.000000	27.000000	139.000000
1.540000	63.130000	66.140000	753.000000	0.000000	166.000000	56.000000	48.000000	139.000000
1.550000	63.600000	66.830000	771.000000	0.000000	166.000000	56.000000	47.000000	69.000000
1.560000	64.130000	67.170000	794.000000	0.000000	168.000000	56.000000	53.000000	34.000000
1.570000	64.770000	67.290000	818.000000	0.000000	168.000000	56.000000	64.000000	12.000000
1.580000	65.510000	67.400000	827.000000	0.000000	168.000000	55.000000	74.000000	11.000000
1.590000	66.320000	67.510000	828.000000	0.000000	168.000000	55.000000	81.000000	11.000000
1.600000	67.170000	67.750000	842.000000	0.000000	170.000000	56.000000	85.000000	24.000000
1.610000	68.040000	68.070000	842.000000	0.000000	170.000000	56.000000	87.000000	32.000000
1.620000	68.570000	68.440000	840.000000	0.000000	171.000000	56.000000	53.000000	37.000000
1.630000	68.830000	68.910000	842.000000	0.000000	173.000000	56.000000	26.000000	47.000000
1.640000	68.920000	69.440000	825.000000	0.000000	173.000000	55.000000	9.000000	53.000000
1.650000	68.690000	69.910000	827.000000	0.000000	175.000000	54.000000	-23.000000	47.000000
1.660000	68.290000	70.110000	829.000000	0.000000	176.000000	54.000000	-40.000000	20.000000
1.670000	67.770000	70.110000	826.000000	0.000000	176.000000	53.000000	-52.000000	0.000000
1.680000	67.250000	69.790000	827.000000	0.000000	176.000000	53.000000	-52.000000	-32.000000
1.690000	66.710000	69.150000	829.000000	0.000000	176.000000	53.000000	-54.000000	-64.000000
1.700000	66.410000	68.300000	832.000000	0.000000	175.000000	53.000000	-30.000000	-85.000000
1.710000	66.280000	67.770000	832.000000	0.000000	173.000000	53.000000	-13.000000	-53.000000
1.720000	66.490000	67.430000	818.000000	0.000000	172.000000	53.000000	21.000000	-34.000000
1.730000	66.730000	67.230000	827.000000	0.000000	170.000000	54.000000	24.000000	-20.000000
1.740000	67.020000	67.180000	828.000000	0.000000	170.000000	54.000000	29.000000	-5.000000
1.750000	67.500000	67.410000	828.000000	0.000000	170.000000	55.000000	48.000000	23.000000
1.760000	68.110000	67.840000	830.000000	0.000000	170.000000	55.000000	61.000000	43.000000
1.770000	68.630000	68.320000	827.000000	0.000000	170.000000	55.000000	52.000000	48.000000
1.780000	69.070000	68.780000	827.000000	0.000000	171.000000	55.000000	44.000000	46.000000
1.790000	69.450000	69.240000	827.000000	0.000000	173.000000	55.000000	38.000000	46.000000
1.800000	69.780000	69.530000	824.000000	0.000000	174.000000	55.000000	33.000000	29.000000
1.810000	69.930000	69.530000	819.000000	0.000000	177.000000	54.000000	15.000000	0.000000
1.820000	69.930000	69.320000	817.000000	0.000000	179.000000	54.000000	0.000000	-21.000000
1.830000	69.990000	68.860000	832.000000	0.000000	179.000000	54.000000	6.000000	-46.000000
1.840000	69.990000	68.390000	827.000000	0.000000	180.000000	53.000000	0.000000	-47.000000
1.850000	69.860000	67.930000	815.000000	0.000000	180.000000	53.000000	-13.000000	-46.000000
1.860000	69.860000	67.630000	800.000000	0.000000	180.000000	54.000000	0.000000	-30.000000
1.870000	69.790000	67.420000	787.000000	0.000000	181.000000	54.000000	-7.000000	-21.000000
1.880000	69.730000	67.370000	785.000000	0.000000	181.000000	54.000000	-6.000000	-5.000000
1.890000	69.670000	67.440000	779.000000	0.000000	181.000000	55.000000	-6.000000	7.000000
1.900000	69.550000	67.590000	762.000000	0.000000	181.000000	55.000000	-12.000000	15.000000
1.910000	69.440000	67.900000	760.000000	0.000000	181.000000	55.000000	-11.000000	31.000000
1.920000	69.340000	68.250000	757.000000	0.000000	180.000000	55.000000	-10.000000	35.000000
1.930000	69.400000	68.620000	774.000000	0.000000	180.000000	55.000000	6.000000	37.000000
1.940000	69.400000	68.720000	776.000000	0.000000	180.000000	55.000000	0.000000	10.000000
1.950000	69.400000	68.720000	777.000000	0.000000	180.000000	55.000000	0.000000	0.000000
1.960000	69.500000	68.720000	788.000000	0.000000	180.000000	54.000000	10.000000	0.000000
1.970000	69.730000	68.600000	797.000000	0.000000	180.000000	54.000000	23.000000	-12.000000
1.980000	70.070000	68.460000	815.000000	0.000000	180.000000	54.000000	34.000000	-14.000000
1.990000	70.470000	68.350000	824.000000	0.000000	180.000000	54.000000	40.000000	-11.000000
2.000000	71.110000	68.350000	826.000000	0.000000	180.000000	53.000000	64.000000	0.000000
2.010000	71.900000	68.450000	832.000000	0.000000	180.000000	54.000000	79.000000	10.000000
2.020000	72.730000	68.620000	827.000000	0.000000	180.000000	54.000000	83.000000	17.000000
2.030000	73.540000	68.740000	832.000000	0.000000	180.000000	54.000000	81.000000	12.000000
2.040000	74.330000	68.840000	832.000000	0.000000	180.000000	54.000000	79.000000	10.000000
2.050000	74.980000	68.760000	832.000000	0.000000	180.000000	54.000000	65.000000	-8.000000
2.060000	75.510000	68.460000	832.000000	0.000000	180.000000	54.000000	53.000000	-30.000000
2.070000	75.960000	68.020000	832.000000	0.000000	180.000000	54.000000	45.000000	-44.000000
2.080000	76.620000	67.500000	827.000000	0.000000	180.000000	54.000000	66.000000	-52.000000
2.090000	77.320000	66.980000	826.000000	0.000000	180.000000	54.000000	70.000000	-52.000000
2.100000	78.290000	66.540000	821.000000	0.000000	180.000000	55.000000	97.000000	-44.000000
2.110000	79.420000	66.150000	824.000000	0.000000	180.000000	55.000000	113.000000	-39.000000
2.120000	80.500000	65.970000	826.000000	0.000000	181.000000	55.000000	108.000000	-18.000000
2.130000	81.420000	65.900000	830.000000	0.000000	181.000000	55.000000	92.000000	-7.000000
2.140000	82.240000	65.900000	817.000000	0.000000	183.000000	55.000000	82.000000	0.000000
2.150000	82.640000	65.900000	827.000000	0.000000	183.000000	55.000000	40.000000	0.000000
2.160000	82.710000	65.900000	843.000000	0.000000	184.000000	55.000000	7.000000	0.000000
2.170000	82.570000	65.900000	860.000000	0.000000	184.000000	55.000000	-14.000000	0.000000
2.180000	82.190000	65.900000	866.000000	0.000000	186.000000	55.000000	-38.000000	0.000000
2.190000	81.440000	65.830000	879.000000	0.000000	186.000000	55.000000	-75.000000	-7.000000
2.200000	80.430000	65.730000	890.000000	0.000000	187.000000	55.000000	-101.000000	-10.000000
2.210000	79.640000	65.730000	905.000000	0.000000	187.000000	55.000000	-79.000000	0.000000
