t	x	y	pressure	penup	azimuth	inclination	v_x	v_y
0.000000	86.410000	46.540000	61.000000	1.000000	305.000000	56.000000	0.000000	0.000000
0.010000	86.350000	46.280000	71.000000	0.000000	305.000000	56.000000	-6.000000	-26.000000
0.020000	86.350000	46.140000	134.000000	0.000000	306.000000	57.000000	0.000000	-14.000000
0.030000	86.400000	46.090000	187.000000	0.000000	306.000000	57.000000	5.000000	-5.000000
0.040000	86.400000	46.090000	216.000000	0.000000	306.000000	57.000000	0.000000	0.000000
0.050000	86.500000	46.090000	242.000000	0.000000	307.000000	56.000000	10.000000	0.000000
0.060000	86.660000	46.220000	280.000000	0.000000	307.000000	56.000000	16.000000	13.000000
0.070000	86.880000	46.550000	289.000000	0.000000	307.000000	56.000000	22.000000	33.000000
0.080000	87.150000	47.020000	317.000000	0.000000	307.000000	56.000000	27.000000	47.000000
0.090000	87.520000	47.690000	327.000000	0.000000	306.000000	57.000000	37.000000	67.000000
0.100000	87.980000	48.420000	330.000000	0.000000	306.000000	57.000000	46.000000	73.000000
0.110000	88.500000	49.310000	329.000000	0.000000	306.000000	57.000000	52.000000	89.000000
0.120000	89.000000	50.290000	315.000000	0.000000	304.000000	57.000000	50.000000	98.000000
0.130000	89.480000	51.330000	322.000000	0.000000	304.000000	57.000000	48.000000	104.000000
0.140000	89.800000	52.170000	319.000000	0.000000	302.000000	57.000000	32.000000	84.000000
0.150000	90.020000	52.870000	319.000000	0.000000	302.000000	57.000000	22.000000	70.000000
0.160000	90.080000	53.340000	305.000000	0.000000	302.000000	57.000000	6.000000	47.000000
0.170000	90.080000	53.540000	307.000000	0.000000	301.000000	56.000000	0.000000	20.000000
0.180000	90.080000	53.540000	315.000000	0.000000	301.000000	56.000000	0.000000	0.000000
0.190000	90.080000	53.540000	330.000000	0.000000	301.000000	56.000000	0.000000	0.000000
0.200000	89.860000	53.170000	325.000000	0.000000	301.000000	55.000000	-22.000000	-37.000000
0.210000	89.630000	52.700000	327.000000	0.000000	301.000000	55.000000	-23.000000	-47.000000
0.220000	89.340000	52.050000	315.000000	0.000000	301.000000	55.000000	-29.000000	-65.000000
0.230000	89.180000	51.260000	309.000000	0.000000	302.000000	56.000000	-16.000000	-79.000000
0.240000	89.020000	50.390000	317.000000	0.000000	302.000000	56.000000	-16.000000	-87.000000
0.250000	89.020000	49.590000	309.000000	0.000000	301.000000	56.000000	0.000000	-80.000000
0.260000	89.020000	48.820000	312.000000	0.000000	301.000000	56.000000	0.000000	-77.000000
0.270000	89.150000	48.360000	314.000000	0.000000	301.000000	56.000000	13.000000	-46.000000
0.280000	89.420000	48.100000	274.000000	0.000000	301.000000	56.000000	27.000000	-26.000000
0.290000	89.770000	48.100000	250.000000	0.000000	301.000000	56.000000	35.000000	0.000000
0.300000	90.190000	48.460000	232.000000	0.000000	299.000000	56.000000	42.000000	36.000000
0.310000	90.600000	48.980000	210.000000	0.000000	299.000000	56.000000	41.000000	52.000000
0.320000	91.000000	49.660000	205.000000	0.000000	299.000000	56.000000	40.000000	68.000000
0.330000	91.230000	50.220000	207.000000	0.000000	299.000000	56.000000	23.000000	56.000000
0.340000	91.400000	50.690000	212.000000	0.000000	299.000000	56.000000	17.000000	47.000000
0.350000	91.470000	50.950000	219.000000	0.000000	299.000000	56.000000	7.000000	26.000000
0.360000	91.470000	51.000000	247.000000	0.000000	299.000000	56.000000	0.000000	5.000000
0.370000	91.470000	50.900000	273.000000	0.000000	299.000000	56.000000	0.000000	-10.000000
0.380000	91.390000	50.610000	299.000000	0.000000	299.000000	56.000000	-8.000000	-29.000000
0.390000	91.310000	50.190000	327.000000	0.000000	299.000000	56.000000	-8.000000	-42.000000
0.400000	91.250000	49.680000	337.000000	0.000000	299.000000	56.000000	-6.000000	-51.000000
0.410000	91.250000	49.200000	371.000000	0.000000	299.000000	56.000000	0.000000	-48.000000
0.420000	91.340000	48.820000	367.000000	0.000000	299.000000	56.000000	9.000000	-38.000000
0.430000	91.500000	48.700000	353.000000	0.000000	299.000000	56.000000	16.000000	-12.000000
0.440000	91.730000	48.700000	332.000000	0.000000	299.000000	56.000000	23.000000	0.000000
0.450000	92.010000	48.940000	316.000000	0.000000	299.000000	56.000000	28.000000	24.000000
0.460000	92.280000	49.300000	281.000000	0.000000	299.000000	56.000000	27.000000	36.000000
0.470000	92.520000	49.760000	280.000000	0.000000	299.000000	56.000000	24.000000	46.000000
0.480000	92.670000	50.020000	269.000000	0.000000	299.000000	56.000000	15.000000	26.000000
0.490000	92.760000	50.080000	286.000000	0.000000	299.000000	56.000000	9.000000	6.000000
0.500000	92.760000	50.010000	304.000000	0.000000	298.000000	57.000000	0.000000	-7.000000
0.510000	92.810000	49.750000	334.000000	0.000000	297.000000	56.000000	5.000000	-26.000000
0.520000	92.810000	49.390000	363.000000	0.000000	297.000000	56.000000	0.000000	-36.000000
0.530000	92.810000	48.960000	368.000000	0.000000	297.000000	56.000000	0.000000	-43.000000
0.540000	92.810000	48.660000	346.000000	0.000000	297.000000	56.000000	0.000000	-30.000000
0.550000	92.860000	48.570000	207.000000	0.000000	297.000000	56.000000	5.000000	-9.000000
0.560000	92.860000	48.570000	0.000000	1.000000	297.000000	56.000000	0.000000	0.000000
0.570000	93.080000	48.950000	0.000000	0.000000	297.000000	56.000000	22.000000	38.000000
0.580000	93.240000	49.280000	0.000000	0.000000	298.000000	56.000000	16.000000	33.000000
0.590000	93.430000	49.620000	0.000000	0.000000	298.000000	56.000000	19.000000	34.000000
0.600000	93.640000	49.900000	0.000000	0.000000	298.000000	56.000000	21.000000	28.000000
0.610000	93.770000	50.160000	0.000000	0.000000	297.000000	55.000000	13.000000	26.000000
0.620000	93.770000	50.480000	0.000000	0.000000	299.000000	54.000000	0.000000	32.000000
0.630000	93.770000	50.770000	0.000000	0.000000	299.000000	54.000000	0.000000	29.000000
0.640000	93.680000	51.020000	0.000000	0.000000	300.000000	54.000000	-9.000000	25.000000
0.650000	93.600000	51.260000	0.000000	0.000000	300.000000	54.000000	-8.000000	24.000000
0.660000	93.550000	51.460000	0.000000	0.000000	299.000000	53.000000	-5.000000	20.000000
0.670000	93.550000	51.610000	0.000000	0.000000	301.000000	53.000000	0.000000	15.000000
0.680000	93.550000	51.720000	0.000000	0.000000	301.000000	53.000000	0.000000	11.000000
0.690000	93.550000	51.850000	0.000000	0.000000	301.000000	53.000000	0.000000	13.000000
0.700000	93.490000	51.930000	0.000000	0.000000	301.000000	53.000000	-6.000000	8.000000
0.710000	93.490000	51.930000	0.000000	0.000000	301.000000	53.000000	0.000000	0.000000
0.720000	93.360000	51.930000	0.000000	0.000000	301.000000	53.000000	-13.000000	0.000000
0.730000	93.270000	51.860000	0.000000	0.000000	301.000000	53.000000	-9.000000	-7.000000
0.740000	93.210000	51.760000	0.000000	0.000000	302.000000	54.000000	-6.000000	-10.000000
0.750000	93.210000	51.760000	0.000000	0.000000	302.000000	54.000000	0.000000	0.000000
0.760000	93.120000	51.760000	0.000000	0.000000	302.000000	54.000000	-9.000000	0.000000
0.770000	93.060000	51.710000	0.000000	0.000000	300.000000	54.000000	-6.000000	-5.000000
0.780000	93.060000	51.660000	0.000000	0.000000	300.000000	54.000000	0.000000	-5.000000
0.790000	93.060000	51.580000	0.000000	0.000000	300.000000	54.000000	0.000000	-8.000000
0.800000	93.060000	51.520000	0.000000	0.000000	300.000000	54.000000	0.000000	-6.000000
0.810000	93.060000	51.440000	0.000000	0.000000	300.000000	54.000000	0.000000	-8.000000
0.820000	93.120000	51.340000	0.000000	0.000000	300.000000	54.000000	6.000000	-10.000000
0.830000	93.210000	51.340000	0.000000	0.000000	300.000000	54.000000	9.000000	0.000000
0.840000	93.370000	51.290000	0.000000	0.000000	300.000000	54.000000	16.000000	-5.000000
0.850000	93.520000	51.290000	0.000000	0.000000	300.000000	54.000000	15.000000	0.000000
0.860000	93.520000	51.290000	0.000000	0.000000	300.000000	54.000000	0.000000	0.000000
0.870000	93.870000	51.360000	0.000000	0.000000	300.000000	54.000000	35.000000	7.000000
0.880000	94.070000	51.360000	0.000000	0.000000	300.000000	54.000000	20.000000	0.000000
0.890000	94.270000	51.420000	0.000000	0.000000	299.000000	54.000000	20.000000	6.000000
0.900000	94.430000	51.420000	0.000000	0.000000	299.000000	54.000000	16.000000	0.000000
0.910000	94.510000	51.530000	0.000000	0.000000	298.000000	54.000000	8.000000	11.000000
0.920000	94.510000	51.640000	0.000000	0.000000	298.000000	54.000000	0.000000	11.000000
0.930000	94.510000	51.770000	0.000000	0.000000	298.000000	54.000000	0.000000	13.000000
0.940000	94.510000	51.910000	0.000000	0.000000	298.000000	54.000000	0.000000	14.000000
0.950000	94.440000	52.100000	0.000000	0.000000	298.000000	54.000000	-7.000000	19.000000
0.960000	94.360000	52.280000	0.000000	0.000000	298.000000	54.000000	-8.000000	18.000000
0.970000	94.270000	52.390000	0.000000	0.000000	298.000000	54.000000	-9.000000	11.000000
0.980000	94.150000	52.460000	0.000000	0.000000	298.000000	53.000000	-12.000000	7.000000
0.990000	94.040000	52.460000	0.000000	0.000000	298.000000	53.000000	-11.000000	0.000000
1.000000	93.960000	52.510000	0.000000	0.000000	297.000000	52.000000	-8.000000	5.000000
1.010000	93.890000	52.510000	0.000000	0.000000	297.000000	52.000000	-7.000000	0.000000
1.020000	93.830000	52.420000	0.000000	0.000000	297.000000	52.000000	-6.000000	-9.000000
1.030000	93.830000	52.310000	0.000000	0.000000	297.000000	52.000000	0.000000	-11.000000
1.040000	93.830000	52.180000	0.000000	0.000000	297.000000	52.000000	0.000000	-13.000000
1.050000	93.830000	52.050000	0.000000	0.000000	297.000000	52.000000	0.000000	-13.000000
1.060000	93.830000	51.930000	0.000000	0.000000	298.000000	53.000000	0.000000	-12.000000
1.070000	93.880000	51.850000	0.000000	0.000000	297.000000	53.000000	5.000000	-8.000000
1.080000	93.880000	51.850000	55.000000	1.000000	298.000000	54.000000	0.000000	0.000000
1.090000	93.880000	51.850000	109.000000	0.000000	298.000000	54.000000	0.000000	0.000000
1.100000	94.250000	51.950000	163.000000	0.000000	298.000000	54.000000	37.000000	10.000000
1.110000	94.380000	52.190000	190.000000	0.000000	298.000000	54.000000	13.000000	24.000000
1.120000	94.460000	52.530000	235.000000	0.000000	298.000000	54.000000	8.000000	34.000000
1.130000	94.460000	52.880000	279.000000	0.000000	298.000000	54.000000	0.000000	35.000000
1.140000	94.460000	53.220000	284.000000	0.000000	298.000000	54.000000	0.000000	34.000000
1.150000	94.330000	53.490000	292.000000	0.000000	297.000000	53.000000	-13.000000	27.000000
1.160000	94.230000	53.710000	307.000000	0.000000	297.000000	53.000000	-10.000000	22.000000
1.170000	94.030000	53.710000	342.000000	0.000000	297.000000	53.000000	-20.000000	0.000000
1.180000	93.770000	53.520000	361.000000	0.000000	296.000000	52.000000	-26.000000	-19.000000
1.190000	93.550000	53.210000	391.000000	0.000000	296.000000	52.000000	-22.000000	-31.000000
1.200000	93.410000	52.870000	394.000000	0.000000	296.000000	52.000000	-14.000000	-34.000000
1.210000	93.310000	52.510000	431.000000	0.000000	296.000000	52.000000	-10.000000	-36.000000
1.220000	93.310000	52.140000	458.000000	0.000000	296.000000	52.000000	0.000000	-37.000000
1.230000	93.440000	52.010000	448.000000	0.000000	297.000000	53.000000	13.000000	-13.000000
1.240000	93.620000	51.950000	450.000000	0.000000	297.000000	53.000000	18.000000	-6.000000
1.250000	93.850000	52.020000	445.000000	0.000000	297.000000	54.000000	23.000000	7.000000
1.260000	94.090000	52.170000	444.000000	0.000000	297.000000	54.000000	24.000000	15.000000
1.270000	94.330000	52.350000	439.000000	0.000000	297.000000	54.000000	24.000000	18.000000
1.280000	94.400000	52.400000	450.000000	0.000000	297.000000	54.000000	7.000000	5.000000
1.290000	94.470000	52.400000	463.000000	0.000000	297.000000	54.000000	7.000000	0.000000
1.300000	94.540000	52.330000	486.000000	0.000000	297.000000	54.000000	7.000000	-7.000000
1.310000	94.620000	52.260000	489.000000	0.000000	297.000000	54.000000	8.000000	-7.000000
1.320000	94.620000	52.160000	494.000000	0.000000	297.000000	54.000000	0.000000	-10.000000
1.330000	94.710000	52.160000	493.000000	0.000000	297.000000	54.000000	9.000000	0.000000
1.340000	94.820000	52.160000	474.000000	0.000000	297.000000	54.000000	11.000000	0.000000
1.350000	94.960000	52.230000	363.000000	0.000000	297.000000	54.000000	14.000000	7.000000
1.360000	95.150000	52.390000	167.000000	0.000000	297.000000	54.000000	19.000000	16.000000
1.370000	95.150000	52.390000	0.000000	1.000000	297.000000	54.000000	0.000000	0.000000
1.380000	95.370000	52.690000	0.000000	0.000000	297.000000	54.000000	22.000000	30.000000
1.390000	95.450000	52.550000	0.000000	0.000000	298.000000	54.000000	8.000000	-14.000000
1.400000	95.450000	52.260000	0.000000	0.000000	297.000000	53.000000	0.000000	-29.000000
1.410000	95.520000	51.960000	0.000000	0.000000	297.000000	53.000000	7.000000	-30.000000
1.420000	95.520000	51.740000	0.000000	0.000000	297.000000	53.000000	0.000000	-22.000000
1.430000	95.520000	51.610000	0.000000	0.000000	297.000000	53.000000	0.000000	-13.000000
1.440000	95.460000	51.610000	0.000000	0.000000	297.000000	53.000000	-6.000000	0.000000
1.450000	95.460000	51.670000	0.000000	0.000000	298.000000	54.000000	0.000000	6.000000
1.460000	95.460000	51.670000	0.000000	0.000000	298.000000	54.000000	0.000000	0.000000
1.470000	95.460000	51.670000	0.000000	0.000000	298.000000	54.000000	0.000000	0.000000
1.480000	95.460000	51.670000	0.000000	0.000000	298.000000	54.000000	0.000000	0.000000
1.490000	95.460000	51.670000	0.000000	0.000000	298.000000	54.000000	0.000000	0.000000
1.500000	95.460000	51.670000	0.000000	0.000000	298.000000	54.000000	0.000000	0.000000
1.510000	95.460000	51.670000	0.000000	0.000000	298.000000	54.000000	0.000000	0.000000
1.520000	95.460000	51.670000	0.000000	0.000000	298.000000	54.000000	0.000000	0.000000
1.530000	95.460000	51.670000	0.000000	0.000000	298.000000	54.000000	0.000000	0.000000
1.540000	95.460000	51.670000	0.000000	0.000000	298.000000	54.000000	0.000000	0.000000
1.550000	95.460000	51.670000	0.000000	0.000000	298.000000	54.000000	0.000000	0.000000
1.560000	95.550000	51.940000	0.000000	0.000000	297.000000	53.000000	9.000000	27.000000
1.570000	95.630000	52.040000	0.000000	0.000000	297.000000	53.000000	8.000000	10.000000
1.580000	95.630000	52.090000	0.000000	0.000000	298.000000	53.000000	0.000000	5.000000
1.590000	95.630000	52.090000	0.000000	0.000000	298.000000	53.000000	0.000000	0.000000
1.600000	95.630000	51.990000	0.000000	0.000000	298.000000	53.000000	0.000000	-10.000000
1.610000	95.630000	51.820000	0.000000	0.000000	298.000000	53.000000	0.000000	-17.000000
1.620000	95.720000	51.610000	0.000000	0.000000	299.000000	51.000000	9.000000	-21.000000
1.630000	95.820000	51.400000	0.000000	0.000000	299.000000	51.000000	10.000000	-21.000000
1.640000	95.930000	51.160000	0.000000	0.000000	299.000000	51.000000	11.000000	-24.000000
1.650000	96.110000	50.890000	0.000000	0.000000	299.000000	51.000000	18.000000	-27.000000
1.660000	96.340000	50.640000	0.000000	0.000000	297.000000	52.000000	23.000000	-25.000000
1.670000	96.540000	50.410000	0.000000	0.000000	298.000000	53.000000	20.000000	-23.000000
1.680000	96.740000	50.190000	0.000000	0.000000	298.000000	53.000000	20.000000	-22.000000
1.690000	96.960000	49.980000	0.000000	0.000000	298.000000	53.000000	22.000000	-21.000000
1.700000	97.180000	49.790000	0.000000	0.000000	298.000000	53.000000	22.000000	-19.000000
1.710000	97.420000	49.670000	0.000000	0.000000	297.000000	53.000000	24.000000	-12.000000
1.720000	97.690000	49.670000	0.000000	0.000000	298.000000	54.000000	27.000000	0.000000
1.730000	97.980000	49.730000	0.000000	0.000000	298.000000	54.000000	29.000000	6.000000
1.740000	98.230000	49.850000	0.000000	0.000000	298.000000	54.000000	25.000000	12.000000
1.750000	98.440000	49.950000	0.000000	0.000000	298.000000	54.000000	21.000000	10.000000
1.760000	98.560000	50.020000	0.000000	0.000000	299.000000	54.000000	12.000000	7.000000
1.770000	98.620000	50.080000	0.000000	0.000000	299.000000	54.000000	6.000000	6.000000
1.780000	98.620000	50.080000	0.000000	0.000000	299.000000	54.000000	0.000000	0.000000
1.790000	98.620000	50.080000	0.000000	0.000000	299.000000	54.000000	0.000000	0.000000
1.800000	98.520000	50.370000	0.000000	0.000000	299.000000	54.000000	-10.000000	29.000000
1.810000	98.460000	50.480000	0.000000	0.000000	299.000000	54.000000	-6.000000	11.000000
1.820000	98.410000	50.590000	0.000000	0.000000	299.000000	54.000000	-5.000000	11.000000
1.830000	98.360000	50.680000	0.000000	0.000000	299.000000	54.000000	-5.000000	9.000000
1.840000	98.240000	50.770000	0.000000	0.000000	299.000000	54.000000	-12.000000	9.000000
1.850000	98.110000	50.770000	0.000000	0.000000	299.000000	54.000000	-13.000000	0.000000
1.860000	97.970000	50.660000	0.000000	0.000000	298.000000	54.000000	-14.000000	-11.000000
1.870000	97.820000	50.580000	0.000000	0.000000	298.000000	54.000000	-15.000000	-8.000000
1.880000	97.710000	50.500000	0.000000	0.000000	298.000000	54.000000	-11.000000	-8.000000
1.890000	97.620000	50.420000	0.000000	0.000000	298.000000	54.000000	-9.000000	-8.000000
1.900000	97.540000	50.370000	0.000000	0.000000	298.000000	54.000000	-8.000000	-5.000000
1.910000	97.460000	50.370000	0.000000	0.000000	297.000000	54.000000	-8.000000	0.000000
1.920000	97.460000	50.370000	0.000000	0.000000	297.000000	54.000000	0.000000	0.000000
1.930000	97.460000	50.370000	0.000000	0.000000	297.000000	54.000000	0.000000	0.000000
1.940000	97.460000	50.370000	0.000000	0.000000	297.000000	55.000000	0.000000	0.000000
1.950000	97.460000	50.370000	0.000000	0.000000	297.000000	55.000000	0.000000	0.000000
1.960000	97.410000	50.460000	0.000000	0.000000	297.000000	55.000000	-5.000000	9.000000
1.970000	97.480000	50.530000	0.000000	0.000000	297.000000	55.000000	7.000000	7.000000
1.980000	97.600000	50.630000	0.000000	0.000000	297.000000	55.000000	12.000000	10.000000
1.990000	97.770000	50.760000	0.000000	0.000000	297.000000	55.000000	17.000000	13.000000
2.000000	97.970000	50.950000	0.000000	0.000000	297.000000	55.000000	20.000000	19.000000
2.010000	98.190000	51.200000	0.000000	0.000000	297.000000	55.000000	22.000000	25.000000
2.020000	98.450000	51.500000	0.000000	0.000000	297.000000	55.000000	26.000000	30.000000
2.030000	98.710000	51.850000	0.000000	0.000000	297.000000	55.000000	26.000000	35.000000
2.040000	98.970000	52.250000	0.000000	0.000000	297.000000	55.000000	26.000000	40.000000
2.050000	99.220000	52.690000	0.000000	0.000000	297.000000	55.000000	25.000000	44.000000
2.060000	99.380000	53.190000	0.000000	0.000000	297.000000	55.000000	16.000000	50.000000
2.070000	99.500000	53.710000	0.000000	0.000000	297.000000	55.000000	12.000000	52.000000
2.080000	99.500000	53.710000	78.000000	1.000000	297.000000	55.000000	0.000000	0.000000
2.090000	99.500000	54.640000	101.000000	0.000000	297.000000	55.000000	0.000000	93.000000
2.100000	99.500000	54.950000	137.000000	0.000000	297.000000	55.000000	0.000000	31.000000
2.110000	99.500000	55.170000	179.000000	0.000000	297.000000	55.000000	0.000000	22.000000
2.120000	99.410000	55.300000	254.000000	0.000000	296.000000	55.000000	-9.000000	13.000000
2.130000	99.320000	55.360000	334.000000	0.000000	295.000000	54.000000	-9.000000	6.000000
2.140000	99.160000	55.230000	367.000000	0.000000	296.000000	55.000000	-16.000000	-13.000000
2.150000	98.960000	54.890000	398.000000	0.000000	296.000000	55.000000	-20.000000	-34.000000
2.160000	98.680000	54.400000	422.000000	0.000000	296.000000	55.000000	-28.000000	-49.000000
2.170000	98.420000	53.500000	443.000000	0.000000	296.000000	55.000000	-26.000000	-90.000000
2.180000	98.180000	52.350000	465.000000	0.000000	297.000000	56.000000	-24.000000	-115.000000
2.190000	98.020000	51.040000	493.000000	0.000000	296.000000	56.000000	-16.000000	-131.000000
2.200000	97.880000	49.660000	492.000000	0.000000	296.000000	56.000000	-14.000000	-138.000000
2.210000	97.740000	48.240000	492.000000	0.000000	296.000000	57.000000	-14.000000	-142.000000
2.220000	97.610000	46.790000	501.000000	0.000000	296.000000	57.000000	-13.000000	-145.000000
2.230000	97.460000	45.410000	494.000000	0.000000	296.000000	57.000000	-15.000000	-138.000000
2.240000	97.290000	44.490000	499.000000	0.000000	296.000000	57.000000	-17.000000	-92.000000
