t	x	y	pressure	penup	azimuth	inclination	v_x	v_y
0.000000	47.550000	1.550000	415.000000	1.000000	156.000000	53.000000	0.000000	0.000000
0.010000	46.930000	0.220000	486.000000	0.000000	156.000000	55.000000	-62.000000	-133.000000
0.020000	46.680000	0.130000	603.000000	0.000000	158.000000	56.000000	-25.000000	-9.000000
0.030000	46.680000	0.320000	714.000000	0.000000	160.000000	58.000000	0.000000	19.000000
0.040000	46.780000	0.640000	777.000000	0.000000	162.000000	61.000000	10.000000	32.000000
0.050000	47.360000	1.870000	840.000000	0.000000	163.000000	62.000000	58.000000	123.000000
0.060000	48.320000	3.700000	878.000000	0.000000	164.000000	63.000000	96.000000	183.000000
0.070000	49.530000	5.920000	908.000000	0.000000	165.000000	64.000000	121.000000	222.000000
0.080000	50.730000	8.200000	933.000000	0.000000	168.000000	63.000000	120.000000	228.000000
0.090000	51.970000	10.520000	932.000000	0.000000	166.000000	63.000000	124.000000	232.000000
0.100000	52.980000	13.620000	933.000000	0.000000	166.000000	62.000000	101.000000	310.000000
0.110000	53.820000	16.000000	932.000000	0.000000	168.000000	60.000000	84.000000	238.000000
0.120000	54.400000	17.900000	926.000000	0.000000	167.000000	58.000000	58.000000	190.000000
0.130000	54.560000	18.100000	897.000000	0.000000	167.000000	57.000000	16.000000	20.000000
0.140000	54.440000	17.700000	885.000000	0.000000	168.000000	55.000000	-12.000000	-40.000000
0.150000	54.200000	16.890000	887.000000	0.000000	170.000000	55.000000	-24.000000	-81.000000
0.160000	53.770000	15.020000	891.000000	0.000000	170.000000	55.000000	-43.000000	-187.000000
0.170000	53.200000	12.980000	899.000000	0.000000	170.000000	55.000000	-57.000000	-204.000000
0.180000	52.860000	10.830000	905.000000	0.000000	170.000000	55.000000	-34.000000	-215.000000
0.190000	52.560000	9.510000	892.000000	0.000000	170.000000	55.000000	-30.000000	-132.000000
0.200000	52.500000	8.460000	896.000000	0.000000	170.000000	56.000000	-6.000000	-105.000000
0.210000	52.580000	7.590000	903.000000	0.000000	170.000000	56.000000	8.000000	-87.000000
0.220000	52.930000	7.190000	912.000000	0.000000	169.000000	57.000000	35.000000	-40.000000
0.230000	53.160000	7.090000	947.000000	0.000000	169.000000	57.000000	23.000000	-10.000000
0.240000	53.310000	7.190000	950.000000	0.000000	169.000000	57.000000	15.000000	10.000000
0.250000	53.870000	7.810000	948.000000	0.000000	169.000000	57.000000	56.000000	62.000000
0.260000	54.430000	8.610000	947.000000	0.000000	169.000000	57.000000	56.000000	80.000000
0.270000	54.990000	9.520000	917.000000	0.000000	170.000000	56.000000	56.000000	91.000000
0.280000	55.530000	10.690000	905.000000	0.000000	169.000000	57.000000	54.000000	117.000000
0.290000	56.050000	11.900000	869.000000	0.000000	171.000000	57.000000	52.000000	121.000000
0.300000	56.390000	13.130000	852.000000	0.000000	171.000000	57.000000	34.000000	123.000000
0.310000	56.560000	13.500000	817.000000	0.000000	171.000000	57.000000	17.000000	37.000000
0.320000	56.620000	13.580000	790.000000	0.000000	172.000000	58.000000	6.000000	8.000000
0.330000	56.620000	13.460000	787.000000	0.000000	174.000000	58.000000	0.000000	-12.000000
0.340000	56.620000	13.050000	791.000000	0.000000	175.000000	58.000000	0.000000	-41.000000
0.350000	56.620000	12.310000	794.000000	0.000000	175.000000	58.000000	0.000000	-74.000000
0.360000	56.620000	11.340000	794.000000	0.000000	175.000000	58.000000	0.000000	-97.000000
0.370000	56.740000	10.760000	793.000000	0.000000	175.000000	58.000000	12.000000	-58.000000
0.380000	56.940000	10.400000	794.000000	0.000000	175.000000	58.000000	20.000000	-36.000000
0.390000	57.260000	10.190000	797.000000	0.000000	175.000000	58.000000	32.000000	-21.000000
0.400000	57.600000	10.190000	797.000000	0.000000	175.000000	58.000000	34.000000	0.000000
0.410000	58.020000	10.340000	787.000000	0.000000	175.000000	58.000000	42.000000	15.000000
0.420000	58.370000	10.600000	787.000000	0.000000	175.000000	58.000000	35.000000	26.000000
0.430000	58.660000	10.900000	788.000000	0.000000	175.000000	58.000000	29.000000	30.000000
0.440000	58.830000	11.120000	790.000000	0.000000	175.000000	58.000000	17.000000	22.000000
0.450000	58.880000	11.180000	788.000000	0.000000	177.000000	58.000000	5.000000	6.000000
0.460000	58.880000	11.180000	785.000000	0.000000	177.000000	58.000000	0.000000	0.000000
0.470000	58.880000	11.050000	788.000000	0.000000	177.000000	58.000000	0.000000	-13.000000
0.480000	58.960000	10.920000	785.000000	0.000000	177.000000	58.000000	8.000000	-13.000000
0.490000	59.040000	10.830000	796.000000	0.000000	177.000000	58.000000	8.000000	-9.000000
0.500000	59.140000	10.770000	711.000000	0.000000	177.000000	58.000000	10.000000	-6.000000
0.510000	59.290000	10.670000	402.000000	0.000000	177.000000	59.000000	15.000000	-10.000000
0.520000	59.290000	10.670000	0.000000	1.000000	177.000000	59.000000	0.000000	0.000000
0.530000	59.730000	10.900000	0.000000	0.000000	177.000000	59.000000	44.000000	23.000000
0.540000	59.930000	11.230000	0.000000	0.000000	177.000000	59.000000	20.000000	33.000000
0.550000	60.070000	11.790000	0.000000	0.000000	177.000000	58.000000	14.000000	56.000000
0.560000	60.190000	12.510000	0.000000	0.000000	177.000000	58.000000	12.000000	72.000000
0.570000	60.370000	13.080000	0.000000	0.000000	177.000000	57.000000	18.000000	57.000000
0.580000	60.560000	13.650000	0.000000	0.000000	175.000000	57.000000	19.000000	57.000000
0.590000	60.750000	14.210000	0.000000	0.000000	176.000000	56.000000	19.000000	56.000000
0.600000	60.880000	14.700000	0.000000	0.000000	176.000000	55.000000	13.000000	49.000000
0.610000	60.960000	15.010000	0.000000	0.000000	175.000000	54.000000	8.000000	31.000000
0.620000	60.960000	15.210000	0.000000	0.000000	175.000000	53.000000	0.000000	20.000000
0.630000	60.960000	15.210000	185.000000	1.000000	176.000000	53.000000	0.000000	0.000000
0.640000	60.710000	15.240000	329.000000	0.000000	176.000000	52.000000	-25.000000	3.000000
0.650000	60.570000	15.420000	456.000000	0.000000	176.000000	52.000000	-14.000000	18.000000
0.660000	60.350000	15.420000	551.000000	0.000000	177.000000	53.000000	-22.000000	0.000000
0.670000	60.080000	15.420000	594.000000	0.000000	177.000000	53.000000	-27.000000	0.000000
0.680000	60.030000	15.420000	613.000000	0.000000	177.000000	53.000000	-5.000000	0.000000
0.690000	59.960000	15.360000	633.000000	0.000000	176.000000	54.000000	-7.000000	-6.000000
0.700000	59.870000	15.280000	638.000000	0.000000	176.000000	54.000000	-9.000000	-8.000000
0.710000	59.870000	15.230000	636.000000	0.000000	175.000000	54.000000	0.000000	-5.000000
0.720000	59.870000	15.230000	639.000000	0.000000	173.000000	54.000000	0.000000	0.000000
0.730000	59.980000	15.230000	644.000000	0.000000	171.000000	55.000000	11.000000	0.000000
0.740000	60.190000	15.130000	602.000000	0.000000	170.000000	55.000000	21.000000	-10.000000
0.750000	60.480000	15.130000	443.000000	0.000000	170.000000	55.000000	29.000000	0.000000
0.760000	60.480000	15.130000	0.000000	1.000000	170.000000	55.000000	0.000000	0.000000
0.770000	61.290000	15.130000	0.000000	0.000000	171.000000	55.000000	81.000000	0.000000
0.780000	61.460000	15.280000	0.000000	0.000000	171.000000	55.000000	17.000000	15.000000
0.790000	61.460000	15.370000	0.000000	0.000000	173.000000	55.000000	0.000000	9.000000
0.800000	61.390000	15.450000	0.000000	0.000000	173.000000	54.000000	-7.000000	8.000000
0.810000	61.260000	15.300000	0.000000	0.000000	175.000000	53.000000	-13.000000	-15.000000
0.820000	61.120000	14.980000	0.000000	0.000000	175.000000	52.000000	-14.000000	-32.000000
0.830000	60.850000	14.550000	0.000000	0.000000	175.000000	52.000000	-27.000000	-43.000000
0.840000	60.480000	14.020000	0.000000	0.000000	175.000000	52.000000	-37.000000	-53.000000
0.850000	60.480000	14.020000	267.000000	1.000000	175.000000	51.000000	0.000000	0.000000
0.860000	59.890000	13.320000	376.000000	0.000000	175.000000	52.000000	-59.000000	-70.000000
0.870000	59.690000	13.320000	515.000000	0.000000	176.000000	52.000000	-20.000000	0.000000
0.880000	59.690000	13.320000	542.000000	0.000000	176.000000	53.000000	0.000000	0.000000
0.890000	59.690000	13.380000	428.000000	0.000000	176.000000	54.000000	0.000000	6.000000
0.900000	59.960000	13.380000	8.000000	1.000000	177.000000	55.000000	0.000000	0.000000
0.910000	59.960000	13.380000	0.000000	0.000000	177.000000	56.000000	0.000000	0.000000
0.920000	61.270000	13.440000	0.000000	0.000000	177.000000	56.000000	131.000000	6.000000
0.930000	61.850000	13.600000	0.000000	0.000000	177.000000	56.000000	58.000000	16.000000
0.940000	62.480000	13.850000	0.000000	0.000000	177.000000	55.000000	63.000000	25.000000
0.950000	63.190000	14.100000	0.000000	0.000000	177.000000	54.000000	71.000000	25.000000
0.960000	63.670000	14.350000	0.000000	0.000000	177.000000	53.000000	48.000000	25.000000
0.970000	64.010000	14.590000	0.000000	0.000000	178.000000	51.000000	34.000000	24.000000
0.980000	64.150000	14.950000	0.000000	0.000000	178.000000	50.000000	14.000000	36.000000
0.990000	64.060000	15.380000	0.000000	0.000000	178.000000	48.000000	-9.000000	43.000000
1.000000	63.810000	15.720000	0.000000	0.000000	178.000000	47.000000	-25.000000	34.000000
1.010000	63.580000	16.000000	0.000000	0.000000	178.000000	46.000000	-23.000000	28.000000
1.020000	63.370000	16.280000	0.000000	0.000000	178.000000	46.000000	-21.000000	28.000000
1.030000	63.210000	16.570000	0.000000	0.000000	178.000000	45.000000	-16.000000	29.000000
1.040000	63.210000	16.570000	399.000000	1.000000	178.000000	45.000000	0.000000	0.000000
1.050000	62.940000	16.980000	465.000000	0.000000	178.000000	46.000000	-27.000000	41.000000
1.060000	62.790000	17.330000	491.000000	0.000000	178.000000	46.000000	-15.000000	35.000000
1.070000	62.700000	17.780000	514.000000	0.000000	178.000000	47.000000	-9.000000	45.000000
1.080000	62.650000	17.780000	562.000000	0.000000	177.000000	48.000000	-5.000000	0.000000
1.090000	62.600000	17.020000	633.000000	0.000000	177.000000	49.000000	-5.000000	-76.000000
1.100000	62.420000	15.770000	693.000000	0.000000	176.000000	50.000000	-18.000000	-125.000000
1.110000	62.150000	13.830000	760.000000	0.000000	176.000000	51.000000	-27.000000	-194.000000
1.120000	61.830000	11.810000	827.000000	0.000000	176.000000	52.000000	-32.000000	-202.000000
1.130000	61.520000	9.740000	855.000000	0.000000	176.000000	53.000000	-31.000000	-207.000000
1.140000	61.160000	8.210000	887.000000	0.000000	176.000000	54.000000	-36.000000	-153.000000
1.150000	60.760000	6.800000	908.000000	0.000000	176.000000	55.000000	-40.000000	-141.000000
1.160000	60.470000	5.460000	899.000000	0.000000	176.000000	55.000000	-29.000000	-134.000000
1.170000	60.380000	4.660000	906.000000	0.000000	174.000000	56.000000	-9.000000	-80.000000
1.180000	60.380000	4.350000	935.000000	0.000000	174.000000	57.000000	0.000000	-31.000000
1.190000	60.380000	4.350000	978.000000	0.000000	172.000000	58.000000	0.000000	0.000000
1.200000	60.380000	4.440000	987.000000	0.000000	172.000000	58.000000	0.000000	9.000000
1.210000	60.450000	5.060000	984.000000	0.000000	172.000000	58.000000	7.000000	62.000000
1.220000	60.540000	6.040000	977.000000	0.000000	170.000000	58.000000	9.000000	98.000000
1.230000	60.730000	7.090000	952.000000	0.000000	170.000000	58.000000	19.000000	105.000000
1.240000	61.030000	8.170000	930.000000	0.000000	170.000000	58.000000	30.000000	108.000000
1.250000	61.400000	9.260000	912.000000	0.000000	170.000000	58.000000	37.000000	109.000000
1.260000	61.690000	10.130000	909.000000	0.000000	170.000000	58.000000	29.000000	87.000000
1.270000	62.250000	10.750000	909.000000	0.000000	171.000000	57.000000	56.000000	62.000000
1.280000	62.990000	11.210000	906.000000	0.000000	171.000000	57.000000	74.000000	46.000000
1.290000	63.540000	11.470000	906.000000	0.000000	172.000000	58.000000	55.000000	26.000000
1.300000	64.110000	11.690000	905.000000	0.000000	172.000000	58.000000	57.000000	22.000000
1.310000	64.710000	11.920000	905.000000	0.000000	172.000000	58.000000	60.000000	23.000000
1.320000	65.330000	12.180000	903.000000	0.000000	173.000000	59.000000	62.000000	26.000000
1.330000	65.780000	12.360000	905.000000	0.000000	173.000000	59.000000	45.000000	18.000000
1.340000	66.100000	12.550000	906.000000	0.000000	173.000000	59.000000	32.000000	19.000000
1.350000	66.280000	12.770000	896.000000	0.000000	175.000000	59.000000	18.000000	22.000000
1.360000	66.280000	12.960000	875.000000	0.000000	175.000000	58.000000	0.000000	19.000000
1.370000	66.170000	13.220000	867.000000	0.000000	177.000000	58.000000	-11.000000	26.000000
1.380000	66.000000	13.520000	821.000000	0.000000	178.000000	58.000000	-17.000000	30.000000
1.390000	65.660000	13.650000	820.000000	0.000000	178.000000	58.000000	-34.000000	13.000000
1.400000	65.210000	13.480000	812.000000	0.000000	178.000000	58.000000	-45.000000	-17.000000
1.410000	64.790000	13.120000	814.000000	0.000000	178.000000	57.000000	-42.000000	-36.000000
1.420000	64.420000	12.400000	815.000000	0.000000	177.000000	57.000000	-37.000000	-72.000000
1.430000	64.070000	11.630000	814.000000	0.000000	177.000000	57.000000	-35.000000	-77.000000
1.440000	63.940000	11.190000	824.000000	0.000000	175.000000	57.000000	-13.000000	-44.000000
1.450000	64.020000	10.990000	832.000000	0.000000	175.000000	57.000000	8.000000	-20.000000
1.460000	64.230000	10.920000	827.000000	0.000000	174.000000	58.000000	21.000000	-7.000000
1.470000	64.430000	10.980000	834.000000	0.000000	174.000000	58.000000	20.000000	6.000000
1.480000	64.840000	11.130000	839.000000	0.000000	172.000000	58.000000	41.000000	15.000000
1.490000	65.390000	11.430000	839.000000	0.000000	172.000000	58.000000	55.000000	30.000000
1.500000	65.840000	11.830000	837.000000	0.000000	172.000000	58.000000	45.000000	40.000000
1.510000	66.290000	12.300000	833.000000	0.000000	174.000000	58.000000	45.000000	47.000000
1.520000	66.640000	12.460000	828.000000	0.000000	174.000000	58.000000	35.000000	16.000000
1.530000	66.920000	12.460000	819.000000	0.000000	174.000000	58.000000	28.000000	0.000000
1.540000	67.200000	12.390000	818.000000	0.000000	175.000000	58.000000	28.000000	-7.000000
1.550000	67.390000	12.150000	826.000000	0.000000	177.000000	58.000000	19.000000	-24.000000
1.560000	67.530000	11.910000	826.000000	0.000000	177.000000	58.000000	14.000000	-24.000000
1.570000	67.530000	11.600000	821.000000	0.000000	178.000000	58.000000	0.000000	-31.000000
1.580000	67.370000	11.250000	818.000000	0.000000	178.000000	58.000000	-16.000000	-35.000000
1.590000	67.120000	11.070000	817.000000	0.000000	178.000000	58.000000	-25.000000	-18.000000
1.600000	66.820000	10.890000	817.000000	0.000000	178.000000	58.000000	-30.000000	-18.000000
1.610000	66.580000	10.840000	815.000000	0.000000	178.000000	58.000000	-24.000000	-5.000000
1.620000	66.440000	10.890000	818.000000	0.000000	178.000000	58.000000	-14.000000	5.000000
1.630000	66.280000	11.020000	818.000000	0.000000	178.000000	58.000000	-16.000000	13.000000
1.640000	66.280000	11.240000	817.000000	0.000000	177.000000	58.000000	0.000000	22.000000
1.650000	66.330000	11.520000	817.000000	0.000000	177.000000	58.000000	5.000000	28.000000
1.660000	66.410000	11.760000	823.000000	0.000000	177.000000	58.000000	8.000000	24.000000
1.670000	66.410000	11.760000	823.000000	0.000000	175.000000	58.000000	0.000000	0.000000
1.680000	66.410000	11.760000	824.000000	0.000000	175.000000	57.000000	0.000000	0.000000
1.690000	66.960000	11.790000	826.000000	0.000000	177.000000	57.000000	55.000000	3.000000
1.700000	67.370000	11.720000	827.000000	0.000000	177.000000	58.000000	41.000000	-7.000000
1.710000	67.920000	11.660000	827.000000	0.000000	177.000000	58.000000	55.000000	-6.000000
1.720000	68.470000	11.760000	830.000000	0.000000	178.000000	58.000000	55.000000	10.000000
1.730000	69.000000	11.960000	827.000000	0.000000	178.000000	58.000000	53.000000	20.000000
1.740000	69.350000	12.240000	815.000000	0.000000	180.000000	58.000000	35.000000	28.000000
1.750000	69.600000	12.560000	815.000000	0.000000	180.000000	58.000000	25.000000	32.000000
1.760000	69.650000	12.920000	800.000000	0.000000	180.000000	58.000000	5.000000	36.000000
1.770000	69.650000	13.290000	794.000000	0.000000	180.000000	58.000000	0.000000	37.000000
1.780000	69.500000	13.610000	787.000000	0.000000	178.000000	57.000000	-15.000000	32.000000
1.790000	69.400000	13.720000	797.000000	0.000000	177.000000	57.000000	-10.000000	11.000000
1.800000	69.170000	13.720000	794.000000	0.000000	177.000000	57.000000	-23.000000	0.000000
1.810000	68.840000	13.490000	783.000000	0.000000	175.000000	57.000000	-33.000000	-23.000000
1.820000	68.440000	13.070000	797.000000	0.000000	174.000000	57.000000	-40.000000	-42.000000
1.830000	68.070000	12.520000	806.000000	0.000000	174.000000	57.000000	-37.000000	-55.000000
1.840000	67.970000	12.140000	818.000000	0.000000	174.000000	57.000000	-10.000000	-38.000000
1.850000	68.030000	11.830000	817.000000	0.000000	175.000000	57.000000	6.000000	-31.000000
1.860000	68.390000	11.560000	825.000000	0.000000	175.000000	57.000000	36.000000	-27.000000
1.870000	68.990000	11.370000	827.000000	0.000000	177.000000	57.000000	60.000000	-19.000000
1.880000	69.760000	11.160000	827.000000	0.000000	178.000000	57.000000	77.000000	-21.000000
1.890000	70.710000	10.940000	819.000000	0.000000	180.000000	57.000000	95.000000	-22.000000
1.900000	71.810000	10.510000	818.000000	0.000000	180.000000	57.000000	110.000000	-43.000000
1.910000	73.000000	9.920000	818.000000	0.000000	180.000000	57.000000	119.000000	-59.000000
1.920000	74.420000	9.230000	819.000000	0.000000	182.000000	57.000000	142.000000	-69.000000
1.930000	75.780000	8.590000	824.000000	0.000000	182.000000	57.000000	136.000000	-64.000000
1.940000	76.780000	8.040000	830.000000	0.000000	182.000000	57.000000	100.000000	-55.000000
1.950000	77.540000	7.560000	833.000000	0.000000	183.000000	57.000000	76.000000	-48.000000
1.960000	77.850000	7.330000	828.000000	0.000000	183.000000	56.000000	31.000000	-23.000000
1.970000	77.640000	7.220000	846.000000	0.000000	184.000000	56.000000	-21.000000	-11.000000
1.980000	77.090000	7.220000	855.000000	0.000000	184.000000	55.000000	-55.000000	0.000000
1.990000	75.470000	7.140000	858.000000	0.000000	184.000000	55.000000	-162.000000	-8.000000
2.000000	73.150000	7.140000	861.000000	0.000000	185.000000	54.000000	-232.000000	0.000000
2.010000	70.360000	7.140000	858.000000	0.000000	185.000000	54.000000	-279.000000	0.000000
2.020000	66.680000	6.990000	888.000000	0.000000	185.000000	53.000000	-368.000000	-15.000000
2.030000	62.380000	6.850000	915.000000	0.000000	184.000000	53.000000	-430.000000	-14.000000
2.040000	57.660000	6.460000	939.000000	0.000000	184.000000	52.000000	-472.000000	-39.000000
2.050000	53.330000	5.920000	944.000000	0.000000	184.000000	52.000000	-433.000000	-54.000000
2.060000	50.320000	5.320000	950.000000	0.000000	182.000000	51.000000	-301.000000	-60.000000
2.070000	48.180000	4.870000	939.000000	0.000000	181.000000	52.000000	-214.000000	-45.000000
2.080000	47.190000	4.530000	905.000000	0.000000	180.000000	52.000000	-99.000000	-34.000000
2.090000	46.860000	4.440000	797.000000	0.000000	180.000000	52.000000	-33.000000	-9.000000
2.100000	46.960000	4.530000	567.000000	0.000000	179.000000	53.000000	10.000000	9.000000
2.110000	46.960000	4.530000	0.000000	1.000000	179.000000	53.000000	0.000000	0.000000
2.120000	48.590000	5.200000	0.000000	0.000000	177.000000	54.000000	163.000000	67.000000
2.130000	49.970000	5.700000	0.000000	0.000000	177.000000	54.000000	138.000000	50.000000
2.140000	51.140000	6.230000	0.000000	0.000000	176.000000	54.000000	117.000000	53.000000
2.150000	52.450000	6.730000	0.000000	0.000000	176.000000	54.000000	131.000000	50.000000
2.160000	53.850000	7.180000	0.000000	0.000000	176.000000	53.000000	140.000000	45.000000
2.170000	55.070000	7.540000	0.000000	0.000000	176.000000	53.000000	122.000000	36.000000
2.180000	56.090000	7.850000	0.000000	0.000000	176.000000	52.000000	102.000000	31.000000
2.190000	56.980000	8.130000	0.000000	0.000000	176.000000	52.000000	89.000000	28.000000
2.200000	57.450000	8.400000	0.000000	0.000000	177.000000	52.000000	47.000000	27.000000
2.210000	57.500000	8.690000	0.000000	0.000000	179.000000	51.000000	5.000000	29.000000
