t	x	y	pressure	penup	azimuth	inclination	v_x	v_y
0.000000	11.270000	5.470000	280.000000	1.000000	191.000000	38.000000	0.000000	0.000000
0.010000	10.880000	3.760000	349.000000	0.000000	192.000000	39.000000	-39.000000	-171.000000
0.020000	10.680000	3.300000	440.000000	0.000000	193.000000	41.000000	-20.000000	-46.000000
0.030000	10.600000	2.850000	562.000000	0.000000	193.000000	42.000000	-8.000000	-45.000000
0.040000	10.600000	2.410000	690.000000	0.000000	194.000000	43.000000	0.000000	-44.000000
0.050000	10.760000	2.410000	765.000000	0.000000	194.000000	45.000000	16.000000	0.000000
0.060000	11.130000	2.860000	836.000000	0.000000	194.000000	46.000000	37.000000	45.000000
0.070000	11.640000	3.590000	863.000000	0.000000	194.000000	47.000000	51.000000	73.000000
0.080000	12.390000	5.050000	906.000000	0.000000	194.000000	47.000000	75.000000	146.000000
0.090000	13.140000	6.800000	914.000000	0.000000	194.000000	48.000000	75.000000	175.000000
0.100000	13.940000	8.750000	935.000000	0.000000	193.000000	48.000000	80.000000	195.000000
0.110000	14.780000	10.720000	939.000000	0.000000	191.000000	48.000000	84.000000	197.000000
0.120000	15.400000	12.880000	930.000000	0.000000	189.000000	49.000000	62.000000	216.000000
0.130000	15.750000	15.180000	935.000000	0.000000	188.000000	49.000000	35.000000	230.000000
0.140000	15.920000	16.540000	933.000000	0.000000	187.000000	49.000000	17.000000	136.000000
0.150000	15.970000	17.110000	927.000000	0.000000	187.000000	49.000000	5.000000	57.000000
0.160000	15.970000	17.160000	912.000000	0.000000	186.000000	50.000000	0.000000	5.000000
0.170000	15.970000	17.070000	915.000000	0.000000	186.000000	51.000000	0.000000	-9.000000
0.180000	15.890000	16.060000	915.000000	0.000000	186.000000	51.000000	-8.000000	-101.000000
0.190000	15.690000	14.440000	921.000000	0.000000	187.000000	51.000000	-20.000000	-162.000000
0.200000	15.420000	12.790000	923.000000	0.000000	187.000000	51.000000	-27.000000	-165.000000
0.210000	15.210000	11.160000	930.000000	0.000000	189.000000	51.000000	-21.000000	-163.000000
0.220000	15.210000	10.100000	935.000000	0.000000	189.000000	51.000000	0.000000	-106.000000
0.230000	15.360000	9.410000	941.000000	0.000000	190.000000	51.000000	15.000000	-69.000000
0.240000	15.610000	9.060000	945.000000	0.000000	191.000000	50.000000	25.000000	-35.000000
0.250000	15.800000	8.990000	938.000000	0.000000	192.000000	49.000000	19.000000	-7.000000
0.260000	16.130000	9.110000	938.000000	0.000000	192.000000	49.000000	33.000000	12.000000
0.270000	16.580000	9.720000	951.000000	0.000000	192.000000	49.000000	45.000000	61.000000
0.280000	17.350000	10.770000	941.000000	0.000000	191.000000	50.000000	77.000000	105.000000
0.290000	17.940000	12.110000	911.000000	0.000000	189.000000	51.000000	59.000000	134.000000
0.300000	18.400000	13.560000	894.000000	0.000000	186.000000	51.000000	46.000000	145.000000
0.310000	18.750000	14.740000	882.000000	0.000000	185.000000	51.000000	35.000000	118.000000
0.320000	19.050000	15.270000	866.000000	0.000000	182.000000	51.000000	30.000000	53.000000
0.330000	19.150000	15.460000	860.000000	0.000000	180.000000	50.000000	10.000000	19.000000
0.340000	19.150000	15.310000	860.000000	0.000000	179.000000	50.000000	0.000000	-15.000000
0.350000	19.150000	14.780000	863.000000	0.000000	178.000000	50.000000	0.000000	-53.000000
0.360000	19.150000	13.990000	863.000000	0.000000	177.000000	49.000000	0.000000	-79.000000
0.370000	19.150000	13.230000	864.000000	0.000000	177.000000	49.000000	0.000000	-76.000000
0.380000	19.280000	12.690000	869.000000	0.000000	177.000000	49.000000	13.000000	-54.000000
0.390000	19.520000	12.310000	869.000000	0.000000	176.000000	50.000000	24.000000	-38.000000
0.400000	19.840000	12.190000	869.000000	0.000000	176.000000	50.000000	32.000000	-12.000000
0.410000	20.190000	12.250000	855.000000	0.000000	176.000000	51.000000	35.000000	6.000000
0.420000	20.480000	12.430000	855.000000	0.000000	176.000000	51.000000	29.000000	18.000000
0.430000	20.740000	12.510000	854.000000	0.000000	175.000000	52.000000	26.000000	8.000000
0.440000	20.930000	12.560000	853.000000	0.000000	175.000000	52.000000	19.000000	5.000000
0.450000	20.990000	12.560000	869.000000	0.000000	175.000000	53.000000	6.000000	0.000000
0.460000	20.990000	12.510000	853.000000	0.000000	175.000000	53.000000	0.000000	-5.000000
0.470000	21.080000	12.400000	854.000000	0.000000	175.000000	53.000000	9.000000	-11.000000
0.480000	21.230000	12.340000	860.000000	0.000000	175.000000	54.000000	15.000000	-6.000000
0.490000	21.420000	12.340000	763.000000	0.000000	175.000000	54.000000	19.000000	0.000000
0.500000	21.670000	12.340000	526.000000	0.000000	175.000000	54.000000	25.000000	0.000000
0.510000	21.670000	12.340000	0.000000	1.000000	175.000000	54.000000	0.000000	0.000000
0.520000	22.050000	12.660000	0.000000	0.000000	175.000000	54.000000	38.000000	32.000000
0.530000	22.050000	13.070000	0.000000	0.000000	173.000000	54.000000	0.000000	41.000000
0.540000	22.050000	13.540000	0.000000	0.000000	173.000000	54.000000	0.000000	47.000000
0.550000	22.050000	14.060000	0.000000	0.000000	173.000000	53.000000	0.000000	52.000000
0.560000	22.190000	14.560000	0.000000	0.000000	172.000000	52.000000	14.000000	50.000000
0.570000	22.380000	15.150000	0.000000	0.000000	173.000000	51.000000	19.000000	59.000000
0.580000	22.600000	15.790000	0.000000	0.000000	173.000000	50.000000	22.000000	64.000000
0.590000	22.750000	16.360000	0.000000	0.000000	172.000000	49.000000	15.000000	57.000000
0.600000	22.860000	16.830000	0.000000	0.000000	172.000000	49.000000	11.000000	47.000000
0.610000	22.930000	17.230000	0.000000	0.000000	172.000000	49.000000	7.000000	40.000000
0.620000	22.930000	17.230000	207.000000	1.000000	172.000000	50.000000	0.000000	0.000000
0.630000	23.020000	17.550000	341.000000	0.000000	171.000000	52.000000	9.000000	32.000000
0.640000	23.020000	17.690000	494.000000	0.000000	171.000000	53.000000	0.000000	14.000000
0.650000	23.020000	17.820000	622.000000	0.000000	171.000000	55.000000	0.000000	13.000000
0.660000	23.020000	17.820000	667.000000	0.000000	171.000000	56.000000	0.000000	0.000000
0.670000	23.020000	17.820000	687.000000	0.000000	170.000000	58.000000	0.000000	0.000000
0.680000	23.020000	17.870000	699.000000	0.000000	172.000000	59.000000	0.000000	5.000000
0.690000	23.020000	17.870000	690.000000	0.000000	172.000000	59.000000	0.000000	0.000000
0.700000	22.890000	17.950000	668.000000	0.000000	171.000000	60.000000	-13.000000	8.000000
0.710000	22.720000	18.030000	649.000000	0.000000	173.000000	59.000000	-17.000000	8.000000
0.720000	22.500000	17.880000	636.000000	0.000000	173.000000	59.000000	-22.000000	-15.000000
0.730000	22.290000	17.690000	636.000000	0.000000	173.000000	59.000000	-21.000000	-19.000000
0.740000	22.090000	17.440000	636.000000	0.000000	173.000000	59.000000	-20.000000	-25.000000
0.750000	22.090000	17.310000	639.000000	0.000000	173.000000	59.000000	0.000000	-13.000000
0.760000	22.160000	17.260000	637.000000	0.000000	171.000000	60.000000	7.000000	-5.000000
0.770000	22.290000	17.260000	647.000000	0.000000	171.000000	60.000000	13.000000	0.000000
0.780000	22.420000	17.260000	641.000000	0.000000	171.000000	60.000000	13.000000	0.000000
0.790000	22.590000	17.310000	519.000000	0.000000	171.000000	60.000000	17.000000	5.000000
0.800000	22.820000	17.310000	48.000000	0.000000	171.000000	61.000000	23.000000	0.000000
0.810000	22.820000	17.310000	0.000000	1.000000	169.000000	61.000000	0.000000	0.000000
0.820000	22.900000	17.360000	0.000000	0.000000	169.000000	61.000000	8.000000	5.000000
0.830000	22.830000	17.460000	0.000000	0.000000	169.000000	61.000000	-7.000000	10.000000
0.840000	22.830000	17.460000	0.000000	0.000000	169.000000	61.000000	0.000000	0.000000
0.850000	22.830000	17.390000	0.000000	0.000000	168.000000	60.000000	0.000000	-7.000000
0.860000	22.910000	17.150000	0.000000	0.000000	168.000000	59.000000	8.000000	-24.000000
0.870000	22.910000	16.800000	0.000000	0.000000	168.000000	58.000000	0.000000	-35.000000
0.880000	22.850000	16.390000	0.000000	0.000000	168.000000	56.000000	-6.000000	-41.000000
0.890000	22.850000	16.390000	376.000000	1.000000	169.000000	54.000000	0.000000	0.000000
0.900000	22.690000	15.850000	461.000000	0.000000	169.000000	53.000000	-16.000000	-54.000000
0.910000	22.690000	15.990000	509.000000	0.000000	170.000000	52.000000	0.000000	14.000000
0.920000	22.750000	15.990000	504.000000	0.000000	170.000000	50.000000	6.000000	0.000000
0.930000	22.890000	16.100000	351.000000	0.000000	171.000000	49.000000	14.000000	11.000000
0.940000	22.890000	16.100000	0.000000	1.000000	172.000000	48.000000	0.000000	0.000000
0.950000	23.780000	16.330000	0.000000	0.000000	172.000000	47.000000	89.000000	23.000000
0.960000	24.180000	16.550000	0.000000	0.000000	172.000000	48.000000	40.000000	22.000000
0.970000	24.600000	16.850000	0.000000	0.000000	172.000000	48.000000	42.000000	30.000000
0.980000	25.040000	17.190000	0.000000	0.000000	173.000000	49.000000	44.000000	34.000000
0.990000	25.580000	17.510000	0.000000	0.000000	173.000000	51.000000	54.000000	32.000000
1.000000	26.130000	17.930000	0.000000	0.000000	173.000000	53.000000	55.000000	42.000000
1.010000	26.670000	18.420000	0.000000	0.000000	175.000000	54.000000	54.000000	49.000000
1.020000	26.970000	18.850000	0.000000	0.000000	176.000000	56.000000	30.000000	43.000000
1.030000	27.130000	19.280000	0.000000	0.000000	175.000000	57.000000	16.000000	43.000000
1.040000	27.130000	19.280000	396.000000	1.000000	177.000000	58.000000	0.000000	0.000000
1.050000	26.950000	20.030000	565.000000	0.000000	177.000000	59.000000	-18.000000	75.000000
1.060000	26.740000	20.290000	624.000000	0.000000	177.000000	59.000000	-21.000000	26.000000
1.070000	26.740000	20.290000	675.000000	0.000000	178.000000	59.000000	0.000000	0.000000
1.080000	26.660000	20.070000	774.000000	0.000000	178.000000	59.000000	-8.000000	-22.000000
1.090000	26.570000	19.190000	821.000000	0.000000	178.000000	58.000000	-9.000000	-88.000000
1.100000	26.390000	17.700000	897.000000	0.000000	180.000000	58.000000	-18.000000	-149.000000
1.110000	26.200000	15.810000	932.000000	0.000000	180.000000	57.000000	-19.000000	-189.000000
1.120000	26.010000	13.840000	933.000000	0.000000	180.000000	57.000000	-19.000000	-197.000000
1.130000	25.730000	11.880000	943.000000	0.000000	180.000000	56.000000	-28.000000	-196.000000
1.140000	25.480000	10.480000	946.000000	0.000000	179.000000	56.000000	-25.000000	-140.000000
1.150000	25.270000	9.450000	950.000000	0.000000	179.000000	56.000000	-21.000000	-103.000000
1.160000	25.220000	8.940000	956.000000	0.000000	177.000000	56.000000	-5.000000	-51.000000
1.170000	25.270000	8.670000	964.000000	0.000000	177.000000	56.000000	5.000000	-27.000000
1.180000	25.270000	8.560000	970.000000	0.000000	176.000000	56.000000	0.000000	-11.000000
1.190000	25.270000	8.610000	968.000000	0.000000	176.000000	56.000000	0.000000	5.000000
1.200000	25.210000	8.890000	941.000000	0.000000	174.000000	56.000000	-6.000000	28.000000
1.210000	25.210000	9.330000	917.000000	0.000000	174.000000	56.000000	0.000000	44.000000
1.220000	25.210000	10.050000	905.000000	0.000000	174.000000	57.000000	0.000000	72.000000
1.230000	25.360000	10.960000	878.000000	0.000000	174.000000	57.000000	15.000000	91.000000
1.240000	25.600000	12.000000	869.000000	0.000000	174.000000	57.000000	24.000000	104.000000
1.250000	25.900000	13.030000	860.000000	0.000000	172.000000	57.000000	30.000000	103.000000
1.260000	26.230000	13.770000	863.000000	0.000000	172.000000	57.000000	33.000000	74.000000
1.270000	26.630000	14.310000	860.000000	0.000000	172.000000	57.000000	40.000000	54.000000
1.280000	27.130000	14.790000	863.000000	0.000000	172.000000	57.000000	50.000000	48.000000
1.290000	27.630000	15.100000	863.000000	0.000000	174.000000	56.000000	50.000000	31.000000
1.300000	28.090000	15.290000	861.000000	0.000000	174.000000	56.000000	46.000000	19.000000
1.310000	28.570000	15.400000	863.000000	0.000000	174.000000	55.000000	48.000000	11.000000
1.320000	28.960000	15.490000	863.000000	0.000000	174.000000	55.000000	39.000000	9.000000
1.330000	29.300000	15.550000	863.000000	0.000000	174.000000	55.000000	34.000000	6.000000
1.340000	29.570000	15.550000	863.000000	0.000000	175.000000	54.000000	27.000000	0.000000
1.350000	29.710000	15.550000	860.000000	0.000000	175.000000	54.000000	14.000000	0.000000
1.360000	29.770000	15.480000	869.000000	0.000000	175.000000	54.000000	6.000000	-7.000000
1.370000	29.770000	15.480000	817.000000	0.000000	175.000000	54.000000	0.000000	0.000000
1.380000	29.770000	15.480000	724.000000	0.000000	175.000000	54.000000	0.000000	0.000000
1.390000	29.770000	15.430000	412.000000	0.000000	175.000000	54.000000	0.000000	-5.000000
1.400000	29.770000	15.430000	0.000000	1.000000	175.000000	54.000000	0.000000	0.000000
1.410000	29.570000	15.430000	0.000000	0.000000	175.000000	54.000000	-20.000000	0.000000
1.420000	29.470000	15.720000	0.000000	0.000000	175.000000	54.000000	-10.000000	29.000000
1.430000	29.470000	16.140000	0.000000	0.000000	175.000000	53.000000	0.000000	42.000000
1.440000	29.470000	16.480000	0.000000	0.000000	173.000000	53.000000	0.000000	34.000000
1.450000	29.580000	16.590000	0.000000	0.000000	173.000000	53.000000	11.000000	11.000000
1.460000	29.700000	16.590000	0.000000	0.000000	172.000000	52.000000	12.000000	0.000000
1.470000	29.800000	16.400000	0.000000	0.000000	172.000000	52.000000	10.000000	-19.000000
1.480000	29.800000	16.270000	0.000000	0.000000	172.000000	52.000000	0.000000	-13.000000
1.490000	29.800000	16.150000	0.000000	0.000000	171.000000	51.000000	0.000000	-12.000000
1.500000	29.800000	16.070000	0.000000	0.000000	171.000000	51.000000	0.000000	-8.000000
1.510000	29.800000	15.950000	0.000000	0.000000	171.000000	51.000000	0.000000	-12.000000
1.520000	29.800000	15.950000	173.000000	1.000000	173.000000	51.000000	0.000000	0.000000
1.530000	29.800000	15.950000	292.000000	0.000000	173.000000	51.000000	0.000000	0.000000
1.540000	29.800000	15.950000	458.000000	0.000000	172.000000	52.000000	0.000000	0.000000
1.550000	29.990000	15.590000	543.000000	0.000000	174.000000	52.000000	19.000000	-36.000000
1.560000	30.120000	15.410000	620.000000	0.000000	174.000000	52.000000	13.000000	-18.000000
1.570000	30.330000	15.220000	646.000000	0.000000	175.000000	53.000000	21.000000	-19.000000
1.580000	30.620000	15.110000	665.000000	0.000000	175.000000	53.000000	29.000000	-11.000000
1.590000	30.940000	15.110000	672.000000	0.000000	175.000000	53.000000	32.000000	0.000000
1.600000	31.260000	15.260000	679.000000	0.000000	175.000000	54.000000	32.000000	15.000000
1.610000	31.520000	15.520000	696.000000	0.000000	175.000000	54.000000	26.000000	26.000000
1.620000	31.740000	15.780000	694.000000	0.000000	175.000000	54.000000	22.000000	26.000000
1.630000	31.740000	16.040000	690.000000	0.000000	175.000000	54.000000	0.000000	26.000000
1.640000	31.680000	16.310000	696.000000	0.000000	175.000000	54.000000	-6.000000	27.000000
1.650000	31.520000	16.520000	694.000000	0.000000	173.000000	54.000000	-16.000000	21.000000
1.660000	31.180000	16.520000	694.000000	0.000000	173.000000	54.000000	-34.000000	0.000000
1.670000	30.760000	16.320000	696.000000	0.000000	173.000000	54.000000	-42.000000	-20.000000
1.680000	30.280000	15.960000	690.000000	0.000000	173.000000	53.000000	-48.000000	-36.000000
1.690000	29.910000	15.510000	710.000000	0.000000	173.000000	53.000000	-37.000000	-45.000000
1.700000	29.750000	15.000000	720.000000	0.000000	173.000000	53.000000	-16.000000	-51.000000
1.710000	29.750000	14.590000	725.000000	0.000000	173.000000	53.000000	0.000000	-41.000000
1.720000	29.870000	14.320000	733.000000	0.000000	173.000000	54.000000	12.000000	-27.000000
1.730000	30.060000	14.140000	730.000000	0.000000	173.000000	54.000000	19.000000	-18.000000
1.740000	30.320000	14.020000	700.000000	0.000000	173.000000	54.000000	26.000000	-12.000000
1.750000	30.630000	14.020000	540.000000	0.000000	173.000000	55.000000	31.000000	0.000000
1.760000	30.980000	14.140000	184.000000	0.000000	173.000000	56.000000	35.000000	12.000000
1.770000	30.980000	14.140000	0.000000	1.000000	173.000000	56.000000	0.000000	0.000000
1.780000	31.690000	14.490000	0.000000	0.000000	173.000000	56.000000	71.000000	35.000000
1.790000	32.040000	14.760000	0.000000	0.000000	173.000000	56.000000	35.000000	27.000000
1.800000	32.360000	15.040000	0.000000	0.000000	173.000000	56.000000	32.000000	28.000000
1.810000	32.650000	15.290000	0.000000	0.000000	174.000000	56.000000	29.000000	25.000000
1.820000	32.650000	15.290000	171.000000	1.000000	174.000000	55.000000	0.000000	0.000000
1.830000	32.970000	15.690000	388.000000	0.000000	174.000000	55.000000	32.000000	40.000000
1.840000	32.970000	15.880000	581.000000	0.000000	176.000000	54.000000	0.000000	19.000000
1.850000	32.910000	15.980000	699.000000	0.000000	176.000000	54.000000	-6.000000	10.000000
1.860000	32.910000	16.040000	727.000000	0.000000	176.000000	54.000000	0.000000	6.000000
1.870000	32.860000	16.040000	739.000000	0.000000	176.000000	53.000000	-5.000000	0.000000
1.880000	32.860000	16.040000	739.000000	0.000000	176.000000	53.000000	0.000000	0.000000
1.890000	32.800000	16.040000	740.000000	0.000000	176.000000	53.000000	-6.000000	0.000000
1.900000	32.700000	15.720000	740.000000	0.000000	176.000000	53.000000	-10.000000	-32.000000
1.910000	32.560000	15.380000	742.000000	0.000000	176.000000	54.000000	-14.000000	-34.000000
1.920000	32.560000	15.010000	737.000000	0.000000	176.000000	54.000000	0.000000	-37.000000
1.930000	32.480000	14.710000	737.000000	0.000000	176.000000	54.000000	-8.000000	-30.000000
1.940000	32.410000	14.410000	721.000000	0.000000	176.000000	55.000000	-7.000000	-30.000000
1.950000	32.300000	14.140000	727.000000	0.000000	176.000000	55.000000	-11.000000	-27.000000
1.960000	32.140000	13.960000	721.000000	0.000000	176.000000	55.000000	-16.000000	-18.000000
1.970000	31.940000	13.820000	717.000000	0.000000	176.000000	56.000000	-20.000000	-14.000000
1.980000	31.760000	13.820000	714.000000	0.000000	176.000000	56.000000	-18.000000	0.000000
1.990000	31.590000	13.880000	716.000000	0.000000	175.000000	57.000000	-17.000000	6.000000
2.000000	31.450000	13.990000	705.000000	0.000000	175.000000	57.000000	-14.000000	11.000000
2.010000	31.300000	14.230000	714.000000	0.000000	174.000000	57.000000	-15.000000	24.000000
2.020000	31.300000	14.420000	717.000000	0.000000	174.000000	57.000000	0.000000	19.000000
2.030000	31.360000	14.500000	724.000000	0.000000	174.000000	57.000000	6.000000	8.000000
2.040000	31.560000	14.550000	727.000000	0.000000	172.000000	57.000000	20.000000	5.000000
2.050000	31.900000	14.550000	730.000000	0.000000	173.000000	56.000000	34.000000	0.000000
2.060000	32.340000	14.550000	720.000000	0.000000	173.000000	56.000000	44.000000	0.000000
2.070000	32.750000	14.450000	720.000000	0.000000	174.000000	56.000000	41.000000	-10.000000
2.080000	33.240000	14.450000	721.000000	0.000000	174.000000	56.000000	49.000000	0.000000
2.090000	33.700000	14.450000	721.000000	0.000000	174.000000	56.000000	46.000000	0.000000
2.100000	34.100000	14.570000	720.000000	0.000000	176.000000	56.000000	40.000000	12.000000
2.110000	34.390000	14.770000	721.000000	0.000000	176.000000	56.000000	29.000000	20.000000
2.120000	34.550000	14.950000	722.000000	0.000000	177.000000	56.000000	16.000000	18.000000
2.130000	34.610000	15.200000	722.000000	0.000000	177.000000	56.000000	6.000000	25.000000
2.140000	34.610000	15.500000	728.000000	0.000000	177.000000	56.000000	0.000000	30.000000
2.150000	34.610000	15.690000	739.000000	0.000000	177.000000	56.000000	0.000000	19.000000
2.160000	34.540000	15.750000	736.000000	0.000000	177.000000	56.000000	-7.000000	6.000000
2.170000	34.540000	15.750000	736.000000	0.000000	177.000000	56.000000	0.000000	0.000000
2.180000	34.540000	15.550000	740.000000	0.000000	177.000000	56.000000	0.000000	-20.000000
2.190000	34.460000	15.320000	745.000000	0.000000	177.000000	55.000000	-8.000000	-23.000000
2.200000	34.370000	15.020000	748.000000	0.000000	177.000000	55.000000	-9.000000	-30.000000
2.210000	34.370000	14.760000	746.000000	0.000000	177.000000	55.000000	0.000000	-26.000000
2.220000	34.470000	14.670000	751.000000	0.000000	177.000000	55.000000	10.000000	-9.000000
