t	x	y	pressure	penup	azimuth	inclination	v_x	v_y
0.000000	11.880000	22.180000	431.000000	1.000000	175.000000	61.000000	0.000000	0.000000
0.010000	11.790000	21.640000	494.000000	0.000000	173.000000	61.000000	-9.000000	-54.000000
0.020000	11.690000	21.690000	566.000000	0.000000	171.000000	62.000000	-10.000000	5.000000
0.030000	11.690000	21.690000	717.000000	0.000000	167.000000	61.000000	0.000000	0.000000
0.040000	11.740000	21.790000	827.000000	0.000000	165.000000	62.000000	5.000000	10.000000
0.050000	12.150000	21.950000	855.000000	0.000000	165.000000	62.000000	41.000000	16.000000
0.060000	12.810000	22.680000	909.000000	0.000000	164.000000	63.000000	66.000000	73.000000
0.070000	13.660000	23.800000	937.000000	0.000000	166.000000	63.000000	85.000000	112.000000
0.080000	14.520000	25.190000	941.000000	0.000000	167.000000	64.000000	86.000000	139.000000
0.090000	15.430000	26.900000	953.000000	0.000000	169.000000	65.000000	91.000000	171.000000
0.100000	16.200000	28.980000	952.000000	0.000000	169.000000	65.000000	77.000000	208.000000
0.110000	16.860000	31.300000	940.000000	0.000000	172.000000	64.000000	66.000000	232.000000
0.120000	17.340000	33.800000	948.000000	0.000000	172.000000	64.000000	48.000000	250.000000
0.130000	17.520000	35.450000	948.000000	0.000000	170.000000	63.000000	18.000000	165.000000
0.140000	17.520000	36.540000	924.000000	0.000000	171.000000	62.000000	0.000000	109.000000
0.150000	17.520000	36.540000	912.000000	0.000000	168.000000	60.000000	0.000000	0.000000
0.160000	17.370000	36.060000	908.000000	0.000000	166.000000	59.000000	-15.000000	-48.000000
0.170000	17.200000	35.160000	911.000000	0.000000	165.000000	58.000000	-17.000000	-90.000000
0.180000	16.730000	33.550000	921.000000	0.000000	165.000000	58.000000	-47.000000	-161.000000
0.190000	16.340000	31.890000	930.000000	0.000000	165.000000	58.000000	-39.000000	-166.000000
0.200000	16.000000	30.210000	935.000000	0.000000	167.000000	58.000000	-34.000000	-168.000000
0.210000	15.900000	28.880000	934.000000	0.000000	168.000000	58.000000	-10.000000	-133.000000
0.220000	15.830000	28.050000	940.000000	0.000000	170.000000	60.000000	-7.000000	-83.000000
0.230000	15.890000	27.560000	947.000000	0.000000	171.000000	61.000000	6.000000	-49.000000
0.240000	16.030000	27.560000	959.000000	0.000000	173.000000	62.000000	14.000000	0.000000
0.250000	16.230000	27.760000	965.000000	0.000000	173.000000	62.000000	20.000000	20.000000
0.260000	16.740000	28.200000	967.000000	0.000000	172.000000	63.000000	51.000000	44.000000
0.270000	17.450000	29.210000	964.000000	0.000000	172.000000	63.000000	71.000000	101.000000
0.280000	17.990000	30.380000	942.000000	0.000000	170.000000	63.000000	54.000000	117.000000
0.290000	18.530000	31.670000	912.000000	0.000000	168.000000	63.000000	54.000000	129.000000
0.300000	19.080000	33.320000	899.000000	0.000000	167.000000	61.000000	55.000000	165.000000
0.310000	19.460000	34.220000	900.000000	0.000000	165.000000	61.000000	38.000000	90.000000
0.320000	19.720000	34.610000	882.000000	0.000000	164.000000	60.000000	26.000000	39.000000
0.330000	19.840000	34.610000	869.000000	0.000000	165.000000	59.000000	12.000000	0.000000
0.340000	19.890000	34.210000	870.000000	0.000000	165.000000	59.000000	5.000000	-40.000000
0.350000	19.890000	33.650000	878.000000	0.000000	166.000000	59.000000	0.000000	-56.000000
0.360000	19.760000	32.600000	881.000000	0.000000	167.000000	58.000000	-13.000000	-105.000000
0.370000	19.760000	31.820000	885.000000	0.000000	168.000000	58.000000	0.000000	-78.000000
0.380000	19.840000	31.210000	891.000000	0.000000	168.000000	58.000000	8.000000	-61.000000
0.390000	20.080000	30.950000	894.000000	0.000000	168.000000	58.000000	24.000000	-26.000000
0.400000	20.320000	30.870000	899.000000	0.000000	168.000000	58.000000	24.000000	-8.000000
0.410000	20.580000	30.870000	899.000000	0.000000	168.000000	58.000000	26.000000	0.000000
0.420000	21.000000	31.200000	900.000000	0.000000	167.000000	58.000000	42.000000	33.000000
0.430000	21.520000	31.490000	900.000000	0.000000	167.000000	58.000000	52.000000	29.000000
0.440000	21.770000	31.600000	899.000000	0.000000	168.000000	58.000000	25.000000	11.000000
0.450000	22.020000	31.600000	897.000000	0.000000	169.000000	58.000000	25.000000	0.000000
0.460000	22.130000	31.490000	897.000000	0.000000	169.000000	58.000000	11.000000	-11.000000
0.470000	22.130000	31.350000	897.000000	0.000000	169.000000	58.000000	0.000000	-14.000000
0.480000	22.280000	31.160000	888.000000	0.000000	169.000000	58.000000	15.000000	-19.000000
0.490000	22.400000	31.080000	864.000000	0.000000	169.000000	58.000000	12.000000	-8.000000
0.500000	22.480000	31.080000	719.000000	0.000000	169.000000	58.000000	8.000000	0.000000
0.510000	22.580000	31.140000	315.000000	0.000000	169.000000	58.000000	10.000000	6.000000
0.520000	22.580000	31.140000	0.000000	1.000000	169.000000	58.000000	0.000000	0.000000
0.530000	22.800000	31.650000	0.000000	0.000000	169.000000	58.000000	22.000000	51.000000
0.540000	22.910000	32.150000	0.000000	0.000000	169.000000	58.000000	11.000000	50.000000
0.550000	23.030000	32.660000	0.000000	0.000000	167.000000	57.000000	12.000000	51.000000
0.560000	23.250000	33.190000	0.000000	0.000000	167.000000	57.000000	22.000000	53.000000
0.570000	23.540000	33.640000	0.000000	0.000000	167.000000	57.000000	29.000000	45.000000
0.580000	23.760000	34.080000	0.000000	0.000000	167.000000	57.000000	22.000000	44.000000
0.590000	23.920000	34.470000	0.000000	0.000000	167.000000	57.000000	16.000000	39.000000
0.600000	24.040000	34.740000	0.000000	0.000000	167.000000	57.000000	12.000000	27.000000
0.610000	24.040000	34.740000	0.000000	0.000000	169.000000	57.000000	0.000000	0.000000
0.620000	24.040000	34.740000	254.000000	1.000000	169.000000	58.000000	0.000000	0.000000
0.630000	24.330000	35.310000	522.000000	0.000000	169.000000	58.000000	29.000000	57.000000
0.640000	24.420000	35.520000	687.000000	0.000000	169.000000	58.000000	9.000000	21.000000
0.650000	24.530000	35.600000	820.000000	0.000000	168.000000	58.000000	11.000000	8.000000
0.660000	24.580000	35.650000	881.000000	0.000000	168.000000	58.000000	5.000000	5.000000
0.670000	24.580000	35.650000	894.000000	0.000000	168.000000	58.000000	0.000000	0.000000
0.680000	24.580000	35.650000	899.000000	0.000000	170.000000	60.000000	0.000000	0.000000
0.690000	24.580000	35.650000	861.000000	0.000000	170.000000	60.000000	0.000000	0.000000
0.700000	24.530000	35.650000	762.000000	0.000000	170.000000	60.000000	-5.000000	0.000000
0.710000	24.340000	35.650000	613.000000	0.000000	170.000000	60.000000	-19.000000	0.000000
0.720000	24.040000	35.650000	521.000000	0.000000	170.000000	60.000000	-30.000000	0.000000
0.730000	23.890000	35.560000	440.000000	0.000000	170.000000	60.000000	-15.000000	-9.000000
0.740000	23.760000	35.440000	430.000000	0.000000	170.000000	60.000000	-13.000000	-12.000000
0.750000	23.690000	35.240000	448.000000	0.000000	170.000000	60.000000	-7.000000	-20.000000
0.760000	23.690000	34.980000	510.000000	0.000000	168.000000	59.000000	0.000000	-26.000000
0.770000	23.740000	34.730000	597.000000	0.000000	166.000000	59.000000	5.000000	-25.000000
0.780000	23.740000	34.570000	699.000000	0.000000	166.000000	59.000000	0.000000	-16.000000
0.790000	23.830000	34.460000	760.000000	0.000000	166.000000	59.000000	9.000000	-11.000000
0.800000	23.890000	34.460000	783.000000	0.000000	166.000000	59.000000	6.000000	0.000000
0.810000	23.890000	34.460000	787.000000	0.000000	167.000000	58.000000	0.000000	0.000000
0.820000	24.000000	34.460000	666.000000	0.000000	168.000000	58.000000	11.000000	0.000000
0.830000	24.000000	34.460000	0.000000	1.000000	168.000000	58.000000	0.000000	0.000000
0.840000	24.300000	34.650000	0.000000	0.000000	168.000000	58.000000	30.000000	19.000000
0.850000	24.630000	34.860000	0.000000	0.000000	170.000000	59.000000	33.000000	21.000000
0.860000	25.050000	35.140000	0.000000	0.000000	170.000000	59.000000	42.000000	28.000000
0.870000	25.800000	35.230000	0.000000	0.000000	170.000000	59.000000	75.000000	9.000000
0.880000	26.630000	35.290000	0.000000	0.000000	172.000000	58.000000	83.000000	6.000000
0.890000	27.520000	35.200000	0.000000	0.000000	172.000000	57.000000	89.000000	-9.000000
0.900000	28.080000	35.020000	0.000000	0.000000	171.000000	56.000000	56.000000	-18.000000
0.910000	28.360000	34.850000	0.000000	0.000000	171.000000	55.000000	28.000000	-17.000000
0.920000	28.450000	34.760000	0.000000	0.000000	170.000000	54.000000	9.000000	-9.000000
0.930000	28.230000	34.760000	0.000000	0.000000	171.000000	53.000000	-22.000000	0.000000
0.940000	27.820000	34.760000	0.000000	0.000000	170.000000	52.000000	-41.000000	0.000000
0.950000	27.280000	34.950000	0.000000	0.000000	169.000000	51.000000	-54.000000	19.000000
0.960000	26.860000	35.270000	0.000000	0.000000	167.000000	51.000000	-42.000000	32.000000
0.970000	26.590000	35.860000	0.000000	0.000000	167.000000	51.000000	-27.000000	59.000000
0.980000	26.420000	36.560000	0.000000	0.000000	168.000000	52.000000	-17.000000	70.000000
0.990000	26.420000	36.560000	418.000000	1.000000	169.000000	53.000000	0.000000	0.000000
1.000000	26.340000	37.960000	509.000000	0.000000	169.000000	53.000000	-8.000000	140.000000
1.010000	26.250000	38.550000	605.000000	0.000000	170.000000	55.000000	-9.000000	59.000000
1.020000	26.250000	38.920000	641.000000	0.000000	171.000000	55.000000	0.000000	37.000000
1.030000	26.300000	38.750000	682.000000	0.000000	171.000000	56.000000	5.000000	-17.000000
1.040000	26.300000	38.340000	734.000000	0.000000	173.000000	56.000000	0.000000	-41.000000
1.050000	26.300000	37.020000	808.000000	0.000000	173.000000	56.000000	0.000000	-132.000000
1.060000	26.140000	35.280000	872.000000	0.000000	172.000000	57.000000	-16.000000	-174.000000
1.070000	25.950000	33.260000	912.000000	0.000000	171.000000	57.000000	-19.000000	-202.000000
1.080000	25.580000	31.370000	944.000000	0.000000	172.000000	57.000000	-37.000000	-189.000000
1.090000	25.210000	29.470000	964.000000	0.000000	172.000000	58.000000	-37.000000	-190.000000
1.100000	24.850000	27.800000	976.000000	0.000000	172.000000	58.000000	-36.000000	-167.000000
1.110000	24.470000	26.300000	983.000000	0.000000	172.000000	59.000000	-38.000000	-150.000000
1.120000	24.330000	25.680000	994.000000	0.000000	171.000000	61.000000	-14.000000	-62.000000
1.130000	24.330000	25.420000	978.000000	0.000000	169.000000	62.000000	0.000000	-26.000000
1.140000	24.330000	25.420000	997.000000	0.000000	168.000000	63.000000	0.000000	0.000000
1.150000	24.330000	25.420000	996.000000	0.000000	166.000000	63.000000	0.000000	0.000000
1.160000	24.330000	26.140000	977.000000	0.000000	163.000000	64.000000	0.000000	72.000000
1.170000	24.330000	27.040000	967.000000	0.000000	163.000000	64.000000	0.000000	90.000000
1.180000	24.460000	28.340000	930.000000	0.000000	162.000000	65.000000	13.000000	130.000000
1.190000	24.680000	29.620000	906.000000	0.000000	161.000000	64.000000	22.000000	128.000000
1.200000	25.030000	30.900000	896.000000	0.000000	161.000000	64.000000	35.000000	128.000000
1.210000	25.460000	31.660000	903.000000	0.000000	164.000000	63.000000	43.000000	76.000000
1.220000	25.940000	32.130000	896.000000	0.000000	165.000000	62.000000	48.000000	47.000000
1.230000	26.450000	32.410000	899.000000	0.000000	167.000000	61.000000	51.000000	28.000000
1.240000	27.010000	32.580000	903.000000	0.000000	168.000000	60.000000	56.000000	17.000000
1.250000	27.660000	32.740000	899.000000	0.000000	168.000000	59.000000	65.000000	16.000000
1.260000	28.350000	32.980000	900.000000	0.000000	168.000000	58.000000	69.000000	24.000000
1.270000	28.980000	33.280000	899.000000	0.000000	168.000000	58.000000	63.000000	30.000000
1.280000	29.440000	33.520000	896.000000	0.000000	168.000000	58.000000	46.000000	24.000000
1.290000	29.820000	33.780000	909.000000	0.000000	169.000000	58.000000	38.000000	26.000000
1.300000	29.930000	34.060000	906.000000	0.000000	168.000000	58.000000	11.000000	28.000000
1.310000	29.930000	34.250000	897.000000	0.000000	168.000000	58.000000	0.000000	19.000000
1.320000	29.820000	34.390000	878.000000	0.000000	168.000000	58.000000	-11.000000	14.000000
1.330000	29.520000	34.390000	866.000000	0.000000	167.000000	58.000000	-30.000000	0.000000
1.340000	29.130000	34.170000	864.000000	0.000000	167.000000	58.000000	-39.000000	-22.000000
1.350000	28.680000	33.730000	864.000000	0.000000	167.000000	58.000000	-45.000000	-44.000000
1.360000	28.260000	33.120000	863.000000	0.000000	167.000000	58.000000	-42.000000	-61.000000
1.370000	28.080000	32.650000	861.000000	0.000000	167.000000	58.000000	-18.000000	-47.000000
1.380000	28.080000	32.420000	860.000000	0.000000	167.000000	58.000000	0.000000	-23.000000
1.390000	28.140000	32.300000	867.000000	0.000000	167.000000	58.000000	6.000000	-12.000000
1.400000	28.260000	32.250000	869.000000	0.000000	166.000000	57.000000	12.000000	-5.000000
1.410000	28.460000	32.420000	864.000000	0.000000	166.000000	57.000000	20.000000	17.000000
1.420000	28.770000	32.750000	857.000000	0.000000	166.000000	57.000000	31.000000	33.000000
1.430000	29.150000	33.060000	855.000000	0.000000	166.000000	57.000000	38.000000	31.000000
1.440000	29.520000	33.340000	849.000000	0.000000	166.000000	57.000000	37.000000	28.000000
1.450000	29.890000	33.530000	846.000000	0.000000	166.000000	57.000000	37.000000	19.000000
1.460000	30.200000	33.530000	845.000000	0.000000	167.000000	57.000000	31.000000	0.000000
1.470000	30.470000	33.360000	842.000000	0.000000	167.000000	57.000000	27.000000	-17.000000
1.480000	30.640000	33.140000	839.000000	0.000000	167.000000	57.000000	17.000000	-22.000000
1.490000	30.760000	32.950000	831.000000	0.000000	169.000000	58.000000	12.000000	-19.000000
1.500000	30.840000	32.780000	827.000000	0.000000	169.000000	58.000000	8.000000	-17.000000
1.510000	30.740000	32.630000	828.000000	0.000000	169.000000	58.000000	-10.000000	-15.000000
1.520000	30.550000	32.460000	828.000000	0.000000	170.000000	58.000000	-19.000000	-17.000000
1.530000	30.310000	32.270000	828.000000	0.000000	170.000000	58.000000	-24.000000	-19.000000
1.540000	29.990000	32.140000	836.000000	0.000000	170.000000	58.000000	-32.000000	-13.000000
1.550000	29.800000	32.060000	840.000000	0.000000	170.000000	58.000000	-19.000000	-8.000000
1.560000	29.700000	32.060000	860.000000	0.000000	170.000000	58.000000	-10.000000	0.000000
1.570000	29.700000	32.210000	864.000000	0.000000	170.000000	58.000000	0.000000	15.000000
1.580000	29.700000	32.210000	854.000000	0.000000	170.000000	58.000000	0.000000	0.000000
1.590000	29.800000	32.730000	852.000000	0.000000	170.000000	58.000000	10.000000	52.000000
1.600000	30.020000	32.940000	855.000000	0.000000	169.000000	58.000000	22.000000	21.000000
1.610000	30.250000	33.060000	854.000000	0.000000	169.000000	58.000000	23.000000	12.000000
1.620000	30.510000	33.060000	854.000000	0.000000	169.000000	58.000000	26.000000	0.000000
1.630000	30.810000	33.000000	855.000000	0.000000	170.000000	58.000000	30.000000	-6.000000
1.640000	31.130000	32.870000	857.000000	0.000000	170.000000	58.000000	32.000000	-13.000000
1.650000	31.480000	32.780000	857.000000	0.000000	170.000000	58.000000	35.000000	-9.000000
1.660000	31.850000	32.780000	858.000000	0.000000	170.000000	58.000000	37.000000	0.000000
1.670000	32.200000	32.900000	858.000000	0.000000	172.000000	58.000000	35.000000	12.000000
1.680000	32.480000	33.030000	860.000000	0.000000	172.000000	58.000000	28.000000	13.000000
1.690000	32.760000	33.260000	861.000000	0.000000	172.000000	58.000000	28.000000	23.000000
1.700000	32.910000	33.560000	858.000000	0.000000	172.000000	59.000000	15.000000	30.000000
1.710000	32.960000	33.750000	854.000000	0.000000	172.000000	59.000000	5.000000	19.000000
1.720000	32.960000	33.980000	851.000000	0.000000	172.000000	59.000000	0.000000	23.000000
1.730000	32.750000	34.250000	849.000000	0.000000	172.000000	59.000000	-21.000000	27.000000
1.740000	32.490000	34.250000	846.000000	0.000000	172.000000	59.000000	-26.000000	0.000000
1.750000	32.250000	34.130000	848.000000	0.000000	172.000000	59.000000	-24.000000	-12.000000
1.760000	32.010000	33.960000	848.000000	0.000000	172.000000	59.000000	-24.000000	-17.000000
1.770000	31.950000	33.770000	851.000000	0.000000	172.000000	59.000000	-6.000000	-19.000000
1.780000	32.000000	33.580000	852.000000	0.000000	172.000000	59.000000	5.000000	-19.000000
1.790000	32.160000	33.400000	857.000000	0.000000	172.000000	59.000000	16.000000	-18.000000
1.800000	32.590000	33.230000	854.000000	0.000000	172.000000	59.000000	43.000000	-17.000000
1.810000	33.200000	33.070000	855.000000	0.000000	172.000000	59.000000	61.000000	-16.000000
1.820000	33.870000	32.910000	852.000000	0.000000	173.000000	59.000000	67.000000	-16.000000
1.830000	34.620000	32.640000	852.000000	0.000000	173.000000	59.000000	75.000000	-27.000000
1.840000	35.490000	32.200000	854.000000	0.000000	175.000000	58.000000	87.000000	-44.000000
1.850000	36.560000	31.640000	860.000000	0.000000	175.000000	58.000000	107.000000	-56.000000
1.860000	37.770000	31.120000	864.000000	0.000000	177.000000	58.000000	121.000000	-52.000000
1.870000	38.920000	30.570000	858.000000	0.000000	178.000000	58.000000	115.000000	-55.000000
1.880000	39.890000	30.020000	870.000000	0.000000	178.000000	58.000000	97.000000	-55.000000
1.890000	40.730000	29.680000	873.000000	0.000000	180.000000	58.000000	84.000000	-34.000000
1.900000	40.990000	29.460000	879.000000	0.000000	180.000000	58.000000	26.000000	-22.000000
1.910000	40.880000	29.330000	900.000000	0.000000	180.000000	58.000000	-11.000000	-13.000000
1.920000	40.520000	29.200000	899.000000	0.000000	182.000000	59.000000	-36.000000	-13.000000
1.930000	39.270000	29.060000	923.000000	0.000000	182.000000	59.000000	-125.000000	-14.000000
1.940000	37.270000	28.920000	940.000000	0.000000	182.000000	59.000000	-200.000000	-14.000000
1.950000	34.780000	28.830000	953.000000	0.000000	182.000000	59.000000	-249.000000	-9.000000
1.960000	31.640000	28.770000	967.000000	0.000000	183.000000	59.000000	-314.000000	-6.000000
1.970000	27.780000	28.480000	991.000000	0.000000	182.000000	59.000000	-386.000000	-29.000000
1.980000	23.430000	28.090000	994.000000	0.000000	182.000000	59.000000	-435.000000	-39.000000
1.990000	18.770000	27.630000	981.000000	0.000000	182.000000	59.000000	-466.000000	-46.000000
2.000000	15.590000	27.050000	982.000000	0.000000	182.000000	59.000000	-318.000000	-58.000000
2.010000	13.390000	26.730000	995.000000	0.000000	182.000000	59.000000	-220.000000	-32.000000
2.020000	12.740000	26.590000	933.000000	0.000000	182.000000	59.000000	-65.000000	-14.000000
2.030000	12.680000	26.590000	817.000000	0.000000	182.000000	59.000000	-6.000000	0.000000
2.040000	13.020000	26.690000	452.000000	0.000000	182.000000	60.000000	34.000000	10.000000
2.050000	13.020000	26.690000	0.000000	1.000000	180.000000	60.000000	0.000000	0.000000
2.060000	15.840000	27.210000	0.000000	0.000000	180.000000	60.000000	282.000000	52.000000
2.070000	17.890000	27.700000	0.000000	0.000000	180.000000	60.000000	205.000000	49.000000
2.080000	19.670000	28.270000	0.000000	0.000000	178.000000	60.000000	178.000000	57.000000
2.090000	21.340000	28.730000	0.000000	0.000000	177.000000	60.000000	167.000000	46.000000
2.100000	22.940000	29.180000	0.000000	0.000000	175.000000	60.000000	160.000000	45.000000
2.110000	23.900000	29.610000	0.000000	0.000000	173.000000	60.000000	96.000000	43.000000
2.120000	24.360000	30.030000	0.000000	0.000000	171.000000	60.000000	46.000000	42.000000
2.130000	24.490000	30.440000	0.000000	0.000000	171.000000	60.000000	13.000000	41.000000
2.140000	24.330000	30.850000	0.000000	0.000000	170.000000	59.000000	-16.000000	41.000000
2.150000	24.110000	31.240000	0.000000	0.000000	172.000000	59.000000	-22.000000	39.000000
2.160000	23.860000	31.590000	0.000000	0.000000	172.000000	58.000000	-25.000000	35.000000
2.170000	23.670000	31.760000	0.000000	0.000000	172.000000	58.000000	-19.000000	17.000000
2.180000	23.670000	31.830000	0.000000	0.000000	172.000000	57.000000	0.000000	7.000000
2.190000	23.830000	31.730000	0.000000	0.000000	173.000000	56.000000	16.000000	-10.000000
2.200000	24.170000	31.610000	0.000000	0.000000	173.000000	56.000000	34.000000	-12.000000
