t	x	y	pressure	penup	azimuth	inclination	v_x	v_y
0.000000	84.990000	76.730000	30.000000	1.000000	311.000000	55.000000	0.000000	0.000000
0.010000	85.320000	77.060000	67.000000	0.000000	311.000000	55.000000	33.000000	33.000000
0.020000	85.650000	77.230000	103.000000	0.000000	311.000000	55.000000	33.000000	17.000000
0.030000	86.160000	77.720000	107.000000	0.000000	311.000000	55.000000	51.000000	49.000000
0.040000	86.780000	78.500000	144.000000	0.000000	312.000000	55.000000	62.000000	78.000000
0.050000	87.480000	79.470000	153.000000	0.000000	312.000000	55.000000	70.000000	97.000000
0.060000	88.220000	80.530000	173.000000	0.000000	312.000000	55.000000	74.000000	106.000000
0.070000	88.960000	81.630000	200.000000	0.000000	311.000000	56.000000	74.000000	110.000000
0.080000	89.520000	82.740000	220.000000	0.000000	311.000000	56.000000	56.000000	111.000000
0.090000	89.970000	83.790000	223.000000	0.000000	311.000000	56.000000	45.000000	105.000000
0.100000	90.330000	84.510000	235.000000	0.000000	311.000000	56.000000	36.000000	72.000000
0.110000	90.510000	85.050000	249.000000	0.000000	312.000000	55.000000	18.000000	54.000000
0.120000	90.560000	85.240000	302.000000	0.000000	312.000000	55.000000	5.000000	19.000000
0.130000	90.560000	85.240000	334.000000	0.000000	314.000000	56.000000	0.000000	0.000000
0.140000	90.480000	85.070000	344.000000	0.000000	315.000000	55.000000	-8.000000	-17.000000
0.150000	90.300000	84.680000	339.000000	0.000000	315.000000	55.000000	-18.000000	-39.000000
0.160000	90.030000	83.980000	344.000000	0.000000	315.000000	55.000000	-27.000000	-70.000000
0.170000	89.710000	83.070000	346.000000	0.000000	315.000000	55.000000	-32.000000	-91.000000
0.180000	89.500000	82.130000	344.000000	0.000000	315.000000	55.000000	-21.000000	-94.000000
0.190000	89.370000	81.220000	341.000000	0.000000	315.000000	55.000000	-13.000000	-91.000000
0.200000	89.370000	80.550000	343.000000	0.000000	312.000000	55.000000	0.000000	-67.000000
0.210000	89.510000	80.020000	340.000000	0.000000	312.000000	55.000000	14.000000	-53.000000
0.220000	89.740000	79.880000	319.000000	0.000000	310.000000	55.000000	23.000000	-14.000000
0.230000	90.070000	80.010000	307.000000	0.000000	309.000000	56.000000	33.000000	13.000000
0.240000	90.480000	80.310000	312.000000	0.000000	309.000000	56.000000	41.000000	30.000000
0.250000	90.950000	80.690000	307.000000	0.000000	306.000000	56.000000	47.000000	38.000000
0.260000	91.290000	81.080000	315.000000	0.000000	306.000000	56.000000	34.000000	39.000000
0.270000	91.620000	81.480000	307.000000	0.000000	307.000000	56.000000	33.000000	40.000000
0.280000	91.810000	81.740000	315.000000	0.000000	307.000000	56.000000	19.000000	26.000000
0.290000	91.900000	81.940000	335.000000	0.000000	307.000000	56.000000	9.000000	20.000000
0.300000	91.900000	81.940000	334.000000	0.000000	308.000000	57.000000	0.000000	0.000000
0.310000	91.810000	81.680000	333.000000	0.000000	310.000000	56.000000	-9.000000	-26.000000
0.320000	91.660000	81.320000	349.000000	0.000000	310.000000	56.000000	-15.000000	-36.000000
0.330000	91.460000	80.880000	344.000000	0.000000	310.000000	56.000000	-20.000000	-44.000000
0.340000	91.310000	80.470000	364.000000	0.000000	309.000000	56.000000	-15.000000	-41.000000
0.350000	91.260000	80.080000	363.000000	0.000000	309.000000	56.000000	-5.000000	-39.000000
0.360000	91.260000	79.960000	334.000000	0.000000	309.000000	56.000000	0.000000	-12.000000
0.370000	91.450000	80.020000	289.000000	0.000000	307.000000	56.000000	19.000000	6.000000
0.380000	91.730000	80.200000	240.000000	0.000000	307.000000	56.000000	28.000000	18.000000
0.390000	92.080000	80.520000	222.000000	0.000000	307.000000	56.000000	35.000000	32.000000
0.400000	92.330000	80.780000	207.000000	0.000000	307.000000	56.000000	25.000000	26.000000
0.410000	92.530000	81.000000	235.000000	0.000000	307.000000	56.000000	20.000000	22.000000
0.420000	92.670000	81.000000	279.000000	0.000000	307.000000	56.000000	14.000000	0.000000
0.430000	92.730000	80.860000	307.000000	0.000000	307.000000	56.000000	6.000000	-14.000000
0.440000	92.730000	80.700000	317.000000	0.000000	307.000000	56.000000	0.000000	-16.000000
0.450000	92.790000	80.470000	330.000000	0.000000	307.000000	56.000000	6.000000	-23.000000
0.460000	92.790000	80.270000	315.000000	0.000000	307.000000	56.000000	0.000000	-20.000000
0.470000	92.790000	80.270000	148.000000	0.000000	307.000000	56.000000	0.000000	0.000000
0.480000	92.790000	80.270000	0.000000	1.000000	307.000000	56.000000	0.000000	0.000000
0.490000	92.910000	80.440000	0.000000	0.000000	307.000000	56.000000	12.000000	17.000000
0.500000	93.070000	80.610000	0.000000	0.000000	307.000000	56.000000	16.000000	17.000000
0.510000	93.200000	80.790000	0.000000	0.000000	309.000000	56.000000	13.000000	18.000000
0.520000	93.280000	81.000000	0.000000	0.000000	309.000000	56.000000	8.000000	21.000000
0.530000	93.280000	81.230000	0.000000	0.000000	310.000000	55.000000	0.000000	23.000000
0.540000	93.280000	81.750000	0.000000	0.000000	311.000000	55.000000	0.000000	52.000000
0.550000	93.230000	81.830000	0.000000	0.000000	311.000000	55.000000	-5.000000	8.000000
0.560000	93.230000	81.950000	0.000000	0.000000	313.000000	54.000000	0.000000	12.000000
0.570000	93.230000	82.250000	0.000000	0.000000	314.000000	54.000000	0.000000	30.000000
0.580000	93.230000	82.380000	0.000000	0.000000	315.000000	53.000000	0.000000	13.000000
0.590000	93.280000	82.460000	0.000000	0.000000	315.000000	53.000000	5.000000	8.000000
0.600000	93.280000	82.460000	0.000000	0.000000	316.000000	52.000000	0.000000	0.000000
0.610000	93.350000	82.460000	0.000000	0.000000	316.000000	52.000000	7.000000	0.000000
0.620000	93.350000	82.460000	0.000000	0.000000	316.000000	52.000000	0.000000	0.000000
0.630000	93.440000	82.460000	0.000000	0.000000	316.000000	52.000000	9.000000	0.000000
0.640000	93.440000	82.460000	0.000000	0.000000	316.000000	52.000000	0.000000	0.000000
0.650000	93.500000	82.410000	0.000000	0.000000	316.000000	52.000000	6.000000	-5.000000
0.660000	93.550000	82.410000	0.000000	0.000000	315.000000	53.000000	5.000000	0.000000
0.670000	93.600000	82.340000	0.000000	0.000000	315.000000	53.000000	5.000000	-7.000000
0.680000	93.650000	82.340000	0.000000	0.000000	315.000000	53.000000	5.000000	0.000000
0.690000	93.650000	82.340000	0.000000	0.000000	315.000000	53.000000	0.000000	0.000000
0.700000	93.760000	82.340000	0.000000	0.000000	314.000000	52.000000	11.000000	0.000000
0.710000	93.870000	82.340000	0.000000	0.000000	314.000000	52.000000	11.000000	0.000000
0.720000	94.040000	82.340000	0.000000	0.000000	313.000000	53.000000	17.000000	0.000000
0.730000	94.190000	82.340000	0.000000	0.000000	313.000000	53.000000	15.000000	0.000000
0.740000	94.340000	82.340000	0.000000	0.000000	313.000000	53.000000	15.000000	0.000000
0.750000	94.470000	82.450000	0.000000	0.000000	313.000000	53.000000	13.000000	11.000000
0.760000	94.580000	82.550000	0.000000	0.000000	313.000000	53.000000	11.000000	10.000000
0.770000	94.720000	82.610000	0.000000	0.000000	311.000000	54.000000	14.000000	6.000000
0.780000	94.880000	82.680000	0.000000	0.000000	311.000000	54.000000	16.000000	7.000000
0.790000	94.990000	82.780000	0.000000	0.000000	311.000000	54.000000	11.000000	10.000000
0.800000	95.060000	82.870000	0.000000	0.000000	311.000000	54.000000	7.000000	9.000000
0.810000	95.060000	82.940000	0.000000	0.000000	311.000000	54.000000	0.000000	7.000000
0.820000	94.980000	83.000000	0.000000	0.000000	311.000000	54.000000	-8.000000	6.000000
0.830000	94.860000	83.050000	0.000000	0.000000	311.000000	54.000000	-12.000000	5.000000
0.840000	94.740000	83.100000	0.000000	0.000000	311.000000	54.000000	-12.000000	5.000000
0.850000	94.630000	83.160000	0.000000	0.000000	311.000000	54.000000	-11.000000	6.000000
0.860000	94.520000	83.160000	0.000000	0.000000	310.000000	53.000000	-11.000000	0.000000
0.870000	94.460000	83.250000	0.000000	0.000000	311.000000	52.000000	-6.000000	9.000000
0.880000	94.400000	83.250000	0.000000	0.000000	311.000000	52.000000	-6.000000	0.000000
0.890000	94.340000	83.250000	0.000000	0.000000	311.000000	52.000000	-6.000000	0.000000
0.900000	94.340000	83.250000	0.000000	0.000000	311.000000	52.000000	0.000000	0.000000
0.910000	94.260000	83.170000	0.000000	0.000000	310.000000	52.000000	-8.000000	-8.000000
0.920000	94.260000	83.080000	0.000000	0.000000	310.000000	52.000000	0.000000	-9.000000
0.930000	94.260000	83.000000	0.000000	0.000000	311.000000	52.000000	0.000000	-8.000000
0.940000	94.330000	82.950000	0.000000	0.000000	311.000000	52.000000	7.000000	-5.000000
0.950000	94.330000	82.950000	58.000000	1.000000	311.000000	52.000000	0.000000	0.000000
0.960000	94.330000	82.950000	83.000000	0.000000	311.000000	54.000000	0.000000	0.000000
0.970000	94.760000	82.950000	115.000000	0.000000	311.000000	54.000000	43.000000	0.000000
0.980000	94.910000	83.060000	151.000000	0.000000	311.000000	54.000000	15.000000	11.000000
0.990000	95.030000	83.280000	175.000000	0.000000	311.000000	54.000000	12.000000	22.000000
1.000000	95.030000	83.460000	191.000000	0.000000	311.000000	54.000000	0.000000	18.000000
1.010000	95.030000	83.640000	215.000000	0.000000	310.000000	53.000000	0.000000	18.000000
1.020000	94.930000	83.810000	249.000000	0.000000	310.000000	53.000000	-10.000000	17.000000
1.030000	94.710000	83.960000	247.000000	0.000000	310.000000	53.000000	-22.000000	15.000000
1.040000	94.410000	83.960000	267.000000	0.000000	309.000000	52.000000	-30.000000	0.000000
1.050000	94.120000	83.960000	274.000000	0.000000	309.000000	52.000000	-29.000000	0.000000
1.060000	93.850000	83.880000	273.000000	0.000000	309.000000	52.000000	-27.000000	-8.000000
1.070000	93.690000	83.700000	279.000000	0.000000	308.000000	52.000000	-16.000000	-18.000000
1.080000	93.580000	83.460000	281.000000	0.000000	308.000000	52.000000	-11.000000	-24.000000
1.090000	93.580000	83.210000	281.000000	0.000000	309.000000	52.000000	0.000000	-25.000000
1.100000	93.690000	83.000000	281.000000	0.000000	309.000000	52.000000	11.000000	-21.000000
1.110000	93.840000	82.860000	285.000000	0.000000	309.000000	52.000000	15.000000	-14.000000
1.120000	93.840000	82.860000	267.000000	0.000000	310.000000	53.000000	0.000000	0.000000
1.130000	94.310000	82.860000	264.000000	0.000000	310.000000	53.000000	47.000000	0.000000
1.140000	94.550000	83.040000	269.000000	0.000000	309.000000	53.000000	24.000000	18.000000
1.150000	94.740000	83.130000	289.000000	0.000000	310.000000	54.000000	19.000000	9.000000
1.160000	94.890000	83.180000	339.000000	0.000000	310.000000	54.000000	15.000000	5.000000
1.170000	94.970000	83.180000	386.000000	0.000000	310.000000	54.000000	8.000000	0.000000
1.180000	95.030000	83.230000	402.000000	0.000000	310.000000	54.000000	6.000000	5.000000
1.190000	95.030000	83.230000	410.000000	0.000000	310.000000	54.000000	0.000000	0.000000
1.200000	95.120000	83.180000	412.000000	0.000000	310.000000	54.000000	9.000000	-5.000000
1.210000	95.210000	83.180000	382.000000	0.000000	310.000000	54.000000	9.000000	0.000000
1.220000	95.310000	83.250000	237.000000	0.000000	310.000000	54.000000	10.000000	7.000000
1.230000	95.310000	83.250000	0.000000	1.000000	310.000000	54.000000	0.000000	0.000000
1.240000	95.390000	83.300000	0.000000	0.000000	310.000000	54.000000	8.000000	5.000000
1.250000	95.460000	83.190000	0.000000	0.000000	311.000000	54.000000	7.000000	-11.000000
1.260000	95.460000	82.960000	0.000000	0.000000	311.000000	54.000000	0.000000	-23.000000
1.270000	95.460000	82.830000	0.000000	0.000000	311.000000	54.000000	0.000000	-13.000000
1.280000	95.530000	82.730000	0.000000	0.000000	311.000000	54.000000	7.000000	-10.000000
1.290000	95.530000	82.730000	0.000000	0.000000	311.000000	52.000000	0.000000	0.000000
1.300000	95.640000	82.800000	0.000000	0.000000	311.000000	52.000000	11.000000	7.000000
1.310000	95.720000	82.970000	0.000000	0.000000	313.000000	52.000000	8.000000	17.000000
1.320000	95.860000	83.150000	0.000000	0.000000	313.000000	52.000000	14.000000	18.000000
1.330000	96.030000	83.330000	0.000000	0.000000	312.000000	51.000000	17.000000	18.000000
1.340000	96.230000	83.490000	0.000000	0.000000	313.000000	51.000000	20.000000	16.000000
1.350000	96.480000	83.540000	0.000000	0.000000	312.000000	50.000000	25.000000	5.000000
1.360000	96.750000	83.540000	0.000000	0.000000	312.000000	50.000000	27.000000	0.000000
1.370000	97.120000	83.340000	0.000000	0.000000	312.000000	50.000000	37.000000	-20.000000
1.380000	97.500000	82.960000	0.000000	0.000000	310.000000	50.000000	38.000000	-38.000000
1.390000	97.880000	82.450000	0.000000	0.000000	312.000000	50.000000	38.000000	-51.000000
1.400000	98.200000	82.090000	0.000000	0.000000	310.000000	51.000000	32.000000	-36.000000
1.410000	98.510000	81.770000	0.000000	0.000000	310.000000	51.000000	31.000000	-32.000000
1.420000	98.770000	81.560000	0.000000	0.000000	312.000000	51.000000	26.000000	-21.000000
1.430000	98.980000	81.440000	0.000000	0.000000	311.000000	52.000000	21.000000	-12.000000
1.440000	99.060000	81.440000	0.000000	0.000000	311.000000	52.000000	8.000000	0.000000
1.450000	99.060000	81.510000	0.000000	0.000000	311.000000	54.000000	0.000000	7.000000
1.460000	99.060000	81.510000	0.000000	0.000000	311.000000	54.000000	0.000000	0.000000
1.470000	98.950000	81.510000	0.000000	0.000000	313.000000	54.000000	-11.000000	0.000000
1.480000	98.830000	81.510000	0.000000	0.000000	313.000000	54.000000	-12.000000	0.000000
1.490000	98.690000	81.510000	0.000000	0.000000	313.000000	54.000000	-14.000000	0.000000
1.500000	98.580000	81.510000	0.000000	0.000000	313.000000	54.000000	-11.000000	0.000000
1.510000	98.480000	81.610000	0.000000	0.000000	313.000000	54.000000	-10.000000	10.000000
1.520000	98.350000	81.690000	0.000000	0.000000	313.000000	54.000000	-13.000000	8.000000
1.530000	98.240000	81.740000	0.000000	0.000000	313.000000	54.000000	-11.000000	5.000000
1.540000	98.150000	81.740000	0.000000	0.000000	313.000000	54.000000	-9.000000	0.000000
1.550000	98.060000	81.740000	0.000000	0.000000	313.000000	54.000000	-9.000000	0.000000
1.560000	98.060000	81.740000	0.000000	0.000000	311.000000	54.000000	0.000000	0.000000
1.570000	98.060000	81.740000	0.000000	0.000000	311.000000	54.000000	0.000000	0.000000
1.580000	98.060000	81.850000	0.000000	0.000000	311.000000	54.000000	0.000000	11.000000
1.590000	98.060000	81.970000	0.000000	0.000000	311.000000	54.000000	0.000000	12.000000
1.600000	97.990000	82.100000	0.000000	0.000000	311.000000	54.000000	-7.000000	13.000000
1.610000	97.930000	82.210000	0.000000	0.000000	311.000000	54.000000	-6.000000	11.000000
1.620000	97.850000	82.260000	0.000000	0.000000	311.000000	54.000000	-8.000000	5.000000
1.630000	97.770000	82.260000	0.000000	0.000000	311.000000	54.000000	-8.000000	0.000000
1.640000	97.700000	82.330000	0.000000	0.000000	311.000000	54.000000	-7.000000	7.000000
1.650000	97.630000	82.380000	0.000000	0.000000	311.000000	54.000000	-7.000000	5.000000
1.660000	97.630000	82.440000	0.000000	0.000000	311.000000	54.000000	0.000000	6.000000
1.670000	97.630000	82.490000	0.000000	0.000000	311.000000	54.000000	0.000000	5.000000
1.680000	97.630000	82.540000	0.000000	0.000000	311.000000	54.000000	0.000000	5.000000
1.690000	97.690000	82.540000	0.000000	0.000000	311.000000	54.000000	6.000000	0.000000
1.700000	97.690000	82.630000	0.000000	0.000000	311.000000	54.000000	0.000000	9.000000
1.710000	97.750000	82.690000	0.000000	0.000000	311.000000	54.000000	6.000000	6.000000
1.720000	97.750000	82.690000	0.000000	0.000000	311.000000	54.000000	0.000000	0.000000
1.730000	97.750000	82.620000	0.000000	0.000000	311.000000	54.000000	0.000000	-7.000000
1.740000	97.750000	82.620000	0.000000	0.000000	311.000000	54.000000	0.000000	0.000000
1.750000	97.750000	82.620000	0.000000	0.000000	311.000000	54.000000	0.000000	0.000000
1.760000	97.750000	82.620000	0.000000	0.000000	311.000000	54.000000	0.000000	0.000000
1.770000	97.850000	82.620000	0.000000	0.000000	311.000000	54.000000	10.000000	0.000000
1.780000	97.940000	82.730000	0.000000	0.000000	311.000000	54.000000	9.000000	11.000000
1.790000	98.030000	82.870000	0.000000	0.000000	311.000000	54.000000	9.000000	14.000000
1.800000	98.110000	83.050000	0.000000	0.000000	311.000000	54.000000	8.000000	18.000000
1.810000	98.200000	83.250000	0.000000	0.000000	311.000000	54.000000	9.000000	20.000000
1.820000	98.310000	83.460000	0.000000	0.000000	310.000000	53.000000	11.000000	21.000000
1.830000	98.450000	83.670000	0.000000	0.000000	311.000000	52.000000	14.000000	21.000000
1.840000	98.550000	83.810000	0.000000	0.000000	311.000000	52.000000	10.000000	14.000000
1.850000	98.640000	83.910000	0.000000	0.000000	310.000000	52.000000	9.000000	10.000000
1.860000	98.700000	84.010000	0.000000	0.000000	310.000000	52.000000	6.000000	10.000000
1.870000	98.760000	84.140000	0.000000	0.000000	309.000000	51.000000	6.000000	13.000000
1.880000	98.870000	84.280000	0.000000	0.000000	309.000000	51.000000	11.000000	14.000000
1.890000	99.000000	84.500000	0.000000	0.000000	309.000000	51.000000	13.000000	22.000000
1.900000	99.100000	84.740000	0.000000	0.000000	308.000000	50.000000	10.000000	24.000000
1.910000	99.170000	84.990000	0.000000	0.000000	309.000000	51.000000	7.000000	25.000000
1.920000	99.170000	85.220000	0.000000	0.000000	309.000000	51.000000	0.000000	23.000000
1.930000	99.170000	85.450000	0.000000	0.000000	309.000000	51.000000	0.000000	23.000000
1.940000	99.170000	85.600000	0.000000	0.000000	309.000000	52.000000	0.000000	15.000000
1.950000	99.170000	85.710000	0.000000	0.000000	309.000000	52.000000	0.000000	11.000000
1.960000	99.170000	85.770000	0.000000	0.000000	309.000000	52.000000	0.000000	6.000000
1.970000	99.090000	85.840000	0.000000	0.000000	310.000000	53.000000	-8.000000	7.000000
1.980000	99.030000	85.840000	0.000000	0.000000	310.000000	53.000000	-6.000000	0.000000
1.990000	99.030000	85.840000	73.000000	1.000000	310.000000	53.000000	0.000000	0.000000
2.000000	99.030000	85.840000	125.000000	0.000000	311.000000	54.000000	0.000000	0.000000
2.010000	99.030000	85.840000	188.000000	0.000000	311.000000	54.000000	0.000000	0.000000
2.020000	99.030000	85.840000	247.000000	0.000000	311.000000	54.000000	0.000000	0.000000
2.030000	99.030000	85.840000	267.000000	0.000000	311.000000	54.000000	0.000000	0.000000
2.040000	99.030000	85.840000	284.000000	0.000000	313.000000	54.000000	0.000000	0.000000
2.050000	99.030000	85.840000	294.000000	0.000000	313.000000	54.000000	0.000000	0.000000
2.060000	99.030000	85.840000	299.000000	0.000000	311.000000	55.000000	0.000000	0.000000
2.070000	99.030000	85.840000	304.000000	0.000000	311.000000	55.000000	0.000000	0.000000
2.080000	99.030000	85.840000	302.000000	0.000000	311.000000	55.000000	0.000000	0.000000
2.090000	99.030000	85.840000	302.000000	0.000000	311.000000	55.000000	0.000000	0.000000
2.100000	99.030000	85.840000	279.000000	0.000000	311.000000	55.000000	0.000000	0.000000
2.110000	99.030000	85.840000	255.000000	0.000000	311.000000	55.000000	0.000000	0.000000
2.120000	99.030000	85.840000	233.000000	0.000000	311.000000	55.000000	0.000000	0.000000
2.130000	99.030000	85.840000	176.000000	0.000000	311.000000	55.000000	0.000000	0.000000
2.140000	99.030000	85.840000	122.000000	0.000000	311.000000	55.000000	0.000000	0.000000
2.150000	99.030000	85.840000	54.000000	0.000000	311.000000	55.000000	0.000000	0.000000
2.160000	99.030000	85.840000	0.000000	1.000000	311.000000	55.000000	0.000000	0.000000
2.170000	98.930000	85.580000	0.000000	0.000000	311.000000	55.000000	-10.000000	-26.000000
2.180000	98.930000	85.580000	0.000000	0.000000	311.000000	55.000000	0.000000	0.000000
2.190000	98.930000	85.510000	0.000000	0.000000	311.000000	55.000000	0.000000	-7.000000
2.200000	99.000000	85.510000	0.000000	0.000000	311.000000	55.000000	7.000000	0.000000
2.210000	99.050000	85.510000	0.000000	0.000000	311.000000	55.000000	5.000000	0.000000
2.220000	99.050000	85.510000	0.000000	0.000000	310.000000	54.000000	0.000000	0.000000
2.230000	99.050000	85.450000	0.000000	0.000000	310.000000	54.000000	0.000000	-6.000000
2.240000	99.050000	85.400000	0.000000	0.000000	310.000000	54.000000	0.000000	-5.000000
2.250000	98.990000	85.320000	0.000000	0.000000	310.000000	54.000000	-6.000000	-8.000000
