t	x	y	pressure	penup	azimuth	inclination	v_x	v_y
0.000000	49.540000	43.800000	55.000000	1.000000	109.000000	59.000000	0.000000	0.000000
0.010000	49.650000	44.100000	155.000000	0.000000	108.000000	60.000000	11.000000	30.000000
0.020000	49.710000	44.270000	262.000000	0.000000	108.000000	60.000000	6.000000	17.000000
0.030000	49.760000	44.450000	333.000000	0.000000	108.000000	61.000000	5.000000	18.000000
0.040000	49.890000	44.690000	388.000000	0.000000	108.000000	61.000000	13.000000	24.000000
0.050000	50.050000	44.950000	465.000000	0.000000	109.000000	62.000000	16.000000	26.000000
0.060000	50.300000	45.300000	502.000000	0.000000	107.000000	62.000000	25.000000	35.000000
0.070000	50.590000	45.750000	533.000000	0.000000	107.000000	62.000000	29.000000	45.000000
0.080000	50.980000	46.260000	543.000000	0.000000	107.000000	62.000000	39.000000	51.000000
0.090000	51.440000	46.940000	546.000000	0.000000	109.000000	62.000000	46.000000	68.000000
0.100000	51.970000	47.770000	553.000000	0.000000	109.000000	62.000000	53.000000	83.000000
0.110000	52.550000	48.710000	546.000000	0.000000	111.000000	61.000000	58.000000	94.000000
0.120000	53.070000	49.750000	548.000000	0.000000	114.000000	61.000000	52.000000	104.000000
0.130000	53.520000	50.620000	545.000000	0.000000	116.000000	60.000000	45.000000	87.000000
0.140000	53.840000	51.370000	546.000000	0.000000	119.000000	60.000000	32.000000	75.000000
0.150000	54.020000	51.880000	550.000000	0.000000	122.000000	60.000000	18.000000	51.000000
0.160000	54.100000	52.150000	560.000000	0.000000	125.000000	59.000000	8.000000	27.000000
0.170000	54.100000	52.270000	589.000000	0.000000	127.000000	59.000000	0.000000	12.000000
0.180000	54.010000	52.220000	595.000000	0.000000	129.000000	59.000000	-9.000000	-5.000000
0.190000	53.870000	51.870000	600.000000	0.000000	131.000000	58.000000	-14.000000	-35.000000
0.200000	53.410000	51.320000	611.000000	0.000000	131.000000	58.000000	-46.000000	-55.000000
0.210000	52.890000	50.410000	611.000000	0.000000	132.000000	58.000000	-52.000000	-91.000000
0.220000	52.330000	49.220000	616.000000	0.000000	131.000000	58.000000	-56.000000	-119.000000
0.230000	51.940000	47.840000	603.000000	0.000000	131.000000	58.000000	-39.000000	-138.000000
0.240000	51.560000	46.510000	588.000000	0.000000	129.000000	59.000000	-38.000000	-133.000000
0.250000	51.500000	45.610000	591.000000	0.000000	126.000000	60.000000	-6.000000	-90.000000
0.260000	51.640000	44.990000	574.000000	0.000000	123.000000	61.000000	14.000000	-62.000000
0.270000	51.920000	44.810000	575.000000	0.000000	120.000000	60.000000	28.000000	-18.000000
0.280000	52.310000	44.910000	589.000000	0.000000	117.000000	61.000000	39.000000	10.000000
0.290000	52.770000	45.190000	617.000000	0.000000	115.000000	62.000000	46.000000	28.000000
0.300000	53.180000	45.600000	620.000000	0.000000	114.000000	62.000000	41.000000	41.000000
0.310000	53.530000	46.140000	620.000000	0.000000	112.000000	62.000000	35.000000	54.000000
0.320000	53.840000	46.780000	614.000000	0.000000	112.000000	62.000000	31.000000	64.000000
0.330000	54.210000	47.500000	588.000000	0.000000	112.000000	62.000000	37.000000	72.000000
0.340000	54.560000	48.380000	530.000000	0.000000	114.000000	62.000000	35.000000	88.000000
0.350000	54.910000	49.370000	475.000000	0.000000	116.000000	63.000000	35.000000	99.000000
0.360000	55.120000	49.770000	465.000000	0.000000	118.000000	62.000000	21.000000	40.000000
0.370000	55.240000	49.690000	465.000000	0.000000	122.000000	61.000000	12.000000	-8.000000
0.380000	55.180000	49.290000	510.000000	0.000000	124.000000	62.000000	-6.000000	-40.000000
0.390000	54.900000	48.520000	540.000000	0.000000	126.000000	61.000000	-28.000000	-77.000000
0.400000	54.470000	47.640000	561.000000	0.000000	126.000000	61.000000	-43.000000	-88.000000
0.410000	54.070000	46.690000	580.000000	0.000000	126.000000	61.000000	-40.000000	-95.000000
0.420000	53.680000	46.040000	578.000000	0.000000	126.000000	61.000000	-39.000000	-65.000000
0.430000	53.540000	45.670000	567.000000	0.000000	124.000000	62.000000	-14.000000	-37.000000
0.440000	53.540000	45.500000	551.000000	0.000000	123.000000	62.000000	0.000000	-17.000000
0.450000	53.800000	45.500000	527.000000	0.000000	121.000000	63.000000	26.000000	0.000000
0.460000	54.090000	45.690000	515.000000	0.000000	118.000000	62.000000	29.000000	19.000000
0.470000	54.690000	46.050000	515.000000	0.000000	116.000000	63.000000	60.000000	36.000000
0.480000	55.490000	46.750000	512.000000	0.000000	116.000000	63.000000	80.000000	70.000000
0.490000	56.190000	47.470000	519.000000	0.000000	117.000000	63.000000	70.000000	72.000000
0.500000	56.780000	48.210000	517.000000	0.000000	117.000000	63.000000	59.000000	74.000000
0.510000	57.300000	48.920000	517.000000	0.000000	119.000000	63.000000	52.000000	71.000000
0.520000	57.470000	49.130000	513.000000	0.000000	122.000000	63.000000	17.000000	21.000000
0.530000	57.380000	49.020000	524.000000	0.000000	125.000000	64.000000	-9.000000	-11.000000
0.540000	57.120000	48.560000	540.000000	0.000000	129.000000	64.000000	-26.000000	-46.000000
0.550000	56.700000	47.820000	540.000000	0.000000	130.000000	63.000000	-42.000000	-74.000000
0.560000	56.300000	46.890000	526.000000	0.000000	132.000000	64.000000	-40.000000	-93.000000
0.570000	55.960000	46.220000	237.000000	0.000000	132.000000	64.000000	-34.000000	-67.000000
0.580000	55.960000	46.220000	0.000000	1.000000	132.000000	64.000000	0.000000	0.000000
0.590000	56.180000	46.090000	0.000000	0.000000	130.000000	65.000000	22.000000	-13.000000
0.600000	56.510000	46.350000	0.000000	0.000000	128.000000	65.000000	33.000000	26.000000
0.610000	57.070000	46.800000	0.000000	0.000000	125.000000	65.000000	56.000000	45.000000
0.620000	57.780000	47.370000	0.000000	0.000000	125.000000	65.000000	71.000000	57.000000
0.630000	58.420000	47.960000	0.000000	0.000000	124.000000	64.000000	64.000000	59.000000
0.640000	58.890000	48.380000	0.000000	0.000000	124.000000	64.000000	47.000000	42.000000
0.650000	59.240000	48.690000	0.000000	0.000000	122.000000	63.000000	35.000000	31.000000
0.660000	59.590000	48.740000	0.000000	0.000000	123.000000	62.000000	35.000000	5.000000
0.670000	59.880000	48.740000	0.000000	0.000000	122.000000	61.000000	29.000000	0.000000
0.680000	60.120000	48.740000	0.000000	0.000000	120.000000	60.000000	24.000000	0.000000
0.690000	60.270000	48.680000	0.000000	0.000000	119.000000	60.000000	15.000000	-6.000000
0.700000	60.270000	48.620000	0.000000	0.000000	118.000000	59.000000	0.000000	-6.000000
0.710000	60.270000	48.670000	0.000000	0.000000	118.000000	59.000000	0.000000	5.000000
0.720000	60.220000	48.800000	0.000000	0.000000	117.000000	58.000000	-5.000000	13.000000
0.730000	60.090000	48.920000	0.000000	0.000000	118.000000	59.000000	-13.000000	12.000000
0.740000	59.900000	49.030000	0.000000	0.000000	118.000000	59.000000	-19.000000	11.000000
0.750000	59.750000	49.080000	0.000000	0.000000	119.000000	60.000000	-15.000000	5.000000
0.760000	59.620000	49.080000	0.000000	0.000000	119.000000	60.000000	-13.000000	0.000000
0.770000	59.550000	49.080000	0.000000	0.000000	122.000000	60.000000	-7.000000	0.000000
0.780000	59.550000	49.140000	0.000000	0.000000	123.000000	61.000000	0.000000	6.000000
0.790000	59.480000	49.260000	0.000000	0.000000	123.000000	61.000000	-7.000000	12.000000
0.800000	59.410000	49.260000	0.000000	0.000000	126.000000	61.000000	-7.000000	0.000000
0.810000	59.320000	49.260000	0.000000	0.000000	126.000000	61.000000	-9.000000	0.000000
0.820000	59.220000	49.170000	0.000000	0.000000	127.000000	62.000000	-10.000000	-9.000000
0.830000	59.100000	49.110000	0.000000	0.000000	127.000000	62.000000	-12.000000	-6.000000
0.840000	58.950000	49.040000	0.000000	0.000000	127.000000	62.000000	-15.000000	-7.000000
0.850000	58.780000	48.950000	0.000000	0.000000	127.000000	62.000000	-17.000000	-9.000000
0.860000	58.660000	48.880000	0.000000	0.000000	127.000000	62.000000	-12.000000	-7.000000
0.870000	58.550000	48.810000	0.000000	0.000000	129.000000	61.000000	-11.000000	-7.000000
0.880000	58.550000	48.810000	58.000000	1.000000	129.000000	61.000000	0.000000	0.000000
0.890000	58.350000	48.710000	149.000000	0.000000	129.000000	61.000000	-20.000000	-10.000000
0.900000	58.230000	48.650000	223.000000	0.000000	129.000000	61.000000	-12.000000	-6.000000
0.910000	58.160000	48.650000	281.000000	0.000000	129.000000	61.000000	-7.000000	0.000000
0.920000	58.160000	48.570000	304.000000	0.000000	129.000000	61.000000	0.000000	-8.000000
0.930000	58.160000	48.570000	334.000000	0.000000	129.000000	61.000000	0.000000	0.000000
0.940000	58.230000	48.570000	359.000000	0.000000	127.000000	62.000000	7.000000	0.000000
0.950000	58.390000	48.490000	369.000000	0.000000	127.000000	62.000000	16.000000	-8.000000
0.960000	58.620000	48.490000	366.000000	0.000000	127.000000	62.000000	23.000000	0.000000
0.970000	58.890000	48.490000	339.000000	0.000000	129.000000	63.000000	27.000000	0.000000
0.980000	59.150000	48.490000	251.000000	0.000000	129.000000	63.000000	26.000000	0.000000
0.990000	59.380000	48.570000	34.000000	0.000000	129.000000	63.000000	23.000000	8.000000
1.000000	59.380000	48.570000	0.000000	1.000000	130.000000	63.000000	0.000000	0.000000
1.010000	59.810000	48.960000	0.000000	0.000000	132.000000	63.000000	43.000000	39.000000
1.020000	59.960000	49.250000	0.000000	0.000000	133.000000	63.000000	15.000000	29.000000
1.030000	60.080000	49.570000	0.000000	0.000000	133.000000	63.000000	12.000000	32.000000
1.040000	60.200000	49.920000	0.000000	0.000000	133.000000	63.000000	12.000000	35.000000
1.050000	60.310000	50.270000	0.000000	0.000000	133.000000	63.000000	11.000000	35.000000
1.060000	60.420000	50.610000	0.000000	0.000000	133.000000	63.000000	11.000000	34.000000
1.070000	60.420000	50.830000	0.000000	0.000000	135.000000	63.000000	0.000000	22.000000
1.080000	60.370000	50.980000	0.000000	0.000000	135.000000	63.000000	-5.000000	15.000000
1.090000	60.370000	50.980000	155.000000	1.000000	137.000000	62.000000	0.000000	0.000000
1.100000	60.050000	51.040000	253.000000	0.000000	137.000000	62.000000	-32.000000	6.000000
1.110000	59.860000	51.090000	348.000000	0.000000	137.000000	62.000000	-19.000000	5.000000
1.120000	59.660000	51.090000	394.000000	0.000000	140.000000	62.000000	-20.000000	0.000000
1.130000	59.450000	51.090000	400.000000	0.000000	140.000000	62.000000	-21.000000	0.000000
1.140000	59.210000	51.020000	425.000000	0.000000	140.000000	62.000000	-24.000000	-7.000000
1.150000	59.000000	50.880000	418.000000	0.000000	140.000000	62.000000	-21.000000	-14.000000
1.160000	58.840000	50.590000	418.000000	0.000000	140.000000	62.000000	-16.000000	-29.000000
1.170000	58.720000	50.200000	418.000000	0.000000	140.000000	62.000000	-12.000000	-39.000000
1.180000	58.720000	49.920000	414.000000	0.000000	140.000000	62.000000	0.000000	-28.000000
1.190000	58.770000	49.750000	412.000000	0.000000	138.000000	61.000000	5.000000	-17.000000
1.200000	58.910000	49.660000	400.000000	0.000000	137.000000	62.000000	14.000000	-9.000000
1.210000	59.100000	49.660000	402.000000	0.000000	137.000000	62.000000	19.000000	0.000000
1.220000	59.320000	49.740000	407.000000	0.000000	137.000000	62.000000	22.000000	8.000000
1.230000	59.570000	49.860000	407.000000	0.000000	137.000000	62.000000	25.000000	12.000000
1.240000	59.710000	50.010000	405.000000	0.000000	137.000000	62.000000	14.000000	15.000000
1.250000	59.780000	50.150000	409.000000	0.000000	138.000000	63.000000	7.000000	14.000000
1.260000	59.780000	50.250000	410.000000	0.000000	138.000000	63.000000	0.000000	10.000000
1.270000	59.780000	50.300000	407.000000	0.000000	138.000000	63.000000	0.000000	5.000000
1.280000	59.780000	50.300000	402.000000	0.000000	138.000000	63.000000	0.000000	0.000000
1.290000	59.780000	50.300000	397.000000	0.000000	138.000000	63.000000	0.000000	0.000000
1.300000	59.730000	50.120000	369.000000	0.000000	138.000000	63.000000	-5.000000	-18.000000
1.310000	59.650000	49.890000	244.000000	0.000000	138.000000	63.000000	-8.000000	-23.000000
1.320000	59.650000	49.890000	0.000000	1.000000	138.000000	63.000000	0.000000	0.000000
1.330000	59.800000	49.660000	0.000000	0.000000	138.000000	63.000000	15.000000	-23.000000
1.340000	59.940000	49.660000	0.000000	0.000000	138.000000	63.000000	14.000000	0.000000
1.350000	60.140000	49.660000	0.000000	0.000000	138.000000	63.000000	20.000000	0.000000
1.360000	60.400000	49.740000	0.000000	0.000000	138.000000	63.000000	26.000000	8.000000
1.370000	60.810000	49.850000	0.000000	0.000000	137.000000	62.000000	41.000000	11.000000
1.380000	61.300000	49.920000	0.000000	0.000000	137.000000	62.000000	49.000000	7.000000
1.390000	61.790000	49.980000	0.000000	0.000000	135.000000	62.000000	49.000000	6.000000
1.400000	62.180000	49.980000	0.000000	0.000000	135.000000	62.000000	39.000000	0.000000
1.410000	62.490000	49.980000	0.000000	0.000000	135.000000	62.000000	31.000000	0.000000
1.420000	62.560000	49.790000	0.000000	0.000000	134.000000	61.000000	7.000000	-19.000000
1.430000	62.560000	49.530000	0.000000	0.000000	132.000000	61.000000	0.000000	-26.000000
1.440000	62.560000	49.230000	0.000000	0.000000	132.000000	61.000000	0.000000	-30.000000
1.450000	62.500000	48.960000	0.000000	0.000000	132.000000	61.000000	-6.000000	-27.000000
1.460000	62.500000	48.770000	0.000000	0.000000	132.000000	61.000000	0.000000	-19.000000
1.470000	62.500000	48.630000	0.000000	0.000000	132.000000	61.000000	0.000000	-14.000000
1.480000	62.420000	48.500000	0.000000	0.000000	132.000000	61.000000	-8.000000	-13.000000
1.490000	62.360000	48.430000	0.000000	0.000000	130.000000	62.000000	-6.000000	-7.000000
1.500000	62.310000	48.430000	0.000000	0.000000	130.000000	62.000000	-5.000000	0.000000
1.510000	62.310000	48.430000	0.000000	0.000000	130.000000	62.000000	0.000000	0.000000
1.520000	62.250000	48.430000	0.000000	0.000000	130.000000	62.000000	-6.000000	0.000000
1.530000	62.250000	48.550000	0.000000	0.000000	130.000000	62.000000	0.000000	12.000000
1.540000	62.250000	48.660000	0.000000	0.000000	130.000000	62.000000	0.000000	11.000000
1.550000	62.250000	48.820000	0.000000	0.000000	130.000000	62.000000	0.000000	16.000000
1.560000	62.250000	49.020000	0.000000	0.000000	132.000000	63.000000	0.000000	20.000000
1.570000	62.250000	49.220000	0.000000	0.000000	132.000000	63.000000	0.000000	20.000000
1.580000	62.250000	49.420000	0.000000	0.000000	133.000000	62.000000	0.000000	20.000000
1.590000	62.250000	49.600000	0.000000	0.000000	133.000000	62.000000	0.000000	18.000000
1.600000	62.320000	49.790000	0.000000	0.000000	133.000000	62.000000	7.000000	19.000000
1.610000	62.380000	49.980000	0.000000	0.000000	135.000000	62.000000	6.000000	19.000000
1.620000	62.450000	50.180000	0.000000	0.000000	135.000000	62.000000	7.000000	20.000000
1.630000	62.520000	50.380000	0.000000	0.000000	135.000000	62.000000	7.000000	20.000000
1.640000	62.520000	50.380000	93.000000	1.000000	136.000000	61.000000	0.000000	0.000000
1.650000	62.600000	50.740000	180.000000	0.000000	138.000000	61.000000	8.000000	36.000000
1.660000	62.600000	50.890000	259.000000	0.000000	138.000000	61.000000	0.000000	15.000000
1.670000	62.680000	51.000000	339.000000	0.000000	139.000000	61.000000	8.000000	11.000000
1.680000	62.740000	51.000000	391.000000	0.000000	139.000000	61.000000	6.000000	0.000000
1.690000	62.740000	51.050000	414.000000	0.000000	139.000000	61.000000	0.000000	5.000000
1.700000	62.740000	51.050000	461.000000	0.000000	139.000000	61.000000	0.000000	0.000000
1.710000	62.670000	50.710000	516.000000	0.000000	139.000000	61.000000	-7.000000	-34.000000
1.720000	62.440000	50.200000	560.000000	0.000000	141.000000	61.000000	-23.000000	-51.000000
1.730000	62.090000	49.010000	592.000000	0.000000	141.000000	61.000000	-35.000000	-119.000000
1.740000	61.570000	47.540000	644.000000	0.000000	140.000000	62.000000	-52.000000	-147.000000
1.750000	61.010000	45.880000	670.000000	0.000000	138.000000	63.000000	-56.000000	-166.000000
1.760000	60.410000	44.400000	684.000000	0.000000	137.000000	63.000000	-60.000000	-148.000000
1.770000	59.940000	43.380000	690.000000	0.000000	135.000000	64.000000	-47.000000	-102.000000
1.780000	59.600000	42.670000	675.000000	0.000000	133.000000	65.000000	-34.000000	-71.000000
1.790000	59.350000	42.490000	610.000000	0.000000	130.000000	66.000000	-25.000000	-18.000000
1.800000	59.530000	42.640000	495.000000	0.000000	128.000000	66.000000	18.000000	15.000000
1.810000	59.800000	43.020000	1.000000	1.000000	124.000000	66.000000	0.000000	0.000000
1.820000	59.800000	43.020000	0.000000	0.000000	122.000000	67.000000	0.000000	0.000000
1.830000	60.490000	45.270000	0.000000	0.000000	121.000000	66.000000	69.000000	225.000000
1.840000	60.860000	46.600000	0.000000	0.000000	121.000000	66.000000	37.000000	133.000000
1.850000	61.540000	48.190000	0.000000	0.000000	120.000000	65.000000	68.000000	159.000000
1.860000	62.420000	49.600000	0.000000	0.000000	122.000000	65.000000	88.000000	141.000000
1.870000	63.670000	50.880000	0.000000	0.000000	124.000000	64.000000	125.000000	128.000000
1.880000	64.690000	51.070000	0.000000	0.000000	124.000000	63.000000	102.000000	19.000000
1.890000	65.560000	50.790000	0.000000	0.000000	127.000000	62.000000	87.000000	-28.000000
1.900000	66.090000	50.210000	0.000000	0.000000	129.000000	61.000000	53.000000	-58.000000
1.910000	66.220000	49.900000	0.000000	0.000000	131.000000	61.000000	13.000000	-31.000000
1.920000	66.070000	49.420000	0.000000	0.000000	131.000000	61.000000	-15.000000	-48.000000
1.930000	65.630000	48.840000	0.000000	0.000000	131.000000	61.000000	-44.000000	-58.000000
1.940000	65.180000	48.360000	0.000000	0.000000	131.000000	61.000000	-45.000000	-48.000000
1.950000	64.720000	48.060000	0.000000	0.000000	131.000000	61.000000	-46.000000	-30.000000
1.960000	64.430000	47.870000	0.000000	0.000000	131.000000	61.000000	-29.000000	-19.000000
1.970000	64.160000	47.870000	0.000000	0.000000	129.000000	60.000000	-27.000000	0.000000
1.980000	63.950000	47.780000	0.000000	0.000000	131.000000	60.000000	-21.000000	-9.000000
1.990000	63.830000	47.730000	0.000000	0.000000	129.000000	59.000000	-12.000000	-5.000000
2.000000	63.830000	47.730000	0.000000	0.000000	131.000000	58.000000	0.000000	0.000000
2.010000	63.830000	47.730000	0.000000	0.000000	131.000000	57.000000	0.000000	0.000000
2.020000	63.890000	47.880000	0.000000	0.000000	131.000000	57.000000	6.000000	15.000000
2.030000	63.970000	48.020000	0.000000	0.000000	131.000000	57.000000	8.000000	14.000000
2.040000	64.060000	48.200000	0.000000	0.000000	131.000000	57.000000	9.000000	18.000000
2.050000	64.160000	48.410000	0.000000	0.000000	130.000000	58.000000	10.000000	21.000000
2.060000	64.210000	48.560000	0.000000	0.000000	128.000000	59.000000	5.000000	15.000000
2.070000	64.210000	48.680000	0.000000	0.000000	126.000000	60.000000	0.000000	12.000000
2.080000	64.210000	48.760000	0.000000	0.000000	126.000000	60.000000	0.000000	8.000000
2.090000	64.100000	48.760000	0.000000	0.000000	126.000000	61.000000	-11.000000	0.000000
2.100000	63.980000	48.700000	0.000000	0.000000	126.000000	61.000000	-12.000000	-6.000000
2.110000	63.800000	48.600000	0.000000	0.000000	126.000000	61.000000	-18.000000	-10.000000
2.120000	63.630000	48.500000	0.000000	0.000000	127.000000	62.000000	-17.000000	-10.000000
2.130000	63.460000	48.380000	0.000000	0.000000	127.000000	62.000000	-17.000000	-12.000000
2.140000	63.460000	48.260000	0.000000	0.000000	127.000000	62.000000	0.000000	-12.000000
2.150000	63.460000	48.150000	0.000000	0.000000	127.000000	62.000000	0.000000	-11.000000
2.160000	63.460000	48.050000	0.000000	0.000000	127.000000	62.000000	0.000000	-10.000000
2.170000	63.460000	47.900000	0.000000	0.000000	127.000000	62.000000	0.000000	-15.000000
2.180000	63.460000	47.750000	0.000000	0.000000	127.000000	62.000000	0.000000	-15.000000
2.190000	63.460000	47.580000	0.000000	0.000000	127.000000	62.000000	0.000000	-17.000000
2.200000	63.370000	47.480000	0.000000	0.000000	127.000000	62.000000	-9.000000	-10.000000
2.210000	63.300000	47.420000	0.000000	0.000000	127.000000	62.000000	-7.000000	-6.000000
2.220000	63.230000	47.420000	0.000000	0.000000	127.000000	62.000000	-7.000000	0.000000
2.230000	63.230000	47.420000	0.000000	0.000000	126.000000	61.000000	0.000000	0.000000
