t	x	y	pressure	penup	azimuth	inclination	v_x	v_y
0.000000	17.230000	13.370000	141.000000	1.000000	176.000000	54.000000	0.000000	0.000000
0.010000	17.190000	14.250000	309.000000	0.000000	176.000000	54.000000	-4.000000	88.000000
0.020000	16.990000	14.760000	354.000000	0.000000	177.000000	55.000000	-20.000000	51.000000
0.030000	16.620000	15.310000	436.000000	0.000000	180.000000	55.000000	-37.000000	55.000000
0.040000	16.200000	15.800000	554.000000	0.000000	181.000000	55.000000	-42.000000	49.000000
0.050000	15.670000	16.240000	617.000000	0.000000	184.000000	55.000000	-53.000000	44.000000
0.060000	15.270000	16.490000	690.000000	0.000000	187.000000	55.000000	-40.000000	25.000000
0.070000	14.970000	16.630000	733.000000	0.000000	190.000000	55.000000	-30.000000	14.000000
0.080000	14.920000	16.580000	736.000000	0.000000	191.000000	53.000000	-5.000000	-5.000000
0.090000	14.920000	16.480000	787.000000	0.000000	192.000000	53.000000	0.000000	-10.000000
0.100000	15.060000	15.640000	822.000000	0.000000	195.000000	53.000000	14.000000	-84.000000
0.110000	15.460000	14.330000	861.000000	0.000000	195.000000	53.000000	40.000000	-131.000000
0.120000	16.370000	12.670000	878.000000	0.000000	195.000000	53.000000	91.000000	-166.000000
0.130000	17.620000	11.020000	924.000000	0.000000	196.000000	54.000000	125.000000	-165.000000
0.140000	19.180000	9.380000	946.000000	0.000000	193.000000	55.000000	156.000000	-164.000000
0.150000	20.990000	8.180000	991.000000	0.000000	192.000000	56.000000	181.000000	-120.000000
0.160000	22.970000	7.260000	982.000000	0.000000	191.000000	58.000000	198.000000	-92.000000
0.170000	25.010000	6.530000	1003.000000	0.000000	188.000000	59.000000	204.000000	-73.000000
0.180000	26.900000	6.160000	1002.000000	0.000000	187.000000	60.000000	189.000000	-37.000000
0.190000	28.680000	6.020000	991.000000	0.000000	184.000000	61.000000	178.000000	-14.000000
0.200000	29.670000	6.020000	992.000000	0.000000	182.000000	61.000000	99.000000	0.000000
0.210000	29.980000	6.320000	947.000000	0.000000	180.000000	62.000000	31.000000	30.000000
0.220000	29.840000	6.940000	905.000000	0.000000	180.000000	62.000000	-14.000000	62.000000
0.230000	28.940000	7.790000	854.000000	0.000000	180.000000	63.000000	-90.000000	85.000000
0.240000	27.070000	8.850000	808.000000	0.000000	178.000000	63.000000	-187.000000	106.000000
0.250000	24.560000	9.840000	827.000000	0.000000	178.000000	64.000000	-251.000000	99.000000
0.260000	21.590000	10.780000	825.000000	0.000000	178.000000	64.000000	-297.000000	94.000000
0.270000	18.480000	11.040000	843.000000	0.000000	180.000000	64.000000	-311.000000	26.000000
0.280000	15.270000	10.920000	884.000000	0.000000	180.000000	63.000000	-321.000000	-12.000000
0.290000	12.490000	10.560000	909.000000	0.000000	184.000000	62.000000	-278.000000	-36.000000
0.300000	10.460000	10.060000	949.000000	0.000000	187.000000	61.000000	-203.000000	-50.000000
0.310000	8.940000	9.560000	995.000000	0.000000	190.000000	59.000000	-152.000000	-50.000000
0.320000	8.670000	9.270000	1023.000000	0.000000	193.000000	57.000000	-27.000000	-29.000000
0.330000	9.350000	9.130000	1023.000000	0.000000	193.000000	55.000000	68.000000	-14.000000
0.340000	10.650000	8.930000	1023.000000	0.000000	196.000000	54.000000	130.000000	-20.000000
0.350000	13.450000	9.250000	1023.000000	0.000000	197.000000	54.000000	280.000000	32.000000
0.360000	17.290000	9.930000	1023.000000	0.000000	197.000000	54.000000	384.000000	68.000000
0.370000	21.820000	10.910000	1023.000000	0.000000	196.000000	55.000000	453.000000	98.000000
0.380000	26.520000	12.120000	1023.000000	0.000000	196.000000	57.000000	470.000000	121.000000
0.390000	30.800000	13.480000	1003.000000	0.000000	193.000000	58.000000	428.000000	136.000000
0.400000	34.810000	14.490000	941.000000	0.000000	192.000000	60.000000	401.000000	101.000000
0.410000	37.840000	15.150000	861.000000	0.000000	190.000000	63.000000	303.000000	66.000000
0.420000	39.570000	15.570000	728.000000	0.000000	186.000000	65.000000	173.000000	42.000000
0.430000	40.420000	15.660000	502.000000	0.000000	185.000000	67.000000	85.000000	9.000000
0.440000	40.490000	15.660000	198.000000	0.000000	182.000000	68.000000	7.000000	0.000000
0.450000	40.490000	15.660000	0.000000	1.000000	182.000000	68.000000	0.000000	0.000000
0.460000	39.130000	15.520000	0.000000	0.000000	182.000000	68.000000	-136.000000	-14.000000
0.470000	37.600000	15.190000	0.000000	0.000000	182.000000	68.000000	-153.000000	-33.000000
0.480000	35.670000	14.730000	0.000000	0.000000	182.000000	67.000000	-193.000000	-46.000000
0.490000	33.470000	14.190000	0.000000	0.000000	182.000000	66.000000	-220.000000	-54.000000
0.500000	31.190000	13.650000	0.000000	0.000000	182.000000	65.000000	-228.000000	-54.000000
0.510000	28.970000	13.120000	0.000000	0.000000	182.000000	64.000000	-222.000000	-53.000000
0.520000	26.790000	12.650000	0.000000	0.000000	182.000000	63.000000	-218.000000	-47.000000
0.530000	24.930000	12.310000	0.000000	0.000000	182.000000	62.000000	-186.000000	-34.000000
0.540000	23.450000	12.070000	0.000000	0.000000	182.000000	61.000000	-148.000000	-24.000000
0.550000	22.230000	11.910000	0.000000	0.000000	182.000000	60.000000	-122.000000	-16.000000
0.560000	21.340000	11.910000	0.000000	0.000000	182.000000	59.000000	-89.000000	0.000000
0.570000	20.810000	11.960000	0.000000	0.000000	182.000000	58.000000	-53.000000	5.000000
0.580000	20.530000	12.120000	0.000000	0.000000	182.000000	57.000000	-28.000000	16.000000
0.590000	20.530000	12.190000	0.000000	0.000000	182.000000	57.000000	0.000000	7.000000
0.600000	20.530000	12.190000	0.000000	0.000000	182.000000	57.000000	0.000000	0.000000
0.610000	20.530000	12.190000	0.000000	0.000000	183.000000	56.000000	0.000000	0.000000
0.620000	20.600000	12.240000	0.000000	0.000000	181.000000	56.000000	7.000000	5.000000
0.630000	20.690000	12.240000	0.000000	0.000000	181.000000	56.000000	9.000000	0.000000
0.640000	20.740000	12.240000	0.000000	0.000000	181.000000	56.000000	5.000000	0.000000
0.650000	20.740000	12.240000	0.000000	0.000000	181.000000	56.000000	0.000000	0.000000
0.660000	20.790000	12.290000	0.000000	0.000000	181.000000	56.000000	5.000000	5.000000
0.670000	20.790000	12.290000	0.000000	0.000000	181.000000	56.000000	0.000000	0.000000
0.680000	20.900000	12.340000	0.000000	0.000000	181.000000	56.000000	11.000000	5.000000
0.690000	21.040000	12.340000	0.000000	0.000000	182.000000	57.000000	14.000000	0.000000
0.700000	21.200000	12.340000	0.000000	0.000000	182.000000	57.000000	16.000000	0.000000
0.710000	21.430000	12.480000	0.000000	0.000000	182.000000	57.000000	23.000000	14.000000
0.720000	21.430000	12.480000	46.000000	1.000000	183.000000	58.000000	0.000000	0.000000
0.730000	21.960000	12.680000	50.000000	0.000000	183.000000	59.000000	53.000000	20.000000
0.740000	22.200000	12.870000	131.000000	0.000000	183.000000	59.000000	24.000000	19.000000
0.750000	22.370000	13.070000	241.000000	0.000000	183.000000	60.000000	17.000000	20.000000
0.760000	22.510000	13.260000	307.000000	0.000000	183.000000	60.000000	14.000000	19.000000
0.770000	22.510000	13.420000	371.000000	0.000000	183.000000	60.000000	0.000000	16.000000
0.780000	22.330000	13.530000	439.000000	0.000000	182.000000	60.000000	-18.000000	11.000000
0.790000	22.010000	13.600000	491.000000	0.000000	182.000000	60.000000	-32.000000	7.000000
0.800000	21.670000	13.600000	544.000000	0.000000	182.000000	60.000000	-34.000000	0.000000
0.810000	21.340000	13.500000	561.000000	0.000000	182.000000	60.000000	-33.000000	-10.000000
0.820000	21.120000	13.230000	595.000000	0.000000	182.000000	60.000000	-22.000000	-27.000000
0.830000	20.940000	12.850000	627.000000	0.000000	183.000000	60.000000	-18.000000	-38.000000
0.840000	20.940000	12.480000	649.000000	0.000000	183.000000	60.000000	0.000000	-37.000000
0.850000	21.000000	12.120000	669.000000	0.000000	183.000000	60.000000	6.000000	-36.000000
0.860000	21.170000	11.830000	696.000000	0.000000	184.000000	61.000000	17.000000	-29.000000
0.870000	21.500000	11.570000	705.000000	0.000000	184.000000	61.000000	33.000000	-26.000000
0.880000	21.890000	11.570000	733.000000	0.000000	184.000000	61.000000	39.000000	0.000000
0.890000	22.330000	11.720000	725.000000	0.000000	184.000000	62.000000	44.000000	15.000000
0.900000	22.680000	11.950000	734.000000	0.000000	182.000000	62.000000	35.000000	23.000000
0.910000	22.790000	12.090000	751.000000	0.000000	182.000000	62.000000	11.000000	14.000000
0.920000	22.740000	12.180000	724.000000	0.000000	182.000000	63.000000	-5.000000	9.000000
0.930000	22.480000	12.460000	710.000000	0.000000	182.000000	63.000000	-26.000000	28.000000
0.940000	22.170000	12.890000	646.000000	0.000000	182.000000	63.000000	-31.000000	43.000000
0.950000	21.740000	13.030000	595.000000	0.000000	182.000000	63.000000	-43.000000	14.000000
0.960000	21.240000	13.120000	492.000000	0.000000	182.000000	62.000000	-50.000000	9.000000
0.970000	20.980000	13.120000	240.000000	0.000000	182.000000	62.000000	-26.000000	0.000000
0.980000	20.980000	13.120000	0.000000	1.000000	182.000000	61.000000	0.000000	0.000000
0.990000	21.060000	12.910000	0.000000	0.000000	184.000000	61.000000	8.000000	-21.000000
1.000000	21.380000	12.910000	0.000000	0.000000	184.000000	61.000000	32.000000	0.000000
1.010000	21.870000	13.060000	0.000000	0.000000	183.000000	60.000000	49.000000	15.000000
1.020000	22.480000	13.260000	0.000000	0.000000	183.000000	60.000000	61.000000	20.000000
1.030000	23.100000	13.480000	0.000000	0.000000	182.000000	60.000000	62.000000	22.000000
1.040000	23.730000	13.720000	0.000000	0.000000	182.000000	59.000000	63.000000	24.000000
1.050000	24.360000	13.990000	0.000000	0.000000	182.000000	59.000000	63.000000	27.000000
1.060000	24.360000	13.990000	172.000000	1.000000	182.000000	59.000000	0.000000	0.000000
1.070000	24.920000	14.420000	212.000000	0.000000	182.000000	59.000000	56.000000	43.000000
1.080000	24.720000	14.520000	212.000000	0.000000	182.000000	59.000000	-20.000000	10.000000
1.090000	24.480000	14.520000	274.000000	0.000000	182.000000	59.000000	-24.000000	0.000000
1.100000	24.120000	14.520000	315.000000	0.000000	182.000000	59.000000	-36.000000	0.000000
1.110000	23.670000	14.600000	359.000000	0.000000	182.000000	59.000000	-45.000000	8.000000
1.120000	23.270000	14.480000	396.000000	0.000000	182.000000	59.000000	-40.000000	-12.000000
1.130000	22.990000	14.350000	420.000000	0.000000	182.000000	59.000000	-28.000000	-13.000000
1.140000	22.780000	14.120000	445.000000	0.000000	182.000000	59.000000	-21.000000	-23.000000
1.150000	22.670000	13.820000	483.000000	0.000000	182.000000	59.000000	-11.000000	-30.000000
1.160000	22.730000	13.560000	519.000000	0.000000	182.000000	60.000000	6.000000	-26.000000
1.170000	22.900000	13.290000	562.000000	0.000000	180.000000	60.000000	17.000000	-27.000000
1.180000	23.220000	13.020000	595.000000	0.000000	180.000000	60.000000	32.000000	-27.000000
1.190000	23.580000	12.880000	631.000000	0.000000	180.000000	61.000000	36.000000	-14.000000
1.200000	23.990000	12.820000	673.000000	0.000000	180.000000	61.000000	41.000000	-6.000000
1.210000	24.420000	12.730000	710.000000	0.000000	180.000000	62.000000	43.000000	-9.000000
1.220000	24.600000	12.640000	736.000000	0.000000	182.000000	62.000000	18.000000	-9.000000
1.230000	24.600000	12.590000	754.000000	0.000000	182.000000	63.000000	0.000000	-5.000000
1.240000	24.550000	12.590000	773.000000	0.000000	182.000000	63.000000	-5.000000	0.000000
1.250000	24.490000	12.490000	776.000000	0.000000	182.000000	64.000000	-6.000000	-10.000000
1.260000	24.290000	12.260000	776.000000	0.000000	182.000000	64.000000	-20.000000	-23.000000
1.270000	23.990000	11.940000	761.000000	0.000000	182.000000	64.000000	-30.000000	-32.000000
1.280000	23.990000	11.940000	693.000000	0.000000	182.000000	64.000000	0.000000	0.000000
1.290000	23.720000	11.710000	594.000000	0.000000	182.000000	64.000000	-27.000000	-23.000000
1.300000	23.590000	11.710000	441.000000	0.000000	182.000000	64.000000	-13.000000	0.000000
1.310000	23.590000	11.800000	287.000000	0.000000	182.000000	64.000000	0.000000	9.000000
1.320000	23.690000	12.010000	18.000000	0.000000	180.000000	64.000000	10.000000	21.000000
1.330000	23.690000	12.010000	0.000000	1.000000	180.000000	64.000000	0.000000	0.000000
1.340000	24.090000	12.550000	0.000000	0.000000	180.000000	64.000000	40.000000	54.000000
1.350000	24.260000	12.780000	0.000000	0.000000	180.000000	64.000000	17.000000	23.000000
1.360000	24.380000	12.990000	0.000000	0.000000	180.000000	64.000000	12.000000	21.000000
1.370000	24.550000	13.210000	0.000000	0.000000	182.000000	63.000000	17.000000	22.000000
1.380000	24.780000	13.430000	0.000000	0.000000	182.000000	62.000000	23.000000	22.000000
1.390000	25.030000	13.650000	0.000000	0.000000	182.000000	62.000000	25.000000	22.000000
1.400000	25.170000	13.790000	0.000000	0.000000	182.000000	61.000000	14.000000	14.000000
1.410000	25.250000	13.900000	0.000000	0.000000	182.000000	60.000000	8.000000	11.000000
1.420000	25.250000	13.900000	0.000000	0.000000	182.000000	59.000000	0.000000	0.000000
1.430000	25.250000	13.900000	0.000000	0.000000	182.000000	59.000000	0.000000	0.000000
1.440000	25.250000	13.900000	0.000000	0.000000	182.000000	59.000000	0.000000	0.000000
1.450000	24.940000	13.960000	0.000000	0.000000	182.000000	58.000000	-31.000000	6.000000
1.460000	24.880000	13.960000	0.000000	0.000000	182.000000	59.000000	-6.000000	0.000000
1.470000	24.880000	13.960000	46.000000	1.000000	182.000000	59.000000	0.000000	0.000000
1.480000	24.880000	13.960000	185.000000	0.000000	180.000000	59.000000	0.000000	0.000000
1.490000	24.880000	13.960000	216.000000	0.000000	180.000000	60.000000	0.000000	0.000000
1.500000	24.880000	13.960000	330.000000	0.000000	180.000000	60.000000	0.000000	0.000000
1.510000	25.230000	13.730000	417.000000	0.000000	180.000000	61.000000	35.000000	-23.000000
1.520000	25.440000	13.660000	468.000000	0.000000	180.000000	61.000000	21.000000	-7.000000
1.530000	25.670000	13.610000	494.000000	0.000000	180.000000	62.000000	23.000000	-5.000000
1.540000	25.870000	13.610000	516.000000	0.000000	180.000000	62.000000	20.000000	0.000000
1.550000	26.070000	13.680000	544.000000	0.000000	180.000000	63.000000	20.000000	7.000000
1.560000	26.230000	13.770000	546.000000	0.000000	182.000000	63.000000	16.000000	9.000000
1.570000	26.320000	13.950000	544.000000	0.000000	182.000000	64.000000	9.000000	18.000000
1.580000	26.320000	14.190000	530.000000	0.000000	182.000000	64.000000	0.000000	24.000000
1.590000	26.270000	14.460000	530.000000	0.000000	182.000000	64.000000	-5.000000	27.000000
1.600000	26.080000	14.720000	537.000000	0.000000	182.000000	64.000000	-19.000000	26.000000
1.610000	25.870000	14.840000	546.000000	0.000000	182.000000	63.000000	-21.000000	12.000000
1.620000	25.640000	14.840000	539.000000	0.000000	182.000000	63.000000	-23.000000	0.000000
1.630000	25.440000	14.840000	570.000000	0.000000	182.000000	62.000000	-20.000000	0.000000
1.640000	25.210000	14.600000	611.000000	0.000000	180.000000	62.000000	-23.000000	-24.000000
1.650000	25.050000	14.260000	653.000000	0.000000	180.000000	62.000000	-16.000000	-34.000000
1.660000	24.980000	13.920000	691.000000	0.000000	180.000000	61.000000	-7.000000	-34.000000
1.670000	24.980000	13.540000	728.000000	0.000000	180.000000	62.000000	0.000000	-38.000000
1.680000	25.120000	13.130000	736.000000	0.000000	180.000000	62.000000	14.000000	-41.000000
1.690000	25.340000	12.810000	745.000000	0.000000	180.000000	63.000000	22.000000	-32.000000
1.700000	25.540000	12.540000	737.000000	0.000000	180.000000	63.000000	20.000000	-27.000000
1.710000	25.730000	12.370000	699.000000	0.000000	180.000000	64.000000	19.000000	-17.000000
1.720000	26.050000	12.250000	529.000000	0.000000	180.000000	65.000000	32.000000	-12.000000
1.730000	26.380000	12.250000	60.000000	0.000000	182.000000	66.000000	33.000000	0.000000
1.740000	26.380000	12.250000	0.000000	1.000000	182.000000	67.000000	0.000000	0.000000
1.750000	26.930000	12.690000	0.000000	0.000000	182.000000	67.000000	55.000000	44.000000
1.760000	27.080000	13.080000	0.000000	0.000000	182.000000	67.000000	15.000000	39.000000
1.770000	27.180000	13.470000	0.000000	0.000000	182.000000	67.000000	10.000000	39.000000
1.780000	27.360000	13.730000	0.000000	0.000000	182.000000	66.000000	18.000000	26.000000
1.790000	27.740000	13.900000	0.000000	0.000000	180.000000	65.000000	38.000000	17.000000
1.800000	28.250000	14.100000	0.000000	0.000000	180.000000	64.000000	51.000000	20.000000
1.810000	28.670000	14.290000	0.000000	0.000000	180.000000	63.000000	42.000000	19.000000
1.820000	29.090000	14.460000	0.000000	0.000000	178.000000	62.000000	42.000000	17.000000
1.830000	29.380000	14.610000	0.000000	0.000000	178.000000	61.000000	29.000000	15.000000
1.840000	29.570000	14.740000	0.000000	0.000000	178.000000	61.000000	19.000000	13.000000
1.850000	29.570000	14.740000	142.000000	1.000000	178.000000	60.000000	0.000000	0.000000
1.860000	29.570000	14.740000	249.000000	0.000000	178.000000	61.000000	0.000000	0.000000
1.870000	29.570000	14.740000	334.000000	0.000000	178.000000	61.000000	0.000000	0.000000
1.880000	29.310000	14.860000	425.000000	0.000000	180.000000	61.000000	-26.000000	12.000000
1.890000	29.220000	14.860000	472.000000	0.000000	180.000000	62.000000	-9.000000	0.000000
1.900000	29.130000	14.740000	521.000000	0.000000	180.000000	63.000000	-9.000000	-12.000000
1.910000	29.080000	14.580000	586.000000	0.000000	180.000000	63.000000	-5.000000	-16.000000
1.920000	29.030000	14.310000	633.000000	0.000000	180.000000	64.000000	-5.000000	-27.000000
1.930000	28.980000	13.970000	666.000000	0.000000	180.000000	64.000000	-5.000000	-34.000000
1.940000	28.980000	13.970000	705.000000	0.000000	180.000000	65.000000	0.000000	0.000000
1.950000	28.980000	13.970000	742.000000	0.000000	180.000000	66.000000	0.000000	0.000000
1.960000	28.980000	13.970000	788.000000	0.000000	180.000000	66.000000	0.000000	0.000000
1.970000	28.980000	13.970000	785.000000	0.000000	180.000000	67.000000	0.000000	0.000000
1.980000	29.050000	14.240000	785.000000	0.000000	180.000000	67.000000	7.000000	27.000000
1.990000	29.140000	14.890000	783.000000	0.000000	180.000000	67.000000	9.000000	65.000000
2.000000	29.220000	15.590000	768.000000	0.000000	180.000000	67.000000	8.000000	70.000000
2.010000	29.290000	16.450000	750.000000	0.000000	180.000000	67.000000	7.000000	86.000000
2.020000	29.380000	17.420000	758.000000	0.000000	180.000000	66.000000	9.000000	97.000000
2.030000	29.380000	18.270000	763.000000	0.000000	180.000000	66.000000	0.000000	85.000000
2.040000	29.380000	18.770000	757.000000	0.000000	180.000000	66.000000	0.000000	50.000000
2.050000	29.380000	19.050000	760.000000	0.000000	180.000000	67.000000	0.000000	28.000000
2.060000	29.380000	19.050000	762.000000	0.000000	182.000000	67.000000	0.000000	0.000000
2.070000	29.380000	19.050000	784.000000	0.000000	182.000000	68.000000	0.000000	0.000000
2.080000	29.380000	18.610000	797.000000	0.000000	183.000000	69.000000	0.000000	-44.000000
2.090000	29.380000	17.990000	818.000000	0.000000	185.000000	69.000000	0.000000	-62.000000
2.100000	29.380000	17.130000	834.000000	0.000000	185.000000	69.000000	0.000000	-86.000000
2.110000	29.570000	16.270000	839.000000	0.000000	183.000000	69.000000	19.000000	-86.000000
2.120000	29.900000	15.410000	845.000000	0.000000	182.000000	68.000000	33.000000	-86.000000
2.130000	30.210000	14.660000	845.000000	0.000000	182.000000	67.000000	31.000000	-75.000000
2.140000	30.530000	13.980000	836.000000	0.000000	182.000000	66.000000	32.000000	-68.000000
2.150000	30.850000	13.460000	799.000000	0.000000	182.000000	66.000000	32.000000	-52.000000
2.160000	31.160000	13.190000	733.000000	0.000000	182.000000	65.000000	31.000000	-27.000000
2.170000	31.300000	13.090000	641.000000	0.000000	180.000000	66.000000	14.000000	-10.000000
2.180000	31.300000	13.090000	458.000000	0.000000	180.000000	66.000000	0.000000	0.000000
2.190000	31.160000	13.330000	274.000000	0.000000	180.000000	67.000000	-14.000000	24.000000
2.200000	30.780000	13.720000	270.000000	0.000000	180.000000	68.000000	-38.000000	39.000000
2.210000	30.250000	14.260000	247.000000	0.000000	180.000000	68.000000	-53.000000	54.000000
