t	x	y	pressure	penup	azimuth	inclination	v_x	v_y
0.000000	54.830000	27.790000	191.000000	1.000000	180.000000	71.000000	0.000000	0.000000
0.010000	54.520000	28.190000	269.000000	0.000000	180.000000	71.000000	-31.000000	40.000000
0.020000	54.360000	28.750000	361.000000	0.000000	180.000000	71.000000	-16.000000	56.000000
0.030000	54.190000	29.400000	469.000000	0.000000	180.000000	71.000000	-17.000000	65.000000
0.040000	54.000000	30.100000	620.000000	0.000000	180.000000	70.000000	-19.000000	70.000000
0.050000	53.830000	30.840000	733.000000	0.000000	180.000000	70.000000	-17.000000	74.000000
0.060000	53.670000	31.170000	814.000000	0.000000	180.000000	69.000000	-16.000000	33.000000
0.070000	53.670000	31.170000	834.000000	0.000000	180.000000	68.000000	0.000000	0.000000
0.080000	53.670000	31.170000	845.000000	0.000000	180.000000	67.000000	0.000000	0.000000
0.090000	53.670000	31.170000	873.000000	0.000000	180.000000	67.000000	0.000000	0.000000
0.100000	53.930000	30.440000	908.000000	0.000000	180.000000	66.000000	26.000000	-73.000000
0.110000	54.320000	29.220000	903.000000	0.000000	180.000000	66.000000	39.000000	-122.000000
0.120000	55.090000	27.480000	921.000000	0.000000	180.000000	66.000000	77.000000	-174.000000
0.130000	56.080000	25.740000	947.000000	0.000000	180.000000	67.000000	99.000000	-174.000000
0.140000	57.220000	24.010000	946.000000	0.000000	180.000000	67.000000	114.000000	-173.000000
0.150000	58.660000	22.520000	995.000000	0.000000	180.000000	68.000000	144.000000	-149.000000
0.160000	60.090000	21.520000	987.000000	0.000000	180.000000	69.000000	143.000000	-100.000000
0.170000	61.500000	20.850000	979.000000	0.000000	180.000000	70.000000	141.000000	-67.000000
0.180000	62.930000	20.600000	978.000000	0.000000	180.000000	71.000000	143.000000	-25.000000
0.190000	63.940000	20.490000	977.000000	0.000000	180.000000	72.000000	101.000000	-11.000000
0.200000	64.670000	20.490000	933.000000	0.000000	180.000000	72.000000	73.000000	0.000000
0.210000	64.570000	20.490000	878.000000	0.000000	180.000000	72.000000	-10.000000	0.000000
0.220000	63.720000	21.120000	830.000000	0.000000	180.000000	72.000000	-85.000000	63.000000
0.230000	62.380000	22.100000	800.000000	0.000000	180.000000	72.000000	-134.000000	98.000000
0.240000	60.370000	23.420000	720.000000	0.000000	180.000000	72.000000	-201.000000	132.000000
0.250000	57.610000	24.730000	736.000000	0.000000	180.000000	72.000000	-276.000000	131.000000
0.260000	54.340000	25.510000	790.000000	0.000000	180.000000	71.000000	-327.000000	78.000000
0.270000	51.450000	25.940000	825.000000	0.000000	180.000000	71.000000	-289.000000	43.000000
0.280000	48.890000	25.670000	861.000000	0.000000	180.000000	71.000000	-256.000000	-27.000000
0.290000	46.540000	25.340000	909.000000	0.000000	180.000000	72.000000	-235.000000	-33.000000
0.300000	45.220000	24.930000	939.000000	0.000000	180.000000	72.000000	-132.000000	-41.000000
0.310000	44.820000	24.720000	965.000000	0.000000	180.000000	72.000000	-40.000000	-21.000000
0.320000	45.040000	24.660000	987.000000	0.000000	177.000000	72.000000	22.000000	-6.000000
0.330000	46.530000	24.460000	1002.000000	0.000000	177.000000	72.000000	149.000000	-20.000000
0.340000	49.110000	24.530000	1023.000000	0.000000	177.000000	73.000000	258.000000	7.000000
0.350000	52.420000	24.970000	1023.000000	0.000000	173.000000	73.000000	331.000000	44.000000
0.360000	56.620000	25.570000	1023.000000	0.000000	177.000000	73.000000	420.000000	60.000000
0.370000	61.190000	26.430000	1023.000000	0.000000	177.000000	73.000000	457.000000	86.000000
0.380000	66.010000	27.330000	1023.000000	0.000000	180.000000	73.000000	482.000000	90.000000
0.390000	70.470000	28.250000	988.000000	0.000000	180.000000	73.000000	446.000000	92.000000
0.400000	74.080000	28.810000	923.000000	0.000000	183.000000	72.000000	361.000000	56.000000
0.410000	77.130000	29.190000	820.000000	0.000000	186.000000	72.000000	305.000000	38.000000
0.420000	79.120000	29.440000	655.000000	0.000000	189.000000	71.000000	199.000000	25.000000
0.430000	80.060000	29.570000	251.000000	0.000000	191.000000	70.000000	94.000000	13.000000
0.440000	80.060000	29.570000	0.000000	1.000000	193.000000	69.000000	0.000000	0.000000
0.450000	79.610000	29.760000	0.000000	0.000000	195.000000	67.000000	-45.000000	19.000000
0.460000	78.200000	29.630000	0.000000	0.000000	197.000000	67.000000	-141.000000	-13.000000
0.470000	76.300000	29.370000	0.000000	0.000000	198.000000	66.000000	-190.000000	-26.000000
0.480000	73.640000	28.820000	0.000000	0.000000	198.000000	66.000000	-266.000000	-55.000000
0.490000	70.760000	28.240000	0.000000	0.000000	199.000000	67.000000	-288.000000	-58.000000
0.500000	67.730000	27.640000	0.000000	0.000000	197.000000	67.000000	-303.000000	-60.000000
0.510000	65.090000	26.990000	0.000000	0.000000	197.000000	67.000000	-264.000000	-65.000000
0.520000	62.750000	26.460000	0.000000	0.000000	195.000000	67.000000	-234.000000	-53.000000
0.530000	60.620000	26.010000	0.000000	0.000000	192.000000	67.000000	-213.000000	-45.000000
0.540000	59.220000	25.760000	0.000000	0.000000	189.000000	67.000000	-140.000000	-25.000000
0.550000	58.390000	25.640000	0.000000	0.000000	187.000000	67.000000	-83.000000	-12.000000
0.560000	57.940000	25.640000	0.000000	0.000000	187.000000	67.000000	-45.000000	0.000000
0.570000	57.880000	25.640000	0.000000	0.000000	185.000000	67.000000	-6.000000	0.000000
0.580000	58.010000	25.640000	0.000000	0.000000	185.000000	67.000000	13.000000	0.000000
0.590000	58.270000	25.730000	0.000000	0.000000	187.000000	68.000000	26.000000	9.000000
0.600000	58.390000	25.800000	0.000000	0.000000	185.000000	68.000000	12.000000	7.000000
0.610000	58.460000	25.910000	0.000000	0.000000	185.000000	68.000000	7.000000	11.000000
0.620000	58.460000	26.040000	0.000000	0.000000	185.000000	68.000000	0.000000	13.000000
0.630000	58.460000	26.240000	0.000000	0.000000	182.000000	67.000000	0.000000	20.000000
0.640000	58.300000	26.450000	0.000000	0.000000	182.000000	67.000000	-16.000000	21.000000
0.650000	58.220000	26.650000	0.000000	0.000000	180.000000	67.000000	-8.000000	20.000000
0.660000	58.220000	26.870000	0.000000	0.000000	180.000000	67.000000	0.000000	22.000000
0.670000	58.220000	26.870000	205.000000	1.000000	180.000000	68.000000	0.000000	0.000000
0.680000	58.580000	27.250000	225.000000	0.000000	180.000000	68.000000	36.000000	38.000000
0.690000	58.730000	27.410000	232.000000	0.000000	180.000000	68.000000	15.000000	16.000000
0.700000	58.840000	27.550000	260.000000	0.000000	180.000000	69.000000	11.000000	14.000000
0.710000	58.840000	27.550000	282.000000	0.000000	183.000000	69.000000	0.000000	0.000000
0.720000	58.790000	27.550000	339.000000	0.000000	183.000000	70.000000	-5.000000	0.000000
0.730000	58.790000	27.550000	422.000000	0.000000	183.000000	70.000000	0.000000	0.000000
0.740000	58.330000	27.390000	509.000000	0.000000	185.000000	70.000000	-46.000000	-16.000000
0.750000	58.090000	27.280000	564.000000	0.000000	185.000000	70.000000	-24.000000	-11.000000
0.760000	57.860000	27.090000	619.000000	0.000000	185.000000	70.000000	-23.000000	-19.000000
0.770000	57.750000	26.870000	640.000000	0.000000	185.000000	70.000000	-11.000000	-22.000000
0.780000	57.750000	26.630000	675.000000	0.000000	185.000000	70.000000	0.000000	-24.000000
0.790000	57.850000	26.370000	705.000000	0.000000	186.000000	71.000000	10.000000	-26.000000
0.800000	58.150000	26.070000	725.000000	0.000000	186.000000	71.000000	30.000000	-30.000000
0.810000	58.560000	25.960000	753.000000	0.000000	186.000000	71.000000	41.000000	-11.000000
0.820000	59.090000	25.960000	785.000000	0.000000	186.000000	72.000000	53.000000	0.000000
0.830000	59.440000	26.080000	793.000000	0.000000	186.000000	72.000000	35.000000	12.000000
0.840000	59.680000	26.290000	791.000000	0.000000	186.000000	72.000000	24.000000	21.000000
0.850000	59.680000	26.580000	787.000000	0.000000	186.000000	72.000000	0.000000	29.000000
0.860000	59.550000	27.020000	767.000000	0.000000	186.000000	72.000000	-13.000000	44.000000
0.870000	59.240000	27.400000	720.000000	0.000000	186.000000	72.000000	-31.000000	38.000000
0.880000	58.740000	27.730000	668.000000	0.000000	186.000000	71.000000	-50.000000	33.000000
0.890000	58.340000	28.040000	540.000000	0.000000	186.000000	71.000000	-40.000000	31.000000
0.900000	58.000000	28.120000	312.000000	0.000000	185.000000	70.000000	-34.000000	8.000000
0.910000	57.780000	27.990000	15.000000	0.000000	185.000000	70.000000	-22.000000	-13.000000
0.920000	57.780000	27.990000	0.000000	1.000000	185.000000	70.000000	0.000000	0.000000
0.930000	57.840000	27.500000	0.000000	0.000000	185.000000	69.000000	6.000000	-49.000000
0.940000	58.150000	27.400000	0.000000	0.000000	185.000000	69.000000	31.000000	-10.000000
0.950000	58.640000	27.400000	0.000000	0.000000	185.000000	70.000000	49.000000	0.000000
0.960000	59.250000	27.510000	0.000000	0.000000	185.000000	70.000000	61.000000	11.000000
0.970000	59.970000	27.680000	0.000000	0.000000	185.000000	70.000000	72.000000	17.000000
0.980000	60.680000	27.890000	0.000000	0.000000	185.000000	70.000000	71.000000	21.000000
0.990000	61.380000	28.170000	0.000000	0.000000	185.000000	70.000000	70.000000	28.000000
1.000000	61.380000	28.170000	47.000000	1.000000	185.000000	70.000000	0.000000	0.000000
1.010000	62.140000	28.700000	101.000000	0.000000	185.000000	70.000000	76.000000	53.000000
1.020000	62.050000	28.920000	149.000000	0.000000	185.000000	70.000000	-9.000000	22.000000
1.030000	61.770000	29.100000	279.000000	0.000000	188.000000	69.000000	-28.000000	18.000000
1.040000	61.360000	29.230000	342.000000	0.000000	188.000000	69.000000	-41.000000	13.000000
1.050000	60.930000	29.230000	393.000000	0.000000	187.000000	68.000000	-43.000000	0.000000
1.060000	60.550000	29.160000	439.000000	0.000000	190.000000	68.000000	-38.000000	-7.000000
1.070000	60.210000	28.960000	486.000000	0.000000	190.000000	68.000000	-34.000000	-20.000000
1.080000	59.990000	28.690000	537.000000	0.000000	189.000000	67.000000	-22.000000	-27.000000
1.090000	59.940000	28.390000	586.000000	0.000000	187.000000	67.000000	-5.000000	-30.000000
1.100000	59.990000	28.070000	645.000000	0.000000	187.000000	68.000000	5.000000	-32.000000
1.110000	60.280000	27.800000	697.000000	0.000000	187.000000	68.000000	29.000000	-27.000000
1.120000	60.690000	27.550000	754.000000	0.000000	187.000000	68.000000	41.000000	-25.000000
1.130000	61.180000	27.380000	797.000000	0.000000	188.000000	69.000000	49.000000	-17.000000
1.140000	61.500000	27.200000	815.000000	0.000000	188.000000	69.000000	32.000000	-18.000000
1.150000	61.610000	27.090000	818.000000	0.000000	188.000000	69.000000	11.000000	-11.000000
1.160000	61.610000	27.040000	823.000000	0.000000	188.000000	70.000000	0.000000	-5.000000
1.170000	61.610000	26.990000	826.000000	0.000000	188.000000	70.000000	0.000000	-5.000000
1.180000	61.360000	26.730000	784.000000	0.000000	188.000000	70.000000	-25.000000	-26.000000
1.190000	60.990000	26.320000	720.000000	0.000000	189.000000	71.000000	-37.000000	-41.000000
1.200000	60.750000	26.220000	625.000000	0.000000	189.000000	71.000000	-24.000000	-10.000000
1.210000	60.600000	26.220000	480.000000	0.000000	189.000000	71.000000	-15.000000	0.000000
1.220000	60.520000	26.330000	124.000000	0.000000	189.000000	72.000000	-8.000000	11.000000
1.230000	60.520000	26.330000	0.000000	1.000000	189.000000	72.000000	0.000000	0.000000
1.240000	60.520000	26.950000	0.000000	0.000000	186.000000	72.000000	0.000000	62.000000
1.250000	60.520000	26.950000	10.000000	0.000000	186.000000	72.000000	0.000000	0.000000
1.260000	60.820000	27.620000	119.000000	1.000000	186.000000	72.000000	0.000000	0.000000
1.270000	61.060000	27.840000	221.000000	0.000000	186.000000	72.000000	24.000000	22.000000
1.280000	61.320000	27.920000	325.000000	0.000000	186.000000	71.000000	26.000000	8.000000
1.290000	61.560000	27.920000	418.000000	0.000000	186.000000	71.000000	24.000000	0.000000
1.300000	61.820000	27.860000	493.000000	0.000000	186.000000	71.000000	26.000000	-6.000000
1.310000	62.150000	27.860000	546.000000	0.000000	186.000000	71.000000	33.000000	0.000000
1.320000	62.520000	27.860000	560.000000	0.000000	185.000000	70.000000	37.000000	0.000000
1.330000	62.830000	27.860000	595.000000	0.000000	185.000000	70.000000	31.000000	0.000000
1.340000	63.130000	27.980000	595.000000	0.000000	185.000000	70.000000	30.000000	12.000000
1.350000	63.390000	28.120000	616.000000	0.000000	185.000000	70.000000	26.000000	14.000000
1.360000	63.470000	28.330000	614.000000	0.000000	188.000000	70.000000	8.000000	21.000000
1.370000	63.470000	28.540000	620.000000	0.000000	188.000000	70.000000	0.000000	21.000000
1.380000	63.250000	28.750000	613.000000	0.000000	188.000000	70.000000	-22.000000	21.000000
1.390000	63.040000	29.000000	603.000000	0.000000	188.000000	70.000000	-21.000000	25.000000
1.400000	62.790000	29.140000	603.000000	0.000000	188.000000	69.000000	-25.000000	14.000000
1.410000	62.540000	29.140000	602.000000	0.000000	188.000000	69.000000	-25.000000	0.000000
1.420000	62.260000	29.000000	611.000000	0.000000	188.000000	69.000000	-28.000000	-14.000000
1.430000	62.000000	28.680000	611.000000	0.000000	190.000000	68.000000	-26.000000	-32.000000
1.440000	61.740000	28.210000	619.000000	0.000000	187.000000	68.000000	-26.000000	-47.000000
1.450000	61.620000	27.770000	619.000000	0.000000	187.000000	68.000000	-12.000000	-44.000000
1.460000	61.570000	27.360000	611.000000	0.000000	188.000000	69.000000	-5.000000	-41.000000
1.470000	61.710000	26.970000	566.000000	0.000000	188.000000	69.000000	14.000000	-39.000000
1.480000	62.050000	26.740000	418.000000	0.000000	188.000000	69.000000	34.000000	-23.000000
1.490000	62.050000	26.740000	0.000000	1.000000	188.000000	70.000000	0.000000	0.000000
1.500000	63.130000	26.690000	0.000000	0.000000	188.000000	70.000000	108.000000	-5.000000
1.510000	63.800000	26.960000	0.000000	0.000000	189.000000	71.000000	67.000000	27.000000
1.520000	64.520000	27.370000	0.000000	0.000000	189.000000	71.000000	72.000000	41.000000
1.530000	65.180000	28.010000	0.000000	0.000000	189.000000	71.000000	66.000000	64.000000
1.540000	65.770000	28.680000	0.000000	0.000000	189.000000	71.000000	59.000000	67.000000
1.550000	66.260000	29.370000	0.000000	0.000000	189.000000	71.000000	49.000000	69.000000
1.560000	66.510000	30.010000	0.000000	0.000000	188.000000	70.000000	25.000000	64.000000
1.570000	66.610000	30.230000	0.000000	0.000000	188.000000	70.000000	10.000000	22.000000
1.580000	66.610000	30.230000	48.000000	1.000000	190.000000	69.000000	0.000000	0.000000
1.590000	66.470000	29.820000	247.000000	0.000000	190.000000	68.000000	-14.000000	-41.000000
1.600000	66.290000	29.460000	324.000000	0.000000	190.000000	68.000000	-18.000000	-36.000000
1.610000	66.080000	28.910000	469.000000	0.000000	190.000000	68.000000	-21.000000	-55.000000
1.620000	65.980000	28.240000	560.000000	0.000000	190.000000	68.000000	-10.000000	-67.000000
1.630000	65.980000	27.750000	616.000000	0.000000	190.000000	68.000000	0.000000	-49.000000
1.640000	65.920000	27.260000	639.000000	0.000000	190.000000	68.000000	-6.000000	-49.000000
1.650000	65.920000	27.100000	641.000000	0.000000	188.000000	69.000000	0.000000	-16.000000
1.660000	65.970000	27.150000	649.000000	0.000000	188.000000	69.000000	5.000000	5.000000
1.670000	66.020000	27.220000	650.000000	0.000000	188.000000	70.000000	5.000000	7.000000
1.680000	66.190000	27.710000	647.000000	0.000000	188.000000	70.000000	17.000000	49.000000
1.690000	66.440000	28.480000	647.000000	0.000000	188.000000	70.000000	25.000000	77.000000
1.700000	66.580000	29.240000	636.000000	0.000000	188.000000	70.000000	14.000000	76.000000
1.710000	66.690000	30.230000	617.000000	0.000000	188.000000	70.000000	11.000000	99.000000
1.720000	66.740000	31.370000	636.000000	0.000000	188.000000	69.000000	5.000000	114.000000
1.730000	66.830000	32.240000	662.000000	0.000000	187.000000	68.000000	9.000000	87.000000
1.740000	66.980000	32.620000	676.000000	0.000000	189.000000	67.000000	15.000000	38.000000
1.750000	67.040000	32.670000	693.000000	0.000000	189.000000	67.000000	6.000000	5.000000
1.760000	67.090000	32.560000	755.000000	0.000000	189.000000	66.000000	5.000000	-11.000000
1.770000	67.170000	31.980000	794.000000	0.000000	189.000000	65.000000	8.000000	-58.000000
1.780000	67.260000	31.090000	830.000000	0.000000	189.000000	65.000000	9.000000	-89.000000
1.790000	67.450000	30.240000	843.000000	0.000000	189.000000	65.000000	19.000000	-85.000000
1.800000	67.620000	29.510000	846.000000	0.000000	191.000000	65.000000	17.000000	-73.000000
1.810000	67.850000	28.860000	837.000000	0.000000	191.000000	66.000000	23.000000	-65.000000
1.820000	68.130000	28.420000	757.000000	0.000000	191.000000	66.000000	28.000000	-44.000000
1.830000	68.400000	28.080000	483.000000	0.000000	191.000000	66.000000	27.000000	-34.000000
1.840000	68.400000	28.080000	0.000000	1.000000	192.000000	67.000000	0.000000	0.000000
1.850000	68.430000	27.700000	0.000000	0.000000	192.000000	68.000000	3.000000	-38.000000
1.860000	68.090000	27.880000	0.000000	0.000000	193.000000	69.000000	-34.000000	18.000000
1.870000	67.650000	28.260000	0.000000	0.000000	193.000000	69.000000	-44.000000	38.000000
1.880000	67.130000	28.680000	0.000000	0.000000	194.000000	69.000000	-52.000000	42.000000
1.890000	66.570000	29.310000	0.000000	0.000000	194.000000	69.000000	-56.000000	63.000000
1.900000	66.030000	30.070000	0.000000	0.000000	194.000000	69.000000	-54.000000	76.000000
1.910000	66.030000	30.070000	613.000000	1.000000	193.000000	69.000000	0.000000	0.000000
1.920000	65.560000	30.560000	675.000000	0.000000	193.000000	69.000000	-47.000000	49.000000
1.930000	65.420000	30.560000	685.000000	0.000000	192.000000	68.000000	-14.000000	0.000000
1.940000	65.420000	30.560000	724.000000	0.000000	192.000000	68.000000	0.000000	0.000000
1.950000	65.420000	30.560000	722.000000	0.000000	192.000000	67.000000	0.000000	0.000000
1.960000	66.030000	30.450000	669.000000	0.000000	189.000000	67.000000	61.000000	-11.000000
1.970000	66.560000	30.540000	474.000000	0.000000	189.000000	67.000000	53.000000	9.000000
1.980000	66.560000	30.540000	0.000000	1.000000	189.000000	66.000000	0.000000	0.000000
1.990000	67.480000	30.860000	0.000000	0.000000	189.000000	66.000000	92.000000	32.000000
2.000000	67.670000	31.190000	0.000000	0.000000	189.000000	66.000000	19.000000	33.000000
2.010000	67.750000	31.720000	0.000000	0.000000	189.000000	66.000000	8.000000	53.000000
2.020000	67.750000	32.280000	0.000000	0.000000	189.000000	66.000000	0.000000	56.000000
2.030000	67.800000	32.870000	0.000000	0.000000	191.000000	66.000000	5.000000	59.000000
2.040000	67.800000	32.870000	440.000000	1.000000	191.000000	66.000000	0.000000	0.000000
2.050000	67.710000	33.390000	497.000000	0.000000	191.000000	65.000000	-9.000000	52.000000
2.060000	67.710000	33.560000	509.000000	0.000000	191.000000	65.000000	0.000000	17.000000
2.070000	67.710000	33.560000	517.000000	0.000000	191.000000	65.000000	0.000000	0.000000
2.080000	67.710000	33.560000	509.000000	0.000000	191.000000	65.000000	0.000000	0.000000
2.090000	67.710000	33.310000	363.000000	0.000000	191.000000	65.000000	0.000000	-25.000000
2.100000	67.710000	33.310000	0.000000	1.000000	189.000000	65.000000	0.000000	0.000000
2.110000	67.710000	32.400000	0.000000	0.000000	189.000000	65.000000	0.000000	-91.000000
2.120000	67.710000	31.890000	0.000000	0.000000	189.000000	65.000000	0.000000	-51.000000
2.130000	67.650000	31.530000	0.000000	0.000000	189.000000	65.000000	-6.000000	-36.000000
2.140000	67.830000	31.280000	0.000000	0.000000	189.000000	65.000000	18.000000	-25.000000
2.150000	68.130000	30.960000	0.000000	0.000000	191.000000	65.000000	30.000000	-32.000000
2.160000	68.450000	30.620000	0.000000	0.000000	191.000000	65.000000	32.000000	-34.000000
2.170000	68.730000	30.260000	0.000000	0.000000	191.000000	65.000000	28.000000	-36.000000
2.180000	68.850000	29.930000	0.000000	0.000000	191.000000	66.000000	12.000000	-33.000000
2.190000	68.850000	29.930000	65.000000	1.000000	191.000000	66.000000	0.000000	0.000000
2.200000	68.780000	29.290000	349.000000	0.000000	191.000000	66.000000	-7.000000	-64.000000
2.210000	68.670000	29.160000	405.000000	0.000000	192.000000	67.000000	-11.000000	-13.000000
