t	x	y	pressure	penup	azimuth	inclination	v_x	v_y
0.000000	53.870000	30.960000	279.000000	1.000000	180.000000	70.000000	0.000000	0.000000
0.010000	53.240000	32.920000	371.000000	0.000000	180.000000	70.000000	-63.000000	196.000000
0.020000	52.870000	33.930000	493.000000	0.000000	180.000000	69.000000	-37.000000	101.000000
0.030000	52.490000	34.690000	597.000000	0.000000	180.000000	68.000000	-38.000000	76.000000
0.040000	52.260000	34.920000	662.000000	0.000000	180.000000	67.000000	-23.000000	23.000000
0.050000	52.200000	34.920000	691.000000	0.000000	180.000000	67.000000	-6.000000	0.000000
0.060000	52.200000	34.820000	731.000000	0.000000	180.000000	66.000000	0.000000	-10.000000
0.070000	52.350000	34.310000	788.000000	0.000000	180.000000	66.000000	15.000000	-51.000000
0.080000	52.700000	33.250000	828.000000	0.000000	180.000000	66.000000	35.000000	-106.000000
0.090000	53.210000	31.820000	864.000000	0.000000	180.000000	65.000000	51.000000	-143.000000
0.100000	53.980000	29.950000	873.000000	0.000000	180.000000	66.000000	77.000000	-187.000000
0.110000	55.120000	28.150000	909.000000	0.000000	180.000000	66.000000	114.000000	-180.000000
0.120000	56.500000	26.390000	917.000000	0.000000	180.000000	67.000000	138.000000	-176.000000
0.130000	58.400000	25.270000	956.000000	0.000000	180.000000	68.000000	190.000000	-112.000000
0.140000	60.300000	24.520000	976.000000	0.000000	180.000000	69.000000	190.000000	-75.000000
0.150000	62.200000	24.010000	994.000000	0.000000	180.000000	70.000000	190.000000	-51.000000
0.160000	64.000000	23.750000	986.000000	0.000000	183.000000	70.000000	180.000000	-26.000000
0.170000	65.200000	23.750000	980.000000	0.000000	183.000000	71.000000	120.000000	0.000000
0.180000	66.010000	23.980000	940.000000	0.000000	183.000000	72.000000	81.000000	23.000000
0.190000	66.190000	24.300000	915.000000	0.000000	183.000000	72.000000	18.000000	32.000000
0.200000	65.570000	24.930000	905.000000	0.000000	183.000000	72.000000	-62.000000	63.000000
0.210000	64.410000	25.770000	855.000000	0.000000	183.000000	72.000000	-116.000000	84.000000
0.220000	62.440000	26.840000	867.000000	0.000000	186.000000	72.000000	-197.000000	107.000000
0.230000	60.140000	27.750000	860.000000	0.000000	186.000000	72.000000	-230.000000	91.000000
0.240000	57.620000	28.550000	863.000000	0.000000	186.000000	71.000000	-252.000000	80.000000
0.250000	55.070000	28.450000	879.000000	0.000000	186.000000	71.000000	-255.000000	-10.000000
0.260000	52.680000	28.340000	909.000000	0.000000	183.000000	71.000000	-239.000000	-11.000000
0.270000	50.390000	27.840000	921.000000	0.000000	183.000000	70.000000	-229.000000	-50.000000
0.280000	48.830000	27.100000	937.000000	0.000000	183.000000	70.000000	-156.000000	-74.000000
0.290000	48.250000	26.590000	977.000000	0.000000	183.000000	70.000000	-58.000000	-51.000000
0.300000	48.310000	26.340000	1021.000000	0.000000	183.000000	71.000000	6.000000	-25.000000
0.310000	49.420000	26.260000	1023.000000	0.000000	183.000000	71.000000	111.000000	-8.000000
0.320000	51.680000	26.130000	1023.000000	0.000000	183.000000	71.000000	226.000000	-13.000000
0.330000	54.710000	26.510000	1023.000000	0.000000	183.000000	72.000000	303.000000	38.000000
0.340000	58.730000	27.220000	1023.000000	0.000000	183.000000	72.000000	402.000000	71.000000
0.350000	63.020000	28.320000	1023.000000	0.000000	183.000000	72.000000	429.000000	110.000000
0.360000	67.480000	29.410000	1023.000000	0.000000	183.000000	72.000000	446.000000	109.000000
0.370000	71.630000	30.470000	992.000000	0.000000	183.000000	71.000000	415.000000	106.000000
0.380000	74.640000	31.070000	867.000000	0.000000	185.000000	70.000000	301.000000	60.000000
0.390000	76.880000	31.370000	668.000000	0.000000	185.000000	69.000000	224.000000	30.000000
0.400000	77.770000	31.520000	226.000000	0.000000	187.000000	68.000000	89.000000	15.000000
0.410000	77.770000	31.520000	0.000000	1.000000	189.000000	67.000000	0.000000	0.000000
0.420000	77.100000	31.370000	0.000000	0.000000	191.000000	66.000000	-67.000000	-15.000000
0.430000	76.060000	31.220000	0.000000	0.000000	191.000000	65.000000	-104.000000	-15.000000
0.440000	74.600000	31.020000	0.000000	0.000000	193.000000	64.000000	-146.000000	-20.000000
0.450000	72.870000	30.690000	0.000000	0.000000	192.000000	63.000000	-173.000000	-33.000000
0.460000	70.910000	30.280000	0.000000	0.000000	193.000000	64.000000	-196.000000	-41.000000
0.470000	68.900000	29.790000	0.000000	0.000000	191.000000	65.000000	-201.000000	-49.000000
0.480000	67.000000	29.260000	0.000000	0.000000	191.000000	65.000000	-190.000000	-53.000000
0.490000	65.190000	28.730000	0.000000	0.000000	189.000000	66.000000	-181.000000	-53.000000
0.500000	63.560000	28.190000	0.000000	0.000000	189.000000	67.000000	-163.000000	-54.000000
0.510000	62.300000	27.650000	0.000000	0.000000	187.000000	68.000000	-126.000000	-54.000000
0.520000	61.280000	27.320000	0.000000	0.000000	185.000000	69.000000	-102.000000	-33.000000
0.530000	60.650000	27.130000	0.000000	0.000000	185.000000	69.000000	-63.000000	-19.000000
0.540000	60.370000	27.060000	0.000000	0.000000	185.000000	70.000000	-28.000000	-7.000000
0.550000	60.310000	27.060000	0.000000	0.000000	183.000000	70.000000	-6.000000	0.000000
0.560000	60.440000	27.060000	0.000000	0.000000	183.000000	70.000000	13.000000	0.000000
0.570000	60.590000	27.210000	0.000000	0.000000	183.000000	70.000000	15.000000	15.000000
0.580000	60.740000	27.360000	0.000000	0.000000	180.000000	70.000000	15.000000	15.000000
0.590000	60.830000	27.540000	0.000000	0.000000	180.000000	70.000000	9.000000	18.000000
0.600000	60.890000	27.630000	0.000000	0.000000	180.000000	70.000000	6.000000	9.000000
0.610000	60.890000	27.730000	0.000000	0.000000	183.000000	70.000000	0.000000	10.000000
0.620000	60.980000	27.840000	0.000000	0.000000	183.000000	70.000000	9.000000	11.000000
0.630000	61.070000	28.000000	0.000000	0.000000	183.000000	70.000000	9.000000	16.000000
0.640000	61.180000	28.160000	0.000000	0.000000	183.000000	70.000000	11.000000	16.000000
0.650000	61.330000	28.310000	0.000000	0.000000	183.000000	70.000000	15.000000	15.000000
0.660000	61.480000	28.460000	0.000000	0.000000	183.000000	70.000000	15.000000	15.000000
0.670000	61.620000	28.570000	0.000000	0.000000	183.000000	70.000000	14.000000	11.000000
0.680000	61.770000	28.660000	0.000000	0.000000	183.000000	70.000000	15.000000	9.000000
0.690000	61.770000	28.660000	129.000000	1.000000	183.000000	70.000000	0.000000	0.000000
0.700000	61.940000	28.930000	148.000000	0.000000	185.000000	69.000000	17.000000	27.000000
0.710000	61.940000	29.100000	244.000000	0.000000	185.000000	69.000000	0.000000	17.000000
0.720000	61.890000	29.210000	345.000000	0.000000	185.000000	69.000000	-5.000000	11.000000
0.730000	61.810000	29.290000	438.000000	0.000000	187.000000	68.000000	-8.000000	8.000000
0.740000	61.660000	29.290000	509.000000	0.000000	187.000000	68.000000	-15.000000	0.000000
0.750000	61.460000	29.290000	564.000000	0.000000	187.000000	68.000000	-20.000000	0.000000
0.760000	61.240000	29.060000	586.000000	0.000000	189.000000	67.000000	-22.000000	-23.000000
0.770000	61.040000	28.780000	620.000000	0.000000	189.000000	67.000000	-20.000000	-28.000000
0.780000	60.980000	28.510000	644.000000	0.000000	187.000000	67.000000	-6.000000	-27.000000
0.790000	60.980000	28.330000	659.000000	0.000000	187.000000	67.000000	0.000000	-18.000000
0.800000	61.120000	28.220000	697.000000	0.000000	187.000000	67.000000	14.000000	-11.000000
0.810000	61.360000	28.070000	730.000000	0.000000	187.000000	68.000000	24.000000	-15.000000
0.820000	61.680000	28.070000	757.000000	0.000000	187.000000	68.000000	32.000000	0.000000
0.830000	62.190000	28.180000	760.000000	0.000000	187.000000	68.000000	51.000000	11.000000
0.840000	62.660000	28.350000	770.000000	0.000000	187.000000	68.000000	47.000000	17.000000
0.850000	62.870000	28.530000	765.000000	0.000000	187.000000	68.000000	21.000000	18.000000
0.860000	62.930000	28.770000	745.000000	0.000000	187.000000	68.000000	6.000000	24.000000
0.870000	62.770000	29.040000	694.000000	0.000000	187.000000	68.000000	-16.000000	27.000000
0.880000	62.420000	29.370000	616.000000	0.000000	187.000000	68.000000	-35.000000	33.000000
0.890000	61.950000	29.630000	475.000000	0.000000	187.000000	68.000000	-47.000000	26.000000
0.900000	61.560000	29.750000	297.000000	0.000000	187.000000	67.000000	-39.000000	12.000000
0.910000	61.560000	29.750000	0.000000	1.000000	187.000000	67.000000	0.000000	0.000000
0.920000	61.060000	29.690000	0.000000	0.000000	187.000000	67.000000	-50.000000	-6.000000
0.930000	61.060000	29.560000	0.000000	0.000000	187.000000	66.000000	0.000000	-13.000000
0.940000	61.250000	29.490000	0.000000	0.000000	187.000000	66.000000	19.000000	-7.000000
0.950000	61.590000	29.490000	0.000000	0.000000	187.000000	66.000000	34.000000	0.000000
0.960000	62.090000	29.490000	0.000000	0.000000	184.000000	66.000000	50.000000	0.000000
0.970000	62.760000	29.570000	0.000000	0.000000	184.000000	66.000000	67.000000	8.000000
0.980000	63.540000	29.640000	0.000000	0.000000	185.000000	67.000000	78.000000	7.000000
0.990000	64.280000	29.740000	0.000000	0.000000	185.000000	67.000000	74.000000	10.000000
1.000000	64.280000	29.740000	6.000000	0.000000	185.000000	67.000000	0.000000	0.000000
1.010000	64.980000	29.930000	71.000000	1.000000	185.000000	67.000000	0.000000	0.000000
1.020000	64.820000	30.010000	105.000000	0.000000	185.000000	67.000000	-16.000000	8.000000
1.030000	64.490000	30.110000	139.000000	0.000000	185.000000	67.000000	-33.000000	10.000000
1.040000	64.040000	30.230000	193.000000	0.000000	184.000000	66.000000	-45.000000	12.000000
1.050000	63.520000	30.230000	233.000000	0.000000	187.000000	66.000000	-52.000000	0.000000
1.060000	63.010000	30.230000	287.000000	0.000000	187.000000	66.000000	-51.000000	0.000000
1.070000	62.670000	30.230000	324.000000	0.000000	187.000000	66.000000	-34.000000	0.000000
1.080000	62.440000	30.160000	336.000000	0.000000	187.000000	66.000000	-23.000000	-7.000000
1.090000	62.360000	30.030000	409.000000	0.000000	187.000000	66.000000	-8.000000	-13.000000
1.100000	62.480000	29.860000	472.000000	0.000000	187.000000	66.000000	12.000000	-17.000000
1.110000	62.730000	29.690000	538.000000	0.000000	187.000000	66.000000	25.000000	-17.000000
1.120000	63.080000	29.520000	605.000000	0.000000	187.000000	66.000000	35.000000	-17.000000
1.130000	63.490000	29.430000	671.000000	0.000000	184.000000	66.000000	41.000000	-9.000000
1.140000	63.940000	29.320000	731.000000	0.000000	184.000000	66.000000	45.000000	-11.000000
1.150000	64.260000	29.210000	767.000000	0.000000	184.000000	66.000000	32.000000	-11.000000
1.160000	64.360000	29.100000	785.000000	0.000000	184.000000	66.000000	10.000000	-11.000000
1.170000	64.310000	28.970000	811.000000	0.000000	185.000000	67.000000	-5.000000	-13.000000
1.180000	64.240000	28.790000	824.000000	0.000000	185.000000	67.000000	-7.000000	-18.000000
1.190000	64.020000	28.560000	823.000000	0.000000	185.000000	67.000000	-22.000000	-23.000000
1.200000	63.690000	28.350000	800.000000	0.000000	185.000000	67.000000	-33.000000	-21.000000
1.210000	63.480000	28.190000	755.000000	0.000000	185.000000	68.000000	-21.000000	-16.000000
1.220000	63.370000	28.190000	638.000000	0.000000	185.000000	68.000000	-11.000000	0.000000
1.230000	63.370000	28.190000	412.000000	0.000000	185.000000	68.000000	0.000000	0.000000
1.240000	63.250000	28.470000	15.000000	0.000000	185.000000	68.000000	-12.000000	28.000000
1.250000	63.250000	28.470000	0.000000	1.000000	185.000000	68.000000	0.000000	0.000000
1.260000	63.590000	29.400000	0.000000	0.000000	182.000000	68.000000	34.000000	93.000000
1.270000	63.730000	29.640000	0.000000	0.000000	182.000000	68.000000	14.000000	24.000000
1.280000	63.730000	29.640000	65.000000	1.000000	182.000000	68.000000	0.000000	0.000000
1.290000	63.980000	29.900000	151.000000	0.000000	182.000000	68.000000	25.000000	26.000000
1.300000	64.110000	29.900000	246.000000	0.000000	182.000000	68.000000	13.000000	0.000000
1.310000	64.270000	29.900000	315.000000	0.000000	182.000000	67.000000	16.000000	0.000000
1.320000	64.450000	29.840000	400.000000	0.000000	182.000000	67.000000	18.000000	-6.000000
1.330000	64.630000	29.760000	491.000000	0.000000	182.000000	67.000000	18.000000	-8.000000
1.340000	64.900000	29.700000	548.000000	0.000000	182.000000	67.000000	27.000000	-6.000000
1.350000	65.240000	29.600000	581.000000	0.000000	182.000000	67.000000	34.000000	-10.000000
1.360000	65.620000	29.680000	613.000000	0.000000	182.000000	67.000000	38.000000	8.000000
1.370000	65.940000	29.870000	645.000000	0.000000	182.000000	67.000000	32.000000	19.000000
1.380000	66.220000	30.040000	643.000000	0.000000	182.000000	67.000000	28.000000	17.000000
1.390000	66.220000	30.190000	652.000000	0.000000	185.000000	67.000000	0.000000	15.000000
1.400000	66.220000	30.330000	640.000000	0.000000	185.000000	67.000000	0.000000	14.000000
1.410000	66.220000	30.550000	642.000000	0.000000	185.000000	67.000000	0.000000	22.000000
1.420000	65.970000	30.820000	641.000000	0.000000	185.000000	67.000000	-25.000000	27.000000
1.430000	65.620000	30.970000	641.000000	0.000000	184.000000	66.000000	-35.000000	15.000000
1.440000	65.340000	30.970000	645.000000	0.000000	184.000000	66.000000	-28.000000	0.000000
1.450000	65.050000	30.870000	637.000000	0.000000	184.000000	66.000000	-29.000000	-10.000000
1.460000	64.800000	30.620000	641.000000	0.000000	184.000000	66.000000	-25.000000	-25.000000
1.470000	64.580000	30.220000	646.000000	0.000000	184.000000	65.000000	-22.000000	-40.000000
1.480000	64.390000	29.730000	643.000000	0.000000	184.000000	65.000000	-19.000000	-49.000000
1.490000	64.310000	29.310000	613.000000	0.000000	184.000000	66.000000	-8.000000	-42.000000
1.500000	64.310000	28.870000	522.000000	0.000000	184.000000	66.000000	0.000000	-44.000000
1.510000	64.520000	28.630000	285.000000	0.000000	184.000000	66.000000	21.000000	-24.000000
1.520000	64.520000	28.630000	0.000000	1.000000	185.000000	67.000000	0.000000	0.000000
1.530000	65.540000	28.740000	0.000000	0.000000	185.000000	67.000000	102.000000	11.000000
1.540000	66.170000	29.210000	0.000000	0.000000	185.000000	68.000000	63.000000	47.000000
1.550000	66.790000	29.850000	0.000000	0.000000	185.000000	68.000000	62.000000	64.000000
1.560000	67.410000	30.540000	0.000000	0.000000	185.000000	68.000000	62.000000	69.000000
1.570000	68.000000	31.320000	0.000000	0.000000	185.000000	68.000000	59.000000	78.000000
1.580000	68.360000	32.170000	0.000000	0.000000	187.000000	67.000000	36.000000	85.000000
1.590000	68.580000	32.970000	0.000000	0.000000	187.000000	67.000000	22.000000	80.000000
1.600000	68.790000	33.260000	0.000000	0.000000	189.000000	66.000000	21.000000	29.000000
1.610000	68.790000	33.260000	315.000000	1.000000	189.000000	65.000000	0.000000	0.000000
1.620000	68.640000	32.930000	341.000000	0.000000	189.000000	65.000000	-15.000000	-33.000000
1.630000	68.560000	32.560000	435.000000	0.000000	191.000000	65.000000	-8.000000	-37.000000
1.640000	68.420000	32.140000	542.000000	0.000000	190.000000	64.000000	-14.000000	-42.000000
1.650000	68.230000	31.550000	613.000000	0.000000	190.000000	64.000000	-19.000000	-59.000000
1.660000	68.090000	30.880000	671.000000	0.000000	188.000000	64.000000	-14.000000	-67.000000
1.670000	67.940000	30.180000	705.000000	0.000000	189.000000	65.000000	-15.000000	-70.000000
1.680000	67.780000	29.480000	725.000000	0.000000	189.000000	65.000000	-16.000000	-70.000000
1.690000	67.720000	29.110000	733.000000	0.000000	186.000000	65.000000	-6.000000	-37.000000
1.700000	67.720000	28.940000	743.000000	0.000000	187.000000	66.000000	0.000000	-17.000000
1.710000	67.720000	28.940000	783.000000	0.000000	184.000000	66.000000	0.000000	0.000000
1.720000	67.780000	28.940000	796.000000	0.000000	184.000000	66.000000	6.000000	0.000000
1.730000	67.890000	29.400000	817.000000	0.000000	185.000000	67.000000	11.000000	46.000000
1.740000	68.160000	30.070000	809.000000	0.000000	185.000000	67.000000	27.000000	67.000000
1.750000	68.390000	30.860000	790.000000	0.000000	185.000000	67.000000	23.000000	79.000000
1.760000	68.560000	32.000000	762.000000	0.000000	185.000000	67.000000	17.000000	114.000000
1.770000	68.710000	33.380000	753.000000	0.000000	185.000000	67.000000	15.000000	138.000000
1.780000	68.860000	34.740000	762.000000	0.000000	187.000000	66.000000	15.000000	136.000000
1.790000	68.990000	35.460000	770.000000	0.000000	187.000000	66.000000	13.000000	72.000000
1.800000	69.050000	35.750000	768.000000	0.000000	189.000000	66.000000	6.000000	29.000000
1.810000	69.050000	35.750000	780.000000	0.000000	191.000000	65.000000	0.000000	0.000000
1.820000	69.100000	35.400000	797.000000	0.000000	193.000000	64.000000	5.000000	-35.000000
1.830000	69.170000	34.900000	830.000000	0.000000	193.000000	64.000000	7.000000	-50.000000
1.840000	69.260000	33.990000	858.000000	0.000000	193.000000	64.000000	9.000000	-91.000000
1.850000	69.390000	32.870000	869.000000	0.000000	195.000000	64.000000	13.000000	-112.000000
1.860000	69.630000	31.600000	887.000000	0.000000	195.000000	64.000000	24.000000	-127.000000
1.870000	69.950000	30.760000	894.000000	0.000000	193.000000	64.000000	32.000000	-84.000000
1.880000	70.150000	30.130000	890.000000	0.000000	193.000000	64.000000	20.000000	-63.000000
1.890000	70.370000	29.640000	867.000000	0.000000	193.000000	64.000000	22.000000	-49.000000
1.900000	70.600000	29.360000	793.000000	0.000000	191.000000	66.000000	23.000000	-28.000000
1.910000	70.600000	29.280000	728.000000	0.000000	191.000000	66.000000	0.000000	-8.000000
1.920000	70.600000	29.340000	556.000000	0.000000	191.000000	66.000000	0.000000	6.000000
1.930000	70.390000	29.560000	314.000000	0.000000	192.000000	67.000000	-21.000000	22.000000
1.940000	69.980000	29.970000	240.000000	0.000000	192.000000	67.000000	-41.000000	41.000000
1.950000	69.350000	30.500000	139.000000	0.000000	192.000000	67.000000	-63.000000	53.000000
1.960000	68.680000	31.260000	339.000000	0.000000	192.000000	67.000000	-67.000000	76.000000
1.970000	67.980000	32.010000	453.000000	0.000000	192.000000	67.000000	-70.000000	75.000000
1.980000	67.980000	32.210000	536.000000	0.000000	189.000000	66.000000	0.000000	20.000000
1.990000	67.930000	32.060000	642.000000	0.000000	189.000000	66.000000	-5.000000	-15.000000
2.000000	68.080000	32.060000	719.000000	0.000000	189.000000	66.000000	15.000000	0.000000
2.010000	68.350000	31.940000	736.000000	0.000000	189.000000	65.000000	27.000000	-12.000000
2.020000	68.740000	31.800000	746.000000	0.000000	189.000000	65.000000	39.000000	-14.000000
2.030000	69.100000	31.800000	720.000000	0.000000	189.000000	65.000000	36.000000	0.000000
2.040000	69.420000	31.900000	666.000000	0.000000	188.000000	64.000000	32.000000	10.000000
2.050000	69.720000	32.160000	386.000000	0.000000	188.000000	64.000000	30.000000	26.000000
2.060000	69.720000	32.160000	0.000000	1.000000	191.000000	65.000000	0.000000	0.000000
2.070000	69.760000	32.880000	0.000000	0.000000	191.000000	65.000000	4.000000	72.000000
2.080000	69.600000	33.510000	0.000000	0.000000	191.000000	65.000000	-16.000000	63.000000
2.090000	69.490000	34.140000	0.000000	0.000000	191.000000	65.000000	-11.000000	63.000000
2.100000	69.410000	34.740000	0.000000	0.000000	191.000000	65.000000	-8.000000	60.000000
2.110000	69.460000	35.310000	0.000000	0.000000	193.000000	64.000000	5.000000	57.000000
2.120000	69.460000	35.310000	244.000000	1.000000	193.000000	64.000000	0.000000	0.000000
2.130000	69.720000	35.550000	257.000000	0.000000	193.000000	64.000000	26.000000	24.000000
2.140000	69.720000	35.550000	254.000000	0.000000	193.000000	64.000000	0.000000	0.000000
2.150000	69.720000	35.450000	249.000000	0.000000	193.000000	64.000000	0.000000	-10.000000
2.160000	69.720000	35.360000	132.000000	0.000000	195.000000	64.000000	0.000000	-9.000000
2.170000	69.720000	35.360000	0.000000	1.000000	195.000000	64.000000	0.000000	0.000000
2.180000	69.780000	34.910000	0.000000	0.000000	195.000000	64.000000	6.000000	-45.000000
2.190000	69.880000	34.580000	0.000000	0.000000	195.000000	64.000000	10.000000	-33.000000
2.200000	69.880000	34.350000	0.000000	0.000000	195.000000	64.000000	0.000000	-23.000000
