t	x	y	pressure	penup	azimuth	inclination	v_x	v_y
0.000000	12.590000	49.850000	210.000000	1.000000	146.000000	57.000000	0.000000	0.000000
0.010000	12.590000	49.850000	255.000000	0.000000	146.000000	57.000000	0.000000	0.000000
0.020000	12.590000	49.850000	351.000000	0.000000	144.000000	58.000000	0.000000	0.000000
0.030000	12.590000	49.850000	465.000000	0.000000	144.000000	58.000000	0.000000	0.000000
0.040000	12.920000	49.670000	559.000000	0.000000	143.000000	57.000000	33.000000	-18.000000
0.050000	13.060000	49.670000	639.000000	0.000000	143.000000	57.000000	14.000000	0.000000
0.060000	13.210000	49.670000	702.000000	0.000000	143.000000	57.000000	15.000000	0.000000
0.070000	13.340000	49.800000	743.000000	0.000000	144.000000	57.000000	13.000000	13.000000
0.080000	13.440000	49.970000	759.000000	0.000000	144.000000	57.000000	10.000000	17.000000
0.090000	13.510000	50.200000	790.000000	0.000000	144.000000	57.000000	7.000000	23.000000
0.100000	13.510000	50.380000	797.000000	0.000000	144.000000	57.000000	0.000000	18.000000
0.110000	13.410000	50.560000	808.000000	0.000000	144.000000	57.000000	-10.000000	18.000000
0.120000	13.300000	50.750000	818.000000	0.000000	144.000000	57.000000	-11.000000	19.000000
0.130000	13.160000	50.810000	815.000000	0.000000	144.000000	57.000000	-14.000000	6.000000
0.140000	12.900000	50.810000	815.000000	0.000000	145.000000	56.000000	-26.000000	0.000000
0.150000	12.560000	50.650000	812.000000	0.000000	145.000000	56.000000	-34.000000	-16.000000
0.160000	12.250000	50.380000	812.000000	0.000000	145.000000	56.000000	-31.000000	-27.000000
0.170000	11.970000	49.980000	815.000000	0.000000	145.000000	56.000000	-28.000000	-40.000000
0.180000	11.770000	49.380000	818.000000	0.000000	145.000000	56.000000	-20.000000	-60.000000
0.190000	11.660000	48.640000	817.000000	0.000000	144.000000	57.000000	-11.000000	-74.000000
0.200000	11.660000	47.960000	824.000000	0.000000	144.000000	57.000000	0.000000	-68.000000
0.210000	11.860000	47.530000	829.000000	0.000000	144.000000	57.000000	20.000000	-43.000000
0.220000	12.150000	47.270000	825.000000	0.000000	143.000000	57.000000	29.000000	-26.000000
0.230000	12.460000	47.150000	839.000000	0.000000	143.000000	57.000000	31.000000	-12.000000
0.240000	12.780000	47.220000	855.000000	0.000000	142.000000	58.000000	32.000000	7.000000
0.250000	13.010000	47.420000	863.000000	0.000000	142.000000	58.000000	23.000000	20.000000
0.260000	13.170000	47.620000	882.000000	0.000000	142.000000	58.000000	16.000000	20.000000
0.270000	13.270000	47.880000	896.000000	0.000000	142.000000	58.000000	10.000000	26.000000
0.280000	13.270000	48.170000	906.000000	0.000000	142.000000	58.000000	0.000000	29.000000
0.290000	13.170000	48.480000	908.000000	0.000000	142.000000	58.000000	-10.000000	31.000000
0.300000	13.040000	48.630000	900.000000	0.000000	142.000000	58.000000	-13.000000	15.000000
0.310000	12.800000	48.680000	900.000000	0.000000	142.000000	58.000000	-24.000000	5.000000
0.320000	12.480000	48.600000	900.000000	0.000000	142.000000	58.000000	-32.000000	-8.000000
0.330000	12.150000	48.350000	897.000000	0.000000	143.000000	57.000000	-33.000000	-25.000000
0.340000	11.790000	47.980000	905.000000	0.000000	142.000000	58.000000	-36.000000	-37.000000
0.350000	11.420000	47.530000	906.000000	0.000000	142.000000	58.000000	-37.000000	-45.000000
0.360000	11.120000	47.040000	892.000000	0.000000	142.000000	58.000000	-30.000000	-49.000000
0.370000	10.830000	46.470000	908.000000	0.000000	141.000000	59.000000	-29.000000	-57.000000
0.380000	10.750000	45.870000	909.000000	0.000000	141.000000	59.000000	-8.000000	-60.000000
0.390000	10.800000	45.440000	894.000000	0.000000	141.000000	59.000000	5.000000	-43.000000
0.400000	11.060000	45.160000	896.000000	0.000000	139.000000	60.000000	26.000000	-28.000000
0.410000	11.340000	44.970000	903.000000	0.000000	139.000000	60.000000	28.000000	-19.000000
0.420000	11.620000	44.850000	911.000000	0.000000	139.000000	60.000000	28.000000	-12.000000
0.430000	11.910000	44.850000	914.000000	0.000000	138.000000	60.000000	29.000000	0.000000
0.440000	12.250000	45.000000	912.000000	0.000000	138.000000	60.000000	34.000000	15.000000
0.450000	12.550000	45.280000	908.000000	0.000000	138.000000	60.000000	30.000000	28.000000
0.460000	12.800000	45.430000	890.000000	0.000000	138.000000	60.000000	25.000000	15.000000
0.470000	12.870000	45.490000	787.000000	0.000000	138.000000	60.000000	7.000000	6.000000
0.480000	12.870000	45.490000	367.000000	0.000000	138.000000	60.000000	0.000000	0.000000
0.490000	12.870000	45.490000	0.000000	1.000000	138.000000	60.000000	0.000000	0.000000
0.500000	12.670000	45.680000	0.000000	0.000000	139.000000	61.000000	-20.000000	19.000000
0.510000	12.550000	45.840000	0.000000	0.000000	139.000000	61.000000	-12.000000	16.000000
0.520000	12.610000	46.020000	0.000000	0.000000	139.000000	61.000000	6.000000	18.000000
0.530000	12.780000	46.180000	0.000000	0.000000	139.000000	61.000000	17.000000	16.000000
0.540000	13.090000	46.330000	0.000000	0.000000	141.000000	60.000000	31.000000	15.000000
0.550000	13.420000	46.450000	0.000000	0.000000	142.000000	59.000000	33.000000	12.000000
0.560000	13.760000	46.600000	0.000000	0.000000	144.000000	60.000000	34.000000	15.000000
0.570000	13.970000	46.720000	0.000000	0.000000	145.000000	59.000000	21.000000	12.000000
0.580000	14.090000	46.830000	0.000000	0.000000	145.000000	59.000000	12.000000	11.000000
0.590000	14.190000	46.830000	0.000000	0.000000	146.000000	58.000000	10.000000	0.000000
0.600000	14.190000	46.830000	458.000000	1.000000	146.000000	58.000000	0.000000	0.000000
0.610000	14.190000	46.830000	535.000000	0.000000	145.000000	59.000000	0.000000	0.000000
0.620000	14.190000	46.830000	655.000000	0.000000	145.000000	59.000000	0.000000	0.000000
0.630000	13.910000	47.020000	690.000000	0.000000	145.000000	59.000000	-28.000000	19.000000
0.640000	13.860000	46.970000	724.000000	0.000000	144.000000	60.000000	-5.000000	-5.000000
0.650000	13.860000	46.710000	762.000000	0.000000	144.000000	60.000000	0.000000	-26.000000
0.660000	13.860000	46.300000	815.000000	0.000000	141.000000	60.000000	0.000000	-41.000000
0.670000	13.860000	45.660000	824.000000	0.000000	141.000000	60.000000	0.000000	-64.000000
0.680000	14.010000	45.140000	845.000000	0.000000	141.000000	60.000000	15.000000	-52.000000
0.690000	14.320000	44.690000	854.000000	0.000000	141.000000	60.000000	31.000000	-45.000000
0.700000	14.740000	44.470000	864.000000	0.000000	141.000000	60.000000	42.000000	-22.000000
0.710000	15.210000	44.470000	866.000000	0.000000	141.000000	61.000000	47.000000	0.000000
0.720000	15.670000	44.640000	853.000000	0.000000	141.000000	61.000000	46.000000	17.000000
0.730000	16.130000	45.030000	853.000000	0.000000	141.000000	61.000000	46.000000	39.000000
0.740000	16.340000	45.390000	864.000000	0.000000	143.000000	62.000000	21.000000	36.000000
0.750000	16.340000	45.710000	863.000000	0.000000	143.000000	62.000000	0.000000	32.000000
0.760000	16.220000	46.100000	852.000000	0.000000	143.000000	62.000000	-12.000000	39.000000
0.770000	15.940000	46.530000	851.000000	0.000000	144.000000	62.000000	-28.000000	43.000000
0.780000	15.580000	46.850000	846.000000	0.000000	144.000000	62.000000	-36.000000	32.000000
0.790000	15.240000	47.020000	848.000000	0.000000	144.000000	62.000000	-34.000000	17.000000
0.800000	14.980000	47.090000	848.000000	0.000000	146.000000	62.000000	-26.000000	7.000000
0.810000	14.780000	47.090000	842.000000	0.000000	144.000000	61.000000	-20.000000	0.000000
0.820000	14.780000	47.090000	837.000000	0.000000	144.000000	61.000000	0.000000	0.000000
0.830000	14.780000	47.040000	837.000000	0.000000	144.000000	61.000000	0.000000	-5.000000
0.840000	14.920000	46.970000	842.000000	0.000000	144.000000	61.000000	14.000000	-7.000000
0.850000	15.120000	46.970000	861.000000	0.000000	144.000000	60.000000	20.000000	0.000000
0.860000	15.450000	46.920000	854.000000	0.000000	144.000000	60.000000	33.000000	-5.000000
0.870000	15.860000	46.980000	866.000000	0.000000	144.000000	60.000000	41.000000	6.000000
0.880000	16.080000	47.080000	869.000000	0.000000	145.000000	60.000000	22.000000	10.000000
0.890000	16.300000	47.210000	863.000000	0.000000	145.000000	60.000000	22.000000	13.000000
0.900000	16.400000	47.260000	796.000000	0.000000	145.000000	60.000000	10.000000	5.000000
0.910000	16.400000	47.260000	522.000000	0.000000	147.000000	61.000000	0.000000	0.000000
0.920000	16.400000	47.260000	0.000000	1.000000	147.000000	61.000000	0.000000	0.000000
0.930000	16.500000	47.120000	0.000000	0.000000	147.000000	61.000000	10.000000	-14.000000
0.940000	16.650000	47.020000	0.000000	0.000000	148.000000	61.000000	15.000000	-10.000000
0.950000	16.860000	46.920000	0.000000	0.000000	148.000000	61.000000	21.000000	-10.000000
0.960000	17.140000	46.830000	0.000000	0.000000	148.000000	61.000000	28.000000	-9.000000
0.970000	17.560000	46.740000	0.000000	0.000000	150.000000	62.000000	42.000000	-9.000000
0.980000	18.070000	46.740000	0.000000	0.000000	150.000000	62.000000	51.000000	0.000000
0.990000	18.470000	46.740000	0.000000	0.000000	150.000000	62.000000	40.000000	0.000000
1.000000	18.470000	46.740000	413.000000	1.000000	152.000000	62.000000	0.000000	0.000000
1.010000	18.800000	46.840000	543.000000	0.000000	152.000000	62.000000	33.000000	10.000000
1.020000	18.740000	47.040000	682.000000	0.000000	152.000000	62.000000	-6.000000	20.000000
1.030000	18.630000	47.210000	817.000000	0.000000	154.000000	63.000000	-11.000000	17.000000
1.040000	18.490000	47.320000	855.000000	0.000000	154.000000	63.000000	-14.000000	11.000000
1.050000	18.360000	47.320000	890.000000	0.000000	154.000000	63.000000	-13.000000	0.000000
1.060000	18.100000	47.240000	906.000000	0.000000	154.000000	63.000000	-26.000000	-8.000000
1.070000	17.750000	47.090000	918.000000	0.000000	154.000000	63.000000	-35.000000	-15.000000
1.080000	17.500000	46.740000	926.000000	0.000000	154.000000	63.000000	-25.000000	-35.000000
1.090000	17.290000	46.260000	939.000000	0.000000	154.000000	63.000000	-21.000000	-48.000000
1.100000	17.290000	45.650000	947.000000	0.000000	154.000000	63.000000	0.000000	-61.000000
1.110000	17.420000	45.180000	945.000000	0.000000	154.000000	63.000000	13.000000	-47.000000
1.120000	17.670000	44.810000	945.000000	0.000000	153.000000	63.000000	25.000000	-37.000000
1.130000	17.980000	44.640000	942.000000	0.000000	151.000000	63.000000	31.000000	-17.000000
1.140000	18.340000	44.640000	939.000000	0.000000	151.000000	63.000000	36.000000	0.000000
1.150000	18.540000	44.800000	926.000000	0.000000	151.000000	63.000000	20.000000	16.000000
1.160000	18.750000	45.010000	912.000000	0.000000	151.000000	63.000000	21.000000	21.000000
1.170000	18.900000	45.310000	909.000000	0.000000	151.000000	63.000000	15.000000	30.000000
1.180000	19.000000	45.660000	867.000000	0.000000	151.000000	63.000000	10.000000	35.000000
1.190000	19.000000	46.030000	861.000000	0.000000	153.000000	63.000000	0.000000	37.000000
1.200000	19.000000	46.190000	855.000000	0.000000	153.000000	63.000000	0.000000	16.000000
1.210000	18.940000	46.190000	861.000000	0.000000	151.000000	64.000000	-6.000000	0.000000
1.220000	18.940000	46.130000	861.000000	0.000000	151.000000	64.000000	0.000000	-6.000000
1.230000	18.940000	46.020000	854.000000	0.000000	151.000000	64.000000	0.000000	-11.000000
1.240000	19.010000	45.830000	796.000000	0.000000	151.000000	64.000000	7.000000	-19.000000
1.250000	19.150000	45.620000	691.000000	0.000000	151.000000	64.000000	14.000000	-21.000000
1.260000	19.560000	45.450000	398.000000	0.000000	151.000000	64.000000	41.000000	-17.000000
1.270000	19.560000	45.450000	0.000000	1.000000	151.000000	64.000000	0.000000	0.000000
1.280000	20.770000	45.580000	0.000000	0.000000	150.000000	64.000000	121.000000	13.000000
1.290000	21.360000	45.880000	0.000000	0.000000	151.000000	63.000000	59.000000	30.000000
1.300000	21.910000	46.230000	0.000000	0.000000	151.000000	63.000000	55.000000	35.000000
1.310000	22.450000	46.610000	0.000000	0.000000	151.000000	63.000000	54.000000	38.000000
1.320000	22.990000	47.040000	0.000000	0.000000	149.000000	63.000000	54.000000	43.000000
1.330000	23.420000	47.650000	0.000000	0.000000	150.000000	62.000000	43.000000	61.000000
1.340000	23.770000	48.380000	0.000000	0.000000	150.000000	62.000000	35.000000	73.000000
1.350000	23.940000	49.320000	0.000000	0.000000	150.000000	60.000000	17.000000	94.000000
1.360000	23.940000	49.320000	478.000000	1.000000	150.000000	60.000000	0.000000	0.000000
1.370000	24.120000	50.470000	554.000000	0.000000	151.000000	60.000000	18.000000	115.000000
1.380000	24.120000	50.810000	652.000000	0.000000	152.000000	59.000000	0.000000	34.000000
1.390000	24.010000	50.810000	714.000000	0.000000	150.000000	58.000000	-11.000000	0.000000
1.400000	23.920000	50.560000	762.000000	0.000000	151.000000	58.000000	-9.000000	-25.000000
1.410000	23.800000	50.120000	811.000000	0.000000	151.000000	58.000000	-12.000000	-44.000000
1.420000	23.670000	49.300000	861.000000	0.000000	151.000000	58.000000	-13.000000	-82.000000
1.430000	23.670000	48.230000	906.000000	0.000000	151.000000	58.000000	0.000000	-107.000000
1.440000	23.670000	47.000000	905.000000	0.000000	151.000000	58.000000	0.000000	-123.000000
1.450000	23.750000	46.020000	914.000000	0.000000	150.000000	58.000000	8.000000	-98.000000
1.460000	23.870000	45.210000	921.000000	0.000000	149.000000	59.000000	12.000000	-81.000000
1.470000	24.010000	44.750000	923.000000	0.000000	148.000000	60.000000	14.000000	-46.000000
1.480000	24.190000	44.620000	926.000000	0.000000	147.000000	61.000000	18.000000	-13.000000
1.490000	24.360000	44.700000	917.000000	0.000000	148.000000	61.000000	17.000000	8.000000
1.500000	24.520000	45.020000	893.000000	0.000000	147.000000	62.000000	16.000000	32.000000
1.510000	24.520000	45.510000	863.000000	0.000000	147.000000	62.000000	0.000000	49.000000
1.520000	24.450000	46.110000	834.000000	0.000000	147.000000	62.000000	-7.000000	60.000000
1.530000	24.140000	46.860000	733.000000	0.000000	147.000000	62.000000	-31.000000	75.000000
1.540000	23.650000	47.790000	710.000000	0.000000	147.000000	62.000000	-49.000000	93.000000
1.550000	23.040000	48.850000	679.000000	0.000000	147.000000	62.000000	-61.000000	106.000000
1.560000	22.330000	49.450000	678.000000	0.000000	148.000000	61.000000	-71.000000	60.000000
1.570000	21.550000	49.690000	690.000000	0.000000	150.000000	60.000000	-78.000000	24.000000
1.580000	20.720000	49.690000	690.000000	0.000000	150.000000	60.000000	-83.000000	0.000000
1.590000	20.040000	49.480000	722.000000	0.000000	151.000000	60.000000	-68.000000	-21.000000
1.600000	19.650000	49.270000	733.000000	0.000000	152.000000	59.000000	-39.000000	-21.000000
1.610000	19.440000	48.900000	787.000000	0.000000	152.000000	59.000000	-21.000000	-37.000000
1.620000	19.510000	48.430000	824.000000	0.000000	152.000000	59.000000	7.000000	-47.000000
1.630000	19.880000	48.050000	855.000000	0.000000	152.000000	59.000000	37.000000	-38.000000
1.640000	20.460000	47.940000	908.000000	0.000000	152.000000	59.000000	58.000000	-11.000000
1.650000	21.620000	48.020000	930.000000	0.000000	152.000000	59.000000	116.000000	8.000000
1.660000	22.720000	48.250000	946.000000	0.000000	152.000000	59.000000	110.000000	23.000000
1.670000	23.790000	48.630000	959.000000	0.000000	152.000000	59.000000	107.000000	38.000000
1.680000	24.660000	49.120000	968.000000	0.000000	152.000000	59.000000	87.000000	49.000000
1.690000	25.170000	49.310000	971.000000	0.000000	150.000000	58.000000	51.000000	19.000000
1.700000	25.440000	49.450000	956.000000	0.000000	150.000000	58.000000	27.000000	14.000000
1.710000	25.440000	49.450000	879.000000	0.000000	150.000000	58.000000	0.000000	0.000000
1.720000	25.280000	49.450000	602.000000	0.000000	150.000000	58.000000	-16.000000	0.000000
1.730000	25.280000	49.450000	0.000000	1.000000	150.000000	58.000000	0.000000	0.000000
1.740000	24.450000	48.870000	0.000000	0.000000	151.000000	58.000000	-83.000000	-58.000000
1.750000	24.160000	48.690000	0.000000	0.000000	150.000000	58.000000	-29.000000	-18.000000
1.760000	24.020000	48.540000	0.000000	0.000000	150.000000	58.000000	-14.000000	-15.000000
1.770000	24.020000	48.420000	0.000000	0.000000	150.000000	58.000000	0.000000	-12.000000
1.780000	24.120000	48.140000	0.000000	0.000000	150.000000	58.000000	10.000000	-28.000000
1.790000	24.250000	47.820000	0.000000	0.000000	152.000000	59.000000	13.000000	-32.000000
1.800000	24.430000	47.430000	0.000000	0.000000	152.000000	59.000000	18.000000	-39.000000
1.810000	24.660000	47.050000	0.000000	0.000000	152.000000	59.000000	23.000000	-38.000000
1.820000	24.920000	46.740000	0.000000	0.000000	153.000000	59.000000	26.000000	-31.000000
1.830000	25.200000	46.480000	0.000000	0.000000	153.000000	59.000000	28.000000	-26.000000
1.840000	25.200000	46.480000	449.000000	1.000000	155.000000	60.000000	0.000000	0.000000
1.850000	25.810000	46.080000	496.000000	0.000000	154.000000	60.000000	61.000000	-40.000000
1.860000	26.010000	46.080000	644.000000	0.000000	154.000000	60.000000	20.000000	0.000000
1.870000	26.140000	46.160000	720.000000	0.000000	153.000000	61.000000	13.000000	8.000000
1.880000	26.420000	46.300000	787.000000	0.000000	152.000000	62.000000	28.000000	14.000000
1.890000	26.700000	46.500000	817.000000	0.000000	151.000000	63.000000	28.000000	20.000000
1.900000	26.960000	46.670000	870.000000	0.000000	151.000000	63.000000	26.000000	17.000000
1.910000	27.110000	46.860000	906.000000	0.000000	151.000000	63.000000	15.000000	19.000000
1.920000	27.200000	47.030000	926.000000	0.000000	151.000000	63.000000	9.000000	17.000000
1.930000	27.200000	47.320000	936.000000	0.000000	151.000000	63.000000	0.000000	29.000000
1.940000	27.200000	47.700000	941.000000	0.000000	151.000000	63.000000	0.000000	38.000000
1.950000	27.100000	48.020000	941.000000	0.000000	152.000000	62.000000	-10.000000	32.000000
1.960000	26.840000	48.250000	939.000000	0.000000	150.000000	62.000000	-26.000000	23.000000
1.970000	26.700000	48.310000	933.000000	0.000000	151.000000	61.000000	-14.000000	6.000000
1.980000	26.650000	48.310000	929.000000	0.000000	151.000000	61.000000	-5.000000	0.000000
1.990000	26.320000	48.010000	933.000000	0.000000	152.000000	60.000000	-33.000000	-30.000000
2.000000	26.010000	47.530000	935.000000	0.000000	152.000000	60.000000	-31.000000	-48.000000
2.010000	25.890000	47.020000	935.000000	0.000000	153.000000	61.000000	-12.000000	-51.000000
2.020000	25.890000	46.490000	939.000000	0.000000	153.000000	61.000000	0.000000	-53.000000
2.030000	25.950000	45.960000	941.000000	0.000000	153.000000	61.000000	6.000000	-53.000000
2.040000	26.220000	45.640000	939.000000	0.000000	152.000000	62.000000	27.000000	-32.000000
2.050000	26.610000	45.520000	923.000000	0.000000	152.000000	62.000000	39.000000	-12.000000
2.060000	27.070000	45.520000	879.000000	0.000000	151.000000	63.000000	46.000000	0.000000
2.070000	27.500000	45.640000	751.000000	0.000000	151.000000	63.000000	43.000000	12.000000
2.080000	27.910000	45.810000	513.000000	0.000000	151.000000	63.000000	41.000000	17.000000
2.090000	27.910000	45.810000	0.000000	1.000000	151.000000	63.000000	0.000000	0.000000
2.100000	28.660000	46.280000	0.000000	0.000000	151.000000	63.000000	75.000000	47.000000
2.110000	28.940000	46.530000	0.000000	0.000000	151.000000	63.000000	28.000000	25.000000
2.120000	29.180000	46.830000	0.000000	0.000000	151.000000	63.000000	24.000000	30.000000
2.130000	29.310000	47.160000	0.000000	0.000000	151.000000	63.000000	13.000000	33.000000
2.140000	29.370000	47.460000	0.000000	0.000000	153.000000	63.000000	6.000000	30.000000
2.150000	29.370000	47.460000	279.000000	1.000000	153.000000	63.000000	0.000000	0.000000
2.160000	29.240000	48.100000	442.000000	0.000000	153.000000	63.000000	-13.000000	64.000000
2.170000	29.160000	48.280000	602.000000	0.000000	154.000000	63.000000	-8.000000	18.000000
2.180000	29.160000	48.280000	699.000000	0.000000	155.000000	63.000000	0.000000	0.000000
2.190000	29.160000	48.280000	722.000000	0.000000	156.000000	62.000000	0.000000	0.000000
2.200000	29.160000	48.080000	771.000000	0.000000	156.000000	62.000000	0.000000	-20.000000
2.210000	29.160000	47.700000	809.000000	0.000000	156.000000	62.000000	0.000000	-38.000000
