t	x	y	pressure	penup	azimuth	inclination	v_x	v_y
0.000000	14.490000	13.410000	48.000000	1.000000	170.000000	63.000000	0.000000	0.000000
0.010000	14.380000	13.750000	110.000000	0.000000	170.000000	64.000000	-11.000000	34.000000
0.020000	14.330000	13.860000	200.000000	0.000000	168.000000	63.000000	-5.000000	11.000000
0.030000	14.280000	13.930000	270.000000	0.000000	166.000000	63.000000	-5.000000	7.000000
0.040000	14.280000	13.980000	327.000000	0.000000	164.000000	63.000000	0.000000	5.000000
0.050000	14.210000	13.980000	369.000000	0.000000	164.000000	63.000000	-7.000000	0.000000
0.060000	14.210000	13.980000	415.000000	0.000000	164.000000	63.000000	0.000000	0.000000
0.070000	14.210000	13.980000	450.000000	0.000000	162.000000	63.000000	0.000000	0.000000
0.080000	14.210000	13.980000	473.000000	0.000000	162.000000	63.000000	0.000000	0.000000
0.090000	14.210000	13.980000	502.000000	0.000000	162.000000	63.000000	0.000000	0.000000
0.100000	14.210000	13.900000	526.000000	0.000000	160.000000	63.000000	0.000000	-8.000000
0.110000	14.270000	13.730000	540.000000	0.000000	162.000000	63.000000	6.000000	-17.000000
0.120000	14.370000	13.500000	564.000000	0.000000	161.000000	64.000000	10.000000	-23.000000
0.130000	14.500000	13.240000	591.000000	0.000000	161.000000	64.000000	13.000000	-26.000000
0.140000	14.710000	12.890000	586.000000	0.000000	163.000000	64.000000	21.000000	-35.000000
0.150000	14.950000	12.560000	599.000000	0.000000	162.000000	65.000000	24.000000	-33.000000
0.160000	15.250000	12.250000	602.000000	0.000000	165.000000	65.000000	30.000000	-31.000000
0.170000	15.580000	11.940000	606.000000	0.000000	166.000000	66.000000	33.000000	-31.000000
0.180000	15.940000	11.650000	606.000000	0.000000	165.000000	67.000000	36.000000	-29.000000
0.190000	16.360000	11.380000	614.000000	0.000000	167.000000	69.000000	42.000000	-27.000000
0.200000	16.790000	11.240000	614.000000	0.000000	167.000000	69.000000	43.000000	-14.000000
0.210000	17.130000	11.190000	606.000000	0.000000	164.000000	69.000000	34.000000	-5.000000
0.220000	17.400000	11.250000	597.000000	0.000000	161.000000	69.000000	27.000000	6.000000
0.230000	17.520000	11.380000	595.000000	0.000000	158.000000	70.000000	12.000000	13.000000
0.240000	17.520000	11.550000	595.000000	0.000000	155.000000	69.000000	0.000000	17.000000
0.250000	17.430000	11.740000	592.000000	0.000000	153.000000	69.000000	-9.000000	19.000000
0.260000	17.160000	11.920000	591.000000	0.000000	151.000000	68.000000	-27.000000	18.000000
0.270000	16.710000	12.080000	563.000000	0.000000	148.000000	68.000000	-45.000000	16.000000
0.280000	16.130000	11.990000	519.000000	0.000000	151.000000	68.000000	-58.000000	-9.000000
0.290000	15.440000	11.730000	512.000000	0.000000	151.000000	68.000000	-69.000000	-26.000000
0.300000	14.790000	11.450000	515.000000	0.000000	155.000000	69.000000	-65.000000	-28.000000
0.310000	14.220000	11.180000	520.000000	0.000000	159.000000	69.000000	-57.000000	-27.000000
0.320000	13.930000	11.050000	521.000000	0.000000	161.000000	69.000000	-29.000000	-13.000000
0.330000	13.800000	11.050000	540.000000	0.000000	161.000000	69.000000	-13.000000	0.000000
0.340000	13.890000	11.050000	567.000000	0.000000	164.000000	69.000000	9.000000	0.000000
0.350000	14.000000	11.290000	583.000000	0.000000	164.000000	69.000000	11.000000	24.000000
0.360000	14.320000	11.660000	586.000000	0.000000	166.000000	69.000000	32.000000	37.000000
0.370000	14.770000	12.270000	588.000000	0.000000	166.000000	69.000000	45.000000	61.000000
0.380000	15.230000	13.100000	577.000000	0.000000	164.000000	69.000000	46.000000	83.000000
0.390000	15.650000	14.080000	570.000000	0.000000	166.000000	69.000000	42.000000	98.000000
0.400000	15.940000	15.280000	564.000000	0.000000	167.000000	69.000000	29.000000	120.000000
0.410000	16.150000	16.510000	566.000000	0.000000	167.000000	69.000000	21.000000	123.000000
0.420000	16.280000	17.770000	563.000000	0.000000	168.000000	68.000000	13.000000	126.000000
0.430000	16.340000	18.720000	563.000000	0.000000	167.000000	69.000000	6.000000	95.000000
0.440000	16.340000	19.290000	569.000000	0.000000	167.000000	69.000000	0.000000	57.000000
0.450000	16.240000	19.620000	577.000000	0.000000	165.000000	68.000000	-10.000000	33.000000
0.460000	16.130000	19.710000	581.000000	0.000000	164.000000	69.000000	-11.000000	9.000000
0.470000	16.000000	19.760000	578.000000	0.000000	164.000000	69.000000	-13.000000	5.000000
0.480000	15.900000	19.470000	581.000000	0.000000	166.000000	70.000000	-10.000000	-29.000000
0.490000	15.720000	18.970000	586.000000	0.000000	165.000000	71.000000	-18.000000	-50.000000
0.500000	15.490000	17.940000	586.000000	0.000000	165.000000	71.000000	-23.000000	-103.000000
0.510000	15.340000	16.420000	592.000000	0.000000	168.000000	72.000000	-15.000000	-152.000000
0.520000	15.260000	14.580000	592.000000	0.000000	171.000000	71.000000	-8.000000	-184.000000
0.530000	15.260000	12.940000	585.000000	0.000000	172.000000	70.000000	0.000000	-164.000000
0.540000	15.400000	11.610000	585.000000	0.000000	175.000000	70.000000	14.000000	-133.000000
0.550000	15.540000	10.500000	586.000000	0.000000	177.000000	70.000000	14.000000	-111.000000
0.560000	15.850000	9.800000	585.000000	0.000000	180.000000	69.000000	31.000000	-70.000000
0.570000	16.160000	9.310000	589.000000	0.000000	180.000000	69.000000	31.000000	-49.000000
0.580000	16.480000	8.950000	594.000000	0.000000	180.000000	70.000000	32.000000	-36.000000
0.590000	16.660000	8.810000	581.000000	0.000000	180.000000	70.000000	18.000000	-14.000000
0.600000	16.750000	8.810000	575.000000	0.000000	177.000000	71.000000	9.000000	0.000000
0.610000	16.750000	8.910000	567.000000	0.000000	171.000000	71.000000	0.000000	10.000000
0.620000	16.610000	9.260000	543.000000	0.000000	169.000000	71.000000	-14.000000	35.000000
0.630000	16.350000	9.850000	522.000000	0.000000	166.000000	70.000000	-26.000000	59.000000
0.640000	15.850000	10.590000	504.000000	0.000000	166.000000	70.000000	-50.000000	74.000000
0.650000	15.110000	11.190000	519.000000	0.000000	166.000000	70.000000	-74.000000	60.000000
0.660000	14.200000	11.590000	510.000000	0.000000	166.000000	70.000000	-91.000000	40.000000
0.670000	13.240000	11.870000	522.000000	0.000000	169.000000	70.000000	-96.000000	28.000000
0.680000	12.320000	12.000000	519.000000	0.000000	172.000000	70.000000	-92.000000	13.000000
0.690000	11.420000	12.130000	537.000000	0.000000	175.000000	69.000000	-90.000000	13.000000
0.700000	10.740000	12.240000	556.000000	0.000000	175.000000	68.000000	-68.000000	11.000000
0.710000	10.480000	12.340000	581.000000	0.000000	175.000000	68.000000	-26.000000	10.000000
0.720000	10.480000	12.420000	595.000000	0.000000	173.000000	67.000000	0.000000	8.000000
0.730000	10.850000	12.360000	655.000000	0.000000	169.000000	66.000000	37.000000	-6.000000
0.740000	11.780000	12.290000	731.000000	0.000000	169.000000	66.000000	93.000000	-7.000000
0.750000	13.090000	12.190000	842.000000	0.000000	169.000000	66.000000	131.000000	-10.000000
0.760000	15.020000	12.190000	897.000000	0.000000	169.000000	66.000000	193.000000	0.000000
0.770000	17.770000	12.190000	915.000000	0.000000	167.000000	65.000000	275.000000	0.000000
0.780000	21.070000	12.350000	917.000000	0.000000	166.000000	66.000000	330.000000	16.000000
0.790000	24.570000	12.710000	906.000000	0.000000	165.000000	67.000000	350.000000	36.000000
0.800000	28.210000	13.180000	812.000000	0.000000	161.000000	69.000000	364.000000	47.000000
0.810000	31.950000	13.610000	453.000000	0.000000	160.000000	70.000000	374.000000	43.000000
0.820000	31.950000	13.610000	0.000000	1.000000	159.000000	71.000000	0.000000	0.000000
0.830000	37.150000	14.400000	0.000000	0.000000	158.000000	72.000000	520.000000	79.000000
0.840000	38.650000	14.690000	0.000000	0.000000	155.000000	71.000000	150.000000	29.000000
0.850000	39.150000	14.990000	0.000000	0.000000	153.000000	71.000000	50.000000	30.000000
0.860000	39.890000	15.320000	0.000000	0.000000	150.000000	71.000000	74.000000	33.000000
0.870000	40.800000	15.640000	0.000000	0.000000	149.000000	69.000000	91.000000	32.000000
0.880000	41.560000	15.780000	0.000000	0.000000	150.000000	67.000000	76.000000	14.000000
0.890000	42.330000	15.780000	0.000000	0.000000	150.000000	65.000000	77.000000	0.000000
0.900000	42.260000	15.590000	0.000000	0.000000	150.000000	62.000000	-7.000000	-19.000000
0.910000	41.630000	15.340000	0.000000	0.000000	150.000000	58.000000	-63.000000	-25.000000
0.920000	40.420000	15.000000	0.000000	0.000000	150.000000	54.000000	-121.000000	-34.000000
0.930000	38.840000	14.600000	0.000000	0.000000	152.000000	51.000000	-158.000000	-40.000000
0.940000	37.010000	14.170000	0.000000	0.000000	153.000000	48.000000	-183.000000	-43.000000
0.950000	35.400000	13.690000	0.000000	0.000000	155.000000	45.000000	-161.000000	-48.000000
0.960000	34.040000	13.470000	0.000000	0.000000	158.000000	43.000000	-136.000000	-22.000000
0.970000	32.850000	13.470000	0.000000	0.000000	159.000000	42.000000	-119.000000	0.000000
0.980000	31.720000	13.270000	0.000000	0.000000	159.000000	41.000000	-113.000000	-20.000000
0.990000	30.460000	13.270000	0.000000	0.000000	159.000000	41.000000	-126.000000	0.000000
1.000000	29.110000	13.270000	0.000000	0.000000	158.000000	42.000000	-135.000000	0.000000
1.010000	27.800000	13.320000	0.000000	0.000000	157.000000	43.000000	-131.000000	5.000000
1.020000	26.550000	13.250000	0.000000	0.000000	156.000000	44.000000	-125.000000	-7.000000
1.030000	25.760000	13.300000	0.000000	0.000000	153.000000	46.000000	-79.000000	5.000000
1.040000	25.250000	13.480000	0.000000	0.000000	150.000000	47.000000	-51.000000	18.000000
1.050000	24.850000	13.730000	0.000000	0.000000	147.000000	48.000000	-40.000000	25.000000
1.060000	24.430000	13.950000	0.000000	0.000000	145.000000	50.000000	-42.000000	22.000000
1.070000	24.000000	14.160000	0.000000	0.000000	145.000000	51.000000	-43.000000	21.000000
1.080000	23.360000	14.250000	0.000000	0.000000	146.000000	53.000000	-64.000000	9.000000
1.090000	22.780000	14.320000	0.000000	0.000000	149.000000	55.000000	-58.000000	7.000000
1.100000	22.370000	14.390000	0.000000	0.000000	151.000000	56.000000	-41.000000	7.000000
1.110000	22.040000	14.460000	0.000000	0.000000	151.000000	58.000000	-33.000000	7.000000
1.120000	21.740000	14.590000	0.000000	0.000000	153.000000	58.000000	-30.000000	13.000000
1.130000	21.440000	14.750000	0.000000	0.000000	150.000000	58.000000	-30.000000	16.000000
1.140000	21.140000	14.750000	0.000000	0.000000	149.000000	58.000000	-30.000000	0.000000
1.150000	20.860000	14.750000	0.000000	0.000000	147.000000	58.000000	-28.000000	0.000000
1.160000	20.590000	14.800000	0.000000	0.000000	146.000000	57.000000	-27.000000	5.000000
1.170000	20.330000	14.690000	0.000000	0.000000	146.000000	57.000000	-26.000000	-11.000000
1.180000	20.140000	14.590000	0.000000	0.000000	146.000000	57.000000	-19.000000	-10.000000
1.190000	19.990000	14.510000	0.000000	0.000000	144.000000	57.000000	-15.000000	-8.000000
1.200000	19.870000	14.450000	0.000000	0.000000	145.000000	56.000000	-12.000000	-6.000000
1.210000	19.870000	14.450000	0.000000	0.000000	145.000000	56.000000	0.000000	0.000000
1.220000	19.450000	14.260000	0.000000	0.000000	145.000000	56.000000	-42.000000	-19.000000
1.230000	19.100000	14.140000	0.000000	0.000000	146.000000	55.000000	-35.000000	-12.000000
1.240000	18.680000	14.030000	0.000000	0.000000	146.000000	55.000000	-42.000000	-11.000000
1.250000	18.310000	13.940000	0.000000	0.000000	146.000000	55.000000	-37.000000	-9.000000
1.260000	18.110000	13.940000	0.000000	0.000000	147.000000	55.000000	-20.000000	0.000000
1.270000	18.010000	13.890000	0.000000	0.000000	147.000000	55.000000	-10.000000	-5.000000
1.280000	18.060000	13.890000	0.000000	0.000000	149.000000	55.000000	5.000000	0.000000
1.290000	18.110000	13.950000	0.000000	0.000000	149.000000	55.000000	5.000000	6.000000
1.300000	18.190000	14.000000	0.000000	0.000000	150.000000	54.000000	8.000000	5.000000
1.310000	18.280000	14.070000	0.000000	0.000000	151.000000	54.000000	9.000000	7.000000
1.320000	18.480000	14.180000	0.000000	0.000000	151.000000	54.000000	20.000000	11.000000
1.330000	18.750000	14.310000	0.000000	0.000000	151.000000	54.000000	27.000000	13.000000
1.340000	18.990000	14.370000	0.000000	0.000000	151.000000	54.000000	24.000000	6.000000
1.350000	19.160000	14.370000	0.000000	0.000000	151.000000	54.000000	17.000000	0.000000
1.360000	19.160000	14.420000	0.000000	0.000000	153.000000	55.000000	0.000000	5.000000
1.370000	19.110000	14.420000	0.000000	0.000000	153.000000	55.000000	-5.000000	0.000000
1.380000	19.050000	14.420000	0.000000	0.000000	153.000000	55.000000	-6.000000	0.000000
1.390000	19.000000	14.420000	0.000000	0.000000	153.000000	55.000000	-5.000000	0.000000
1.400000	19.000000	14.490000	0.000000	0.000000	152.000000	56.000000	0.000000	7.000000
1.410000	18.910000	14.580000	0.000000	0.000000	152.000000	56.000000	-9.000000	9.000000
1.420000	18.910000	14.580000	0.000000	0.000000	152.000000	56.000000	0.000000	0.000000
1.430000	18.910000	14.580000	0.000000	0.000000	152.000000	56.000000	0.000000	0.000000
1.440000	18.910000	14.580000	0.000000	0.000000	153.000000	56.000000	0.000000	0.000000
1.450000	18.910000	14.580000	0.000000	0.000000	153.000000	56.000000	0.000000	0.000000
1.460000	18.660000	14.640000	0.000000	0.000000	153.000000	56.000000	-25.000000	6.000000
1.470000	18.660000	14.640000	0.000000	0.000000	153.000000	56.000000	0.000000	0.000000
1.480000	18.660000	14.640000	0.000000	0.000000	153.000000	56.000000	0.000000	0.000000
1.490000	18.660000	14.640000	0.000000	0.000000	153.000000	56.000000	0.000000	0.000000
1.500000	18.660000	14.640000	0.000000	0.000000	153.000000	56.000000	0.000000	0.000000
1.510000	18.600000	14.640000	0.000000	0.000000	152.000000	57.000000	-6.000000	0.000000
1.520000	18.600000	14.700000	0.000000	0.000000	152.000000	57.000000	0.000000	6.000000
1.530000	18.550000	14.760000	0.000000	0.000000	152.000000	57.000000	-5.000000	6.000000
1.540000	18.550000	14.860000	0.000000	0.000000	154.000000	57.000000	0.000000	10.000000
1.550000	18.550000	14.940000	0.000000	0.000000	154.000000	57.000000	0.000000	8.000000
1.560000	18.600000	15.010000	0.000000	0.000000	154.000000	57.000000	5.000000	7.000000
1.570000	18.600000	15.070000	0.000000	0.000000	154.000000	57.000000	0.000000	6.000000
1.580000	18.600000	15.130000	0.000000	0.000000	154.000000	57.000000	0.000000	6.000000
1.590000	18.680000	15.190000	0.000000	0.000000	154.000000	57.000000	8.000000	6.000000
1.600000	18.680000	15.280000	0.000000	0.000000	154.000000	57.000000	0.000000	9.000000
1.610000	18.730000	15.350000	0.000000	0.000000	154.000000	57.000000	5.000000	7.000000
1.620000	18.730000	15.440000	0.000000	0.000000	154.000000	57.000000	0.000000	9.000000
1.630000	18.780000	15.510000	0.000000	0.000000	154.000000	57.000000	5.000000	7.000000
1.640000	18.780000	15.570000	0.000000	0.000000	154.000000	56.000000	0.000000	6.000000
1.650000	18.730000	15.570000	0.000000	0.000000	154.000000	56.000000	-5.000000	0.000000
1.660000	18.730000	15.640000	0.000000	0.000000	154.000000	56.000000	0.000000	7.000000
1.670000	18.640000	15.640000	0.000000	0.000000	154.000000	56.000000	-9.000000	0.000000
1.680000	18.640000	15.640000	148.000000	1.000000	154.000000	56.000000	0.000000	0.000000
1.690000	18.640000	15.640000	256.000000	0.000000	154.000000	56.000000	0.000000	0.000000
1.700000	18.640000	15.640000	349.000000	0.000000	154.000000	56.000000	0.000000	0.000000
1.710000	18.640000	15.640000	418.000000	0.000000	154.000000	56.000000	0.000000	0.000000
1.720000	18.640000	15.640000	449.000000	0.000000	154.000000	56.000000	0.000000	0.000000
1.730000	18.640000	15.640000	472.000000	0.000000	155.000000	58.000000	0.000000	0.000000
1.740000	18.640000	15.640000	509.000000	0.000000	155.000000	58.000000	0.000000	0.000000
1.750000	18.770000	15.380000	529.000000	0.000000	155.000000	58.000000	13.000000	-26.000000
1.760000	18.970000	15.270000	539.000000	0.000000	154.000000	58.000000	20.000000	-11.000000
1.770000	19.230000	15.270000	542.000000	0.000000	154.000000	58.000000	26.000000	0.000000
1.780000	19.500000	15.270000	551.000000	0.000000	156.000000	59.000000	27.000000	0.000000
1.790000	19.710000	15.270000	554.000000	0.000000	155.000000	60.000000	21.000000	0.000000
1.800000	19.860000	15.340000	551.000000	0.000000	155.000000	60.000000	15.000000	7.000000
1.810000	20.010000	15.480000	548.000000	0.000000	155.000000	60.000000	15.000000	14.000000
1.820000	20.010000	15.630000	551.000000	0.000000	155.000000	60.000000	0.000000	15.000000
1.830000	20.010000	15.770000	545.000000	0.000000	155.000000	60.000000	0.000000	14.000000
1.840000	19.900000	15.910000	543.000000	0.000000	155.000000	60.000000	-11.000000	14.000000
1.850000	19.730000	16.060000	554.000000	0.000000	156.000000	59.000000	-17.000000	15.000000
1.860000	19.500000	16.060000	554.000000	0.000000	156.000000	59.000000	-23.000000	0.000000
1.870000	19.240000	16.010000	574.000000	0.000000	156.000000	59.000000	-26.000000	-5.000000
1.880000	18.960000	15.830000	595.000000	0.000000	157.000000	58.000000	-28.000000	-18.000000
1.890000	18.670000	15.630000	610.000000	0.000000	157.000000	58.000000	-29.000000	-20.000000
1.900000	18.510000	15.420000	627.000000	0.000000	157.000000	58.000000	-16.000000	-21.000000
1.910000	18.400000	15.200000	634.000000	0.000000	156.000000	59.000000	-11.000000	-22.000000
1.920000	18.400000	14.990000	636.000000	0.000000	156.000000	59.000000	0.000000	-21.000000
1.930000	18.480000	14.790000	634.000000	0.000000	156.000000	59.000000	8.000000	-20.000000
1.940000	18.640000	14.640000	627.000000	0.000000	155.000000	60.000000	16.000000	-15.000000
1.950000	18.840000	14.490000	616.000000	0.000000	154.000000	60.000000	20.000000	-15.000000
1.960000	19.040000	14.490000	588.000000	0.000000	153.000000	61.000000	20.000000	0.000000
1.970000	19.230000	14.490000	569.000000	0.000000	153.000000	61.000000	19.000000	0.000000
1.980000	19.380000	14.570000	562.000000	0.000000	152.000000	62.000000	15.000000	8.000000
1.990000	19.380000	14.650000	564.000000	0.000000	152.000000	62.000000	0.000000	8.000000
2.000000	19.380000	14.730000	563.000000	0.000000	152.000000	62.000000	0.000000	8.000000
2.010000	19.270000	14.810000	560.000000	0.000000	152.000000	62.000000	-11.000000	8.000000
2.020000	19.110000	14.810000	567.000000	0.000000	152.000000	62.000000	-16.000000	0.000000
2.030000	18.910000	14.730000	577.000000	0.000000	152.000000	62.000000	-20.000000	-8.000000
2.040000	18.740000	14.560000	588.000000	0.000000	152.000000	62.000000	-17.000000	-17.000000
2.050000	18.580000	14.330000	588.000000	0.000000	152.000000	62.000000	-16.000000	-23.000000
2.060000	18.480000	14.060000	591.000000	0.000000	152.000000	62.000000	-10.000000	-27.000000
2.070000	18.480000	13.770000	589.000000	0.000000	151.000000	63.000000	0.000000	-29.000000
2.080000	18.480000	13.470000	592.000000	0.000000	151.000000	63.000000	0.000000	-30.000000
2.090000	18.480000	13.200000	589.000000	0.000000	150.000000	64.000000	0.000000	-27.000000
2.100000	18.530000	12.960000	592.000000	0.000000	148.000000	65.000000	5.000000	-24.000000
2.110000	18.650000	12.820000	589.000000	0.000000	148.000000	65.000000	12.000000	-14.000000
2.120000	18.840000	12.760000	584.000000	0.000000	147.000000	65.000000	19.000000	-6.000000
2.130000	19.060000	12.760000	577.000000	0.000000	146.000000	66.000000	22.000000	0.000000
2.140000	19.320000	12.880000	574.000000	0.000000	146.000000	66.000000	26.000000	12.000000
2.150000	19.580000	13.050000	570.000000	0.000000	146.000000	66.000000	26.000000	17.000000
2.160000	19.780000	13.260000	572.000000	0.000000	146.000000	66.000000	20.000000	21.000000
2.170000	19.950000	13.530000	570.000000	0.000000	146.000000	66.000000	17.000000	27.000000
2.180000	20.070000	13.770000	570.000000	0.000000	146.000000	66.000000	12.000000	24.000000
2.190000	20.070000	13.970000	577.000000	0.000000	148.000000	67.000000	0.000000	20.000000
2.200000	20.070000	13.970000	586.000000	0.000000	148.000000	67.000000	0.000000	0.000000
2.210000	20.070000	13.970000	599.000000	0.000000	148.000000	67.000000	0.000000	0.000000
2.220000	20.070000	13.890000	611.000000	0.000000	149.000000	66.000000	0.000000	-8.000000
