t	x	y	pressure	penup	azimuth	inclination	v_x	v_y
0.000000	51.900000	62.550000	42.000000	1.000000	132.000000	59.000000	0.000000	0.000000
0.010000	51.580000	62.550000	85.000000	0.000000	132.000000	59.000000	-32.000000	0.000000
0.020000	51.400000	62.620000	117.000000	0.000000	132.000000	59.000000	-18.000000	7.000000
0.030000	51.230000	62.670000	137.000000	0.000000	132.000000	59.000000	-17.000000	5.000000
0.040000	51.060000	62.760000	171.000000	0.000000	132.000000	59.000000	-17.000000	9.000000
0.050000	51.060000	62.830000	244.000000	0.000000	132.000000	59.000000	0.000000	7.000000
0.060000	51.000000	62.830000	294.000000	0.000000	134.000000	60.000000	-6.000000	0.000000
0.070000	51.000000	62.880000	351.000000	0.000000	134.000000	60.000000	0.000000	5.000000
0.080000	51.000000	62.880000	414.000000	0.000000	134.000000	60.000000	0.000000	0.000000
0.090000	51.000000	62.880000	466.000000	0.000000	134.000000	60.000000	0.000000	0.000000
0.100000	51.060000	62.780000	527.000000	0.000000	134.000000	60.000000	6.000000	-10.000000
0.110000	51.110000	62.640000	567.000000	0.000000	134.000000	60.000000	5.000000	-14.000000
0.120000	51.170000	62.230000	580.000000	0.000000	134.000000	60.000000	6.000000	-41.000000
0.130000	51.460000	61.650000	602.000000	0.000000	134.000000	60.000000	29.000000	-58.000000
0.140000	51.900000	61.350000	620.000000	0.000000	132.000000	60.000000	44.000000	-30.000000
0.150000	52.570000	61.140000	641.000000	0.000000	132.000000	60.000000	67.000000	-21.000000
0.160000	53.170000	61.000000	636.000000	0.000000	132.000000	60.000000	60.000000	-14.000000
0.170000	53.720000	60.890000	641.000000	0.000000	132.000000	60.000000	55.000000	-11.000000
0.180000	54.190000	60.760000	639.000000	0.000000	132.000000	60.000000	47.000000	-13.000000
0.190000	54.480000	60.630000	611.000000	0.000000	131.000000	61.000000	29.000000	-13.000000
0.200000	54.640000	60.470000	606.000000	0.000000	132.000000	61.000000	16.000000	-16.000000
0.210000	54.720000	60.380000	606.000000	0.000000	132.000000	61.000000	8.000000	-9.000000
0.220000	54.720000	60.380000	606.000000	0.000000	132.000000	61.000000	0.000000	0.000000
0.230000	54.720000	60.380000	609.000000	0.000000	133.000000	62.000000	0.000000	0.000000
0.240000	54.490000	60.510000	605.000000	0.000000	133.000000	62.000000	-23.000000	13.000000
0.250000	54.270000	60.720000	603.000000	0.000000	133.000000	62.000000	-22.000000	21.000000
0.260000	54.020000	60.940000	602.000000	0.000000	133.000000	62.000000	-25.000000	22.000000
0.270000	53.810000	61.190000	600.000000	0.000000	133.000000	62.000000	-21.000000	25.000000
0.280000	53.550000	61.450000	602.000000	0.000000	133.000000	62.000000	-26.000000	26.000000
0.290000	53.160000	61.590000	611.000000	0.000000	133.000000	62.000000	-39.000000	14.000000
0.300000	52.700000	61.680000	606.000000	0.000000	132.000000	61.000000	-46.000000	9.000000
0.310000	52.330000	61.680000	616.000000	0.000000	132.000000	61.000000	-37.000000	0.000000
0.320000	51.960000	61.680000	609.000000	0.000000	134.000000	61.000000	-37.000000	0.000000
0.330000	51.590000	61.610000	613.000000	0.000000	134.000000	61.000000	-37.000000	-7.000000
0.340000	51.200000	61.360000	611.000000	0.000000	134.000000	61.000000	-39.000000	-25.000000
0.350000	50.800000	61.010000	608.000000	0.000000	131.000000	61.000000	-40.000000	-35.000000
0.360000	50.570000	60.710000	585.000000	0.000000	131.000000	61.000000	-23.000000	-30.000000
0.370000	50.570000	60.710000	581.000000	0.000000	131.000000	61.000000	0.000000	0.000000
0.380000	50.570000	60.710000	577.000000	0.000000	131.000000	61.000000	0.000000	0.000000
0.390000	50.570000	60.710000	588.000000	0.000000	131.000000	61.000000	0.000000	0.000000
0.400000	50.880000	60.660000	602.000000	0.000000	131.000000	61.000000	31.000000	-5.000000
0.410000	51.230000	60.940000	628.000000	0.000000	131.000000	61.000000	35.000000	28.000000
0.420000	51.760000	61.400000	641.000000	0.000000	131.000000	61.000000	53.000000	46.000000
0.430000	52.380000	61.950000	656.000000	0.000000	131.000000	61.000000	62.000000	55.000000
0.440000	52.940000	62.570000	656.000000	0.000000	131.000000	61.000000	56.000000	62.000000
0.450000	53.280000	63.390000	661.000000	0.000000	131.000000	61.000000	34.000000	82.000000
0.460000	53.460000	64.210000	661.000000	0.000000	132.000000	61.000000	18.000000	82.000000
0.470000	53.600000	65.060000	659.000000	0.000000	134.000000	61.000000	14.000000	85.000000
0.480000	53.720000	65.940000	650.000000	0.000000	134.000000	61.000000	12.000000	88.000000
0.490000	53.830000	66.630000	646.000000	0.000000	134.000000	61.000000	11.000000	69.000000
0.500000	53.900000	67.130000	641.000000	0.000000	136.000000	61.000000	7.000000	50.000000
0.510000	53.900000	67.510000	646.000000	0.000000	136.000000	61.000000	0.000000	38.000000
0.520000	53.800000	67.370000	644.000000	0.000000	136.000000	61.000000	-10.000000	-14.000000
0.530000	53.690000	67.190000	656.000000	0.000000	138.000000	60.000000	-11.000000	-18.000000
0.540000	53.370000	66.960000	663.000000	0.000000	138.000000	60.000000	-32.000000	-23.000000
0.550000	52.920000	66.330000	688.000000	0.000000	138.000000	60.000000	-45.000000	-63.000000
0.560000	52.570000	65.430000	697.000000	0.000000	138.000000	60.000000	-35.000000	-90.000000
0.570000	52.370000	64.200000	705.000000	0.000000	138.000000	60.000000	-20.000000	-123.000000
0.580000	52.270000	62.880000	727.000000	0.000000	136.000000	61.000000	-10.000000	-132.000000
0.590000	52.490000	61.510000	727.000000	0.000000	136.000000	61.000000	22.000000	-137.000000
0.600000	52.720000	60.400000	727.000000	0.000000	136.000000	61.000000	23.000000	-111.000000
0.610000	52.950000	59.510000	739.000000	0.000000	135.000000	62.000000	23.000000	-89.000000
0.620000	53.180000	58.770000	739.000000	0.000000	135.000000	62.000000	23.000000	-74.000000
0.630000	53.410000	58.200000	739.000000	0.000000	133.000000	62.000000	23.000000	-57.000000
0.640000	53.580000	57.880000	745.000000	0.000000	132.000000	63.000000	17.000000	-32.000000
0.650000	53.720000	57.740000	745.000000	0.000000	130.000000	63.000000	14.000000	-14.000000
0.660000	53.720000	57.660000	737.000000	0.000000	127.000000	63.000000	0.000000	-8.000000
0.670000	53.720000	57.660000	731.000000	0.000000	129.000000	64.000000	0.000000	0.000000
0.680000	53.720000	57.820000	721.000000	0.000000	127.000000	64.000000	0.000000	16.000000
0.690000	53.720000	58.300000	722.000000	0.000000	127.000000	64.000000	0.000000	48.000000
0.700000	53.510000	59.020000	669.000000	0.000000	127.000000	64.000000	-21.000000	72.000000
0.710000	53.270000	59.910000	646.000000	0.000000	127.000000	64.000000	-24.000000	89.000000
0.720000	52.770000	60.640000	638.000000	0.000000	129.000000	64.000000	-50.000000	73.000000
0.730000	51.990000	60.970000	646.000000	0.000000	129.000000	64.000000	-78.000000	33.000000
0.740000	51.020000	61.040000	662.000000	0.000000	132.000000	64.000000	-97.000000	7.000000
0.750000	49.920000	60.680000	681.000000	0.000000	133.000000	63.000000	-110.000000	-36.000000
0.760000	48.730000	60.270000	702.000000	0.000000	133.000000	63.000000	-119.000000	-41.000000
0.770000	47.490000	60.050000	728.000000	0.000000	135.000000	63.000000	-124.000000	-22.000000
0.780000	47.000000	59.980000	733.000000	0.000000	135.000000	63.000000	-49.000000	-7.000000
0.790000	47.130000	59.980000	731.000000	0.000000	135.000000	63.000000	13.000000	0.000000
0.800000	47.670000	60.070000	755.000000	0.000000	137.000000	62.000000	54.000000	9.000000
0.810000	48.750000	60.260000	819.000000	0.000000	133.000000	62.000000	108.000000	19.000000
0.820000	50.380000	60.260000	905.000000	0.000000	133.000000	62.000000	163.000000	0.000000
0.830000	52.370000	60.320000	968.000000	0.000000	135.000000	63.000000	199.000000	6.000000
0.840000	54.890000	60.400000	1018.000000	0.000000	135.000000	63.000000	252.000000	8.000000
0.850000	58.010000	60.620000	1023.000000	0.000000	138.000000	63.000000	312.000000	22.000000
0.860000	61.520000	60.840000	1023.000000	0.000000	140.000000	63.000000	351.000000	22.000000
0.870000	65.150000	61.080000	1023.000000	0.000000	141.000000	64.000000	363.000000	24.000000
0.880000	68.830000	61.490000	971.000000	0.000000	146.000000	64.000000	368.000000	41.000000
0.890000	72.020000	62.020000	849.000000	0.000000	148.000000	65.000000	319.000000	53.000000
0.900000	74.860000	62.220000	667.000000	0.000000	153.000000	65.000000	284.000000	20.000000
0.910000	76.570000	62.220000	101.000000	0.000000	157.000000	65.000000	171.000000	0.000000
0.920000	76.570000	62.220000	0.000000	1.000000	160.000000	65.000000	0.000000	0.000000
0.930000	77.880000	61.830000	0.000000	0.000000	165.000000	65.000000	131.000000	-39.000000
0.940000	77.720000	61.830000	0.000000	0.000000	167.000000	65.000000	-16.000000	0.000000
0.950000	77.720000	61.830000	0.000000	0.000000	167.000000	64.000000	0.000000	0.000000
0.960000	77.720000	62.300000	0.000000	0.000000	169.000000	65.000000	0.000000	47.000000
0.970000	77.630000	62.440000	0.000000	0.000000	169.000000	65.000000	-9.000000	14.000000
0.980000	77.060000	62.780000	0.000000	0.000000	170.000000	64.000000	-57.000000	34.000000
0.990000	76.170000	63.290000	0.000000	0.000000	170.000000	64.000000	-89.000000	51.000000
1.000000	75.120000	63.290000	0.000000	0.000000	170.000000	63.000000	-105.000000	0.000000
1.010000	74.020000	63.290000	0.000000	0.000000	166.000000	62.000000	-110.000000	0.000000
1.020000	72.890000	63.430000	0.000000	0.000000	163.000000	61.000000	-113.000000	14.000000
1.030000	72.360000	63.590000	0.000000	0.000000	161.000000	60.000000	-53.000000	16.000000
1.040000	71.610000	63.470000	0.000000	0.000000	157.000000	58.000000	-75.000000	-12.000000
1.050000	70.720000	63.820000	0.000000	0.000000	152.000000	57.000000	-89.000000	35.000000
1.060000	69.660000	64.010000	0.000000	0.000000	149.000000	56.000000	-106.000000	19.000000
1.070000	68.080000	63.930000	0.000000	0.000000	146.000000	54.000000	-158.000000	-8.000000
1.080000	66.140000	63.750000	0.000000	0.000000	143.000000	53.000000	-194.000000	-18.000000
1.090000	64.260000	63.580000	0.000000	0.000000	142.000000	53.000000	-188.000000	-17.000000
1.100000	63.040000	63.420000	0.000000	0.000000	142.000000	53.000000	-122.000000	-16.000000
1.110000	62.250000	63.200000	0.000000	0.000000	140.000000	53.000000	-79.000000	-22.000000
1.120000	61.500000	62.940000	0.000000	0.000000	140.000000	53.000000	-75.000000	-26.000000
1.130000	60.670000	63.410000	0.000000	0.000000	139.000000	54.000000	-83.000000	47.000000
1.140000	59.790000	63.530000	0.000000	0.000000	139.000000	55.000000	-88.000000	12.000000
1.150000	58.970000	63.420000	0.000000	0.000000	139.000000	55.000000	-82.000000	-11.000000
1.160000	58.200000	63.420000	0.000000	0.000000	138.000000	55.000000	-77.000000	0.000000
1.170000	57.730000	63.420000	0.000000	0.000000	138.000000	57.000000	-47.000000	0.000000
1.180000	57.440000	63.560000	0.000000	0.000000	138.000000	57.000000	-29.000000	14.000000
1.190000	57.310000	63.640000	0.000000	0.000000	138.000000	58.000000	-13.000000	8.000000
1.200000	57.130000	63.690000	0.000000	0.000000	139.000000	58.000000	-18.000000	5.000000
1.210000	56.910000	63.690000	0.000000	0.000000	139.000000	60.000000	-22.000000	0.000000
1.220000	56.740000	63.690000	0.000000	0.000000	141.000000	60.000000	-17.000000	0.000000
1.230000	56.590000	63.690000	0.000000	0.000000	142.000000	61.000000	-15.000000	0.000000
1.240000	56.460000	63.690000	0.000000	0.000000	142.000000	61.000000	-13.000000	0.000000
1.250000	56.270000	63.690000	0.000000	0.000000	142.000000	61.000000	-19.000000	0.000000
1.260000	56.040000	63.690000	0.000000	0.000000	141.000000	61.000000	-23.000000	0.000000
1.270000	55.780000	63.590000	0.000000	0.000000	141.000000	61.000000	-26.000000	-10.000000
1.280000	55.570000	63.500000	0.000000	0.000000	139.000000	61.000000	-21.000000	-9.000000
1.290000	55.410000	63.390000	0.000000	0.000000	139.000000	61.000000	-16.000000	-11.000000
1.300000	55.290000	63.390000	0.000000	0.000000	139.000000	61.000000	-12.000000	0.000000
1.310000	55.200000	63.390000	0.000000	0.000000	138.000000	60.000000	-9.000000	0.000000
1.320000	55.200000	63.330000	0.000000	0.000000	138.000000	60.000000	0.000000	-6.000000
1.330000	55.150000	63.330000	0.000000	0.000000	138.000000	60.000000	-5.000000	0.000000
1.340000	55.150000	63.330000	0.000000	0.000000	136.000000	60.000000	0.000000	0.000000
1.350000	55.150000	63.260000	0.000000	0.000000	135.000000	60.000000	0.000000	-7.000000
1.360000	55.150000	63.260000	83.000000	1.000000	135.000000	60.000000	0.000000	0.000000
1.370000	55.150000	63.260000	190.000000	0.000000	135.000000	60.000000	0.000000	0.000000
1.380000	55.150000	63.260000	317.000000	0.000000	135.000000	60.000000	0.000000	0.000000
1.390000	55.150000	63.260000	402.000000	0.000000	135.000000	60.000000	0.000000	0.000000
1.400000	55.530000	63.210000	465.000000	0.000000	135.000000	60.000000	38.000000	-5.000000
1.410000	55.730000	63.210000	509.000000	0.000000	136.000000	61.000000	20.000000	0.000000
1.420000	55.980000	63.210000	537.000000	0.000000	136.000000	61.000000	25.000000	0.000000
1.430000	56.310000	63.210000	561.000000	0.000000	136.000000	61.000000	33.000000	0.000000
1.440000	56.700000	63.350000	572.000000	0.000000	138.000000	61.000000	39.000000	14.000000
1.450000	57.010000	63.490000	595.000000	0.000000	139.000000	61.000000	31.000000	14.000000
1.460000	57.280000	63.650000	588.000000	0.000000	141.000000	61.000000	27.000000	16.000000
1.470000	57.430000	63.830000	595.000000	0.000000	141.000000	61.000000	15.000000	18.000000
1.480000	57.490000	64.050000	603.000000	0.000000	141.000000	61.000000	6.000000	22.000000
1.490000	57.490000	64.310000	609.000000	0.000000	143.000000	62.000000	0.000000	26.000000
1.500000	57.360000	64.490000	606.000000	0.000000	143.000000	62.000000	-13.000000	18.000000
1.510000	57.230000	64.620000	614.000000	0.000000	143.000000	62.000000	-13.000000	13.000000
1.520000	57.050000	64.680000	614.000000	0.000000	143.000000	62.000000	-18.000000	6.000000
1.530000	56.830000	64.680000	617.000000	0.000000	143.000000	62.000000	-22.000000	0.000000
1.540000	56.510000	64.540000	636.000000	0.000000	143.000000	62.000000	-32.000000	-14.000000
1.550000	56.130000	64.250000	639.000000	0.000000	143.000000	62.000000	-38.000000	-29.000000
1.560000	55.710000	63.740000	645.000000	0.000000	143.000000	62.000000	-42.000000	-51.000000
1.570000	55.490000	63.370000	633.000000	0.000000	140.000000	62.000000	-22.000000	-37.000000
1.580000	55.490000	63.100000	627.000000	0.000000	140.000000	62.000000	0.000000	-27.000000
1.590000	55.570000	62.810000	617.000000	0.000000	140.000000	62.000000	8.000000	-29.000000
1.600000	55.890000	62.640000	610.000000	0.000000	138.000000	61.000000	32.000000	-17.000000
1.610000	56.240000	62.540000	613.000000	0.000000	138.000000	61.000000	35.000000	-10.000000
1.620000	56.650000	62.540000	608.000000	0.000000	138.000000	61.000000	41.000000	0.000000
1.630000	56.940000	62.600000	606.000000	0.000000	138.000000	61.000000	29.000000	6.000000
1.640000	57.140000	62.740000	609.000000	0.000000	138.000000	61.000000	20.000000	14.000000
1.650000	57.190000	62.820000	611.000000	0.000000	140.000000	62.000000	5.000000	8.000000
1.660000	57.190000	62.890000	606.000000	0.000000	140.000000	62.000000	0.000000	7.000000
1.670000	57.110000	62.950000	592.000000	0.000000	140.000000	62.000000	-8.000000	6.000000
1.680000	57.040000	62.950000	570.000000	0.000000	140.000000	62.000000	-7.000000	0.000000
1.690000	56.870000	62.880000	553.000000	0.000000	140.000000	62.000000	-17.000000	-7.000000
1.700000	56.620000	62.710000	551.000000	0.000000	140.000000	62.000000	-25.000000	-17.000000
1.710000	56.320000	62.370000	546.000000	0.000000	140.000000	62.000000	-30.000000	-34.000000
1.720000	56.070000	61.920000	545.000000	0.000000	140.000000	62.000000	-25.000000	-45.000000
1.730000	55.910000	61.540000	545.000000	0.000000	140.000000	62.000000	-16.000000	-38.000000
1.740000	55.830000	61.160000	553.000000	0.000000	140.000000	62.000000	-8.000000	-38.000000
1.750000	55.830000	60.870000	570.000000	0.000000	138.000000	63.000000	0.000000	-29.000000
1.760000	55.950000	60.640000	563.000000	0.000000	137.000000	62.000000	12.000000	-23.000000
1.770000	56.160000	60.520000	570.000000	0.000000	137.000000	62.000000	21.000000	-12.000000
1.780000	56.440000	60.520000	578.000000	0.000000	137.000000	62.000000	28.000000	0.000000
1.790000	56.760000	60.580000	595.000000	0.000000	135.000000	63.000000	32.000000	6.000000
1.800000	57.080000	60.680000	594.000000	0.000000	135.000000	63.000000	32.000000	10.000000
1.810000	57.400000	60.830000	595.000000	0.000000	137.000000	63.000000	32.000000	15.000000
1.820000	57.670000	61.010000	595.000000	0.000000	137.000000	63.000000	27.000000	18.000000
1.830000	57.930000	61.260000	599.000000	0.000000	137.000000	63.000000	26.000000	25.000000
1.840000	58.060000	61.490000	602.000000	0.000000	138.000000	64.000000	13.000000	23.000000
1.850000	58.130000	61.750000	606.000000	0.000000	138.000000	64.000000	7.000000	26.000000
1.860000	58.130000	62.050000	617.000000	0.000000	138.000000	64.000000	0.000000	30.000000
1.870000	58.130000	62.150000	613.000000	0.000000	140.000000	63.000000	0.000000	10.000000
1.880000	58.130000	62.220000	620.000000	0.000000	140.000000	63.000000	0.000000	7.000000
1.890000	58.030000	62.120000	631.000000	0.000000	140.000000	63.000000	-10.000000	-10.000000
1.900000	57.860000	61.930000	631.000000	0.000000	141.000000	63.000000	-17.000000	-19.000000
1.910000	57.640000	61.610000	634.000000	0.000000	141.000000	63.000000	-22.000000	-32.000000
1.920000	57.570000	61.350000	639.000000	0.000000	141.000000	63.000000	-7.000000	-26.000000
1.930000	57.570000	61.130000	639.000000	0.000000	141.000000	63.000000	0.000000	-22.000000
1.940000	57.570000	60.850000	641.000000	0.000000	140.000000	63.000000	0.000000	-28.000000
1.950000	57.710000	60.640000	638.000000	0.000000	140.000000	63.000000	14.000000	-21.000000
1.960000	57.880000	60.570000	636.000000	0.000000	141.000000	64.000000	17.000000	-7.000000
1.970000	58.130000	60.570000	639.000000	0.000000	141.000000	64.000000	25.000000	0.000000
1.980000	58.450000	60.650000	645.000000	0.000000	140.000000	65.000000	32.000000	8.000000
1.990000	58.790000	60.710000	636.000000	0.000000	140.000000	65.000000	34.000000	6.000000
2.000000	59.120000	60.890000	640.000000	0.000000	140.000000	65.000000	33.000000	18.000000
2.010000	59.380000	61.150000	636.000000	0.000000	142.000000	65.000000	26.000000	26.000000
2.020000	59.610000	61.440000	641.000000	0.000000	142.000000	65.000000	23.000000	29.000000
2.030000	59.800000	61.800000	614.000000	0.000000	143.000000	64.000000	19.000000	36.000000
2.040000	59.890000	62.220000	585.000000	0.000000	143.000000	64.000000	9.000000	42.000000
2.050000	59.890000	62.500000	551.000000	0.000000	143.000000	64.000000	0.000000	28.000000
2.060000	59.890000	62.730000	492.000000	0.000000	143.000000	64.000000	0.000000	23.000000
2.070000	59.750000	62.650000	396.000000	0.000000	145.000000	65.000000	-14.000000	-8.000000
2.080000	59.550000	62.380000	239.000000	0.000000	146.000000	64.000000	-20.000000	-27.000000
2.090000	59.450000	62.240000	12.000000	1.000000	146.000000	64.000000	0.000000	0.000000
2.100000	59.450000	62.240000	0.000000	0.000000	146.000000	64.000000	0.000000	0.000000
2.110000	59.400000	61.960000	0.000000	0.000000	145.000000	64.000000	-5.000000	-28.000000
2.120000	59.660000	61.860000	0.000000	0.000000	145.000000	64.000000	26.000000	-10.000000
2.130000	60.000000	61.780000	0.000000	0.000000	145.000000	64.000000	34.000000	-8.000000
2.140000	60.380000	61.680000	0.000000	0.000000	145.000000	64.000000	38.000000	-10.000000
2.150000	60.750000	61.600000	0.000000	0.000000	145.000000	64.000000	37.000000	-8.000000
2.160000	60.750000	61.600000	54.000000	1.000000	145.000000	64.000000	0.000000	0.000000
2.170000	61.410000	61.550000	132.000000	0.000000	145.000000	64.000000	66.000000	-5.000000
2.180000	61.640000	61.610000	193.000000	0.000000	143.000000	63.000000	23.000000	6.000000
2.190000	61.820000	61.730000	287.000000	0.000000	143.000000	63.000000	18.000000	12.000000
2.200000	61.930000	61.880000	397.000000	0.000000	143.000000	63.000000	11.000000	15.000000
2.210000	61.980000	62.030000	491.000000	0.000000	143.000000	63.000000	5.000000	15.000000
