t	x	y	pressure	penup	azimuth	inclination	v_x	v_y
0.000000	49.500000	64.200000	207.000000	1.000000	147.000000	55.000000	0.000000	0.000000
0.010000	49.500000	63.700000	214.000000	0.000000	149.000000	55.000000	0.000000	-50.000000
0.020000	49.500000	64.220000	241.000000	0.000000	151.000000	56.000000	0.000000	52.000000
0.030000	49.440000	64.220000	304.000000	0.000000	152.000000	57.000000	-6.000000	0.000000
0.040000	49.440000	64.170000	309.000000	0.000000	153.000000	58.000000	0.000000	-5.000000
0.050000	49.440000	64.170000	317.000000	0.000000	153.000000	58.000000	0.000000	0.000000
0.060000	49.490000	64.170000	327.000000	0.000000	154.000000	58.000000	5.000000	0.000000
0.070000	49.580000	64.000000	335.000000	0.000000	154.000000	58.000000	9.000000	-17.000000
0.080000	49.710000	63.870000	339.000000	0.000000	154.000000	58.000000	13.000000	-13.000000
0.090000	49.890000	63.750000	364.000000	0.000000	154.000000	58.000000	18.000000	-12.000000
0.100000	50.140000	63.610000	376.000000	0.000000	154.000000	58.000000	25.000000	-14.000000
0.110000	50.450000	63.540000	399.000000	0.000000	154.000000	58.000000	31.000000	-7.000000
0.120000	50.920000	63.540000	393.000000	0.000000	154.000000	58.000000	47.000000	0.000000
0.130000	51.490000	63.540000	396.000000	0.000000	153.000000	58.000000	57.000000	0.000000
0.140000	51.880000	63.590000	398.000000	0.000000	153.000000	58.000000	39.000000	5.000000
0.150000	52.210000	63.700000	398.000000	0.000000	153.000000	58.000000	33.000000	11.000000
0.160000	52.360000	63.860000	391.000000	0.000000	151.000000	58.000000	15.000000	16.000000
0.170000	52.410000	64.020000	407.000000	0.000000	151.000000	58.000000	5.000000	16.000000
0.180000	52.210000	64.160000	448.000000	0.000000	151.000000	58.000000	-20.000000	14.000000
0.190000	51.850000	64.320000	456.000000	0.000000	151.000000	58.000000	-36.000000	16.000000
0.200000	51.370000	64.320000	502.000000	0.000000	151.000000	58.000000	-48.000000	0.000000
0.210000	50.750000	64.210000	570.000000	0.000000	151.000000	58.000000	-62.000000	-11.000000
0.220000	50.190000	64.090000	585.000000	0.000000	151.000000	58.000000	-56.000000	-12.000000
0.230000	49.850000	63.900000	613.000000	0.000000	151.000000	58.000000	-34.000000	-19.000000
0.240000	49.630000	63.590000	611.000000	0.000000	153.000000	58.000000	-22.000000	-31.000000
0.250000	49.630000	63.250000	627.000000	0.000000	153.000000	58.000000	0.000000	-34.000000
0.260000	49.910000	62.910000	636.000000	0.000000	153.000000	58.000000	28.000000	-34.000000
0.270000	50.340000	62.550000	636.000000	0.000000	153.000000	58.000000	43.000000	-36.000000
0.280000	51.090000	62.280000	638.000000	0.000000	153.000000	58.000000	75.000000	-27.000000
0.290000	51.790000	62.070000	641.000000	0.000000	153.000000	58.000000	70.000000	-21.000000
0.300000	52.450000	61.960000	636.000000	0.000000	153.000000	58.000000	66.000000	-11.000000
0.310000	52.790000	61.960000	638.000000	0.000000	151.000000	58.000000	34.000000	0.000000
0.320000	52.940000	62.010000	636.000000	0.000000	150.000000	58.000000	15.000000	5.000000
0.330000	52.940000	62.010000	650.000000	0.000000	150.000000	58.000000	0.000000	0.000000
0.340000	52.940000	62.100000	650.000000	0.000000	149.000000	58.000000	0.000000	9.000000
0.350000	52.610000	62.180000	664.000000	0.000000	149.000000	58.000000	-33.000000	8.000000
0.360000	52.160000	62.260000	670.000000	0.000000	149.000000	58.000000	-45.000000	8.000000
0.370000	51.640000	62.120000	666.000000	0.000000	149.000000	58.000000	-52.000000	-14.000000
0.380000	51.120000	61.950000	666.000000	0.000000	149.000000	58.000000	-52.000000	-17.000000
0.390000	50.840000	61.700000	663.000000	0.000000	149.000000	58.000000	-28.000000	-25.000000
0.400000	50.710000	61.410000	667.000000	0.000000	149.000000	58.000000	-13.000000	-29.000000
0.410000	50.830000	61.110000	676.000000	0.000000	149.000000	58.000000	12.000000	-30.000000
0.420000	51.010000	60.840000	681.000000	0.000000	149.000000	58.000000	18.000000	-27.000000
0.430000	51.290000	60.570000	696.000000	0.000000	147.000000	59.000000	28.000000	-27.000000
0.440000	51.640000	60.390000	702.000000	0.000000	147.000000	59.000000	35.000000	-18.000000
0.450000	52.060000	60.260000	700.000000	0.000000	147.000000	59.000000	42.000000	-13.000000
0.460000	52.360000	60.210000	710.000000	0.000000	146.000000	60.000000	30.000000	-5.000000
0.470000	52.580000	60.260000	700.000000	0.000000	146.000000	60.000000	22.000000	5.000000
0.480000	52.870000	60.370000	652.000000	0.000000	146.000000	60.000000	29.000000	11.000000
0.490000	53.180000	60.580000	570.000000	0.000000	146.000000	60.000000	31.000000	21.000000
0.500000	53.360000	60.770000	324.000000	0.000000	146.000000	60.000000	18.000000	19.000000
0.510000	53.360000	60.770000	0.000000	1.000000	146.000000	60.000000	0.000000	0.000000
0.520000	53.520000	61.080000	0.000000	0.000000	145.000000	59.000000	16.000000	31.000000
0.530000	53.520000	61.180000	0.000000	0.000000	145.000000	59.000000	0.000000	10.000000
0.540000	53.520000	61.250000	0.000000	0.000000	145.000000	59.000000	0.000000	7.000000
0.550000	53.670000	61.320000	0.000000	0.000000	145.000000	59.000000	15.000000	7.000000
0.560000	53.820000	61.370000	0.000000	0.000000	145.000000	59.000000	15.000000	5.000000
0.570000	53.980000	61.370000	0.000000	0.000000	146.000000	58.000000	16.000000	0.000000
0.580000	54.120000	61.420000	0.000000	0.000000	146.000000	58.000000	14.000000	5.000000
0.590000	54.120000	61.420000	134.000000	1.000000	146.000000	58.000000	0.000000	0.000000
0.600000	54.120000	61.420000	314.000000	0.000000	146.000000	58.000000	0.000000	0.000000
0.610000	54.220000	61.800000	464.000000	0.000000	146.000000	58.000000	10.000000	38.000000
0.620000	54.220000	61.940000	610.000000	0.000000	147.000000	59.000000	0.000000	14.000000
0.630000	54.220000	62.040000	700.000000	0.000000	147.000000	59.000000	0.000000	10.000000
0.640000	54.220000	62.040000	707.000000	0.000000	147.000000	59.000000	0.000000	0.000000
0.650000	54.220000	62.040000	710.000000	0.000000	147.000000	59.000000	0.000000	0.000000
0.660000	54.220000	61.970000	719.000000	0.000000	147.000000	59.000000	0.000000	-7.000000
0.670000	54.220000	61.700000	716.000000	0.000000	147.000000	59.000000	0.000000	-27.000000
0.680000	54.320000	61.330000	717.000000	0.000000	147.000000	59.000000	10.000000	-37.000000
0.690000	54.480000	61.030000	716.000000	0.000000	147.000000	59.000000	16.000000	-30.000000
0.700000	54.690000	60.800000	702.000000	0.000000	147.000000	59.000000	21.000000	-23.000000
0.710000	54.940000	60.610000	664.000000	0.000000	147.000000	59.000000	25.000000	-19.000000
0.720000	55.200000	60.610000	650.000000	0.000000	147.000000	59.000000	26.000000	0.000000
0.730000	55.440000	60.700000	653.000000	0.000000	147.000000	59.000000	24.000000	9.000000
0.740000	55.570000	60.910000	670.000000	0.000000	147.000000	59.000000	13.000000	21.000000
0.750000	55.650000	61.240000	691.000000	0.000000	147.000000	59.000000	8.000000	33.000000
0.760000	55.650000	61.580000	725.000000	0.000000	147.000000	59.000000	0.000000	34.000000
0.770000	55.650000	61.930000	730.000000	0.000000	147.000000	59.000000	0.000000	35.000000
0.780000	55.650000	62.130000	740.000000	0.000000	149.000000	59.000000	0.000000	20.000000
0.790000	55.650000	62.300000	739.000000	0.000000	149.000000	59.000000	0.000000	17.000000
0.800000	55.720000	62.440000	721.000000	0.000000	149.000000	59.000000	7.000000	14.000000
0.810000	55.720000	62.440000	617.000000	0.000000	149.000000	59.000000	0.000000	0.000000
0.820000	55.780000	62.440000	389.000000	0.000000	149.000000	59.000000	6.000000	0.000000
0.830000	55.780000	62.440000	0.000000	1.000000	149.000000	59.000000	0.000000	0.000000
0.840000	56.060000	62.200000	0.000000	0.000000	149.000000	59.000000	28.000000	-24.000000
0.850000	56.300000	62.050000	0.000000	0.000000	150.000000	58.000000	24.000000	-15.000000
0.860000	56.560000	61.920000	0.000000	0.000000	150.000000	58.000000	26.000000	-13.000000
0.870000	56.860000	61.790000	0.000000	0.000000	150.000000	58.000000	30.000000	-13.000000
0.880000	57.210000	61.730000	0.000000	0.000000	152.000000	59.000000	35.000000	-6.000000
0.890000	57.480000	61.730000	0.000000	0.000000	152.000000	59.000000	27.000000	0.000000
0.900000	57.700000	61.790000	0.000000	0.000000	152.000000	59.000000	22.000000	6.000000
0.910000	57.850000	61.950000	0.000000	0.000000	153.000000	59.000000	15.000000	16.000000
0.920000	57.850000	61.950000	341.000000	1.000000	153.000000	59.000000	0.000000	0.000000
0.930000	57.750000	62.360000	472.000000	0.000000	155.000000	60.000000	-10.000000	41.000000
0.940000	57.550000	62.550000	592.000000	0.000000	155.000000	60.000000	-20.000000	19.000000
0.950000	57.340000	62.680000	697.000000	0.000000	155.000000	60.000000	-21.000000	13.000000
0.960000	57.130000	62.730000	730.000000	0.000000	155.000000	60.000000	-21.000000	5.000000
0.970000	57.060000	62.730000	736.000000	0.000000	155.000000	60.000000	-7.000000	0.000000
0.980000	57.060000	62.630000	748.000000	0.000000	155.000000	60.000000	0.000000	-10.000000
0.990000	56.720000	62.270000	750.000000	0.000000	155.000000	60.000000	-34.000000	-36.000000
1.000000	56.370000	61.720000	751.000000	0.000000	153.000000	59.000000	-35.000000	-55.000000
1.010000	56.320000	61.370000	748.000000	0.000000	153.000000	59.000000	-5.000000	-35.000000
1.020000	56.450000	61.020000	710.000000	0.000000	153.000000	59.000000	13.000000	-35.000000
1.030000	56.740000	60.830000	664.000000	0.000000	151.000000	60.000000	29.000000	-19.000000
1.040000	57.060000	60.750000	653.000000	0.000000	151.000000	60.000000	32.000000	-8.000000
1.050000	57.450000	60.890000	652.000000	0.000000	151.000000	60.000000	39.000000	14.000000
1.060000	57.670000	61.130000	661.000000	0.000000	151.000000	60.000000	22.000000	24.000000
1.070000	57.760000	61.440000	679.000000	0.000000	151.000000	60.000000	9.000000	31.000000
1.080000	57.760000	61.790000	728.000000	0.000000	152.000000	60.000000	0.000000	35.000000
1.090000	57.810000	62.120000	750.000000	0.000000	152.000000	60.000000	5.000000	33.000000
1.100000	57.810000	62.450000	783.000000	0.000000	152.000000	60.000000	0.000000	33.000000
1.110000	57.810000	62.580000	830.000000	0.000000	154.000000	60.000000	0.000000	13.000000
1.120000	57.750000	62.580000	822.000000	0.000000	154.000000	60.000000	-6.000000	0.000000
1.130000	57.750000	62.580000	825.000000	0.000000	154.000000	60.000000	0.000000	0.000000
1.140000	57.750000	62.410000	827.000000	0.000000	154.000000	60.000000	0.000000	-17.000000
1.150000	57.750000	62.130000	805.000000	0.000000	155.000000	60.000000	0.000000	-28.000000
1.160000	57.840000	61.770000	675.000000	0.000000	155.000000	60.000000	9.000000	-36.000000
1.170000	57.940000	61.490000	212.000000	0.000000	155.000000	60.000000	10.000000	-28.000000
1.180000	57.940000	61.490000	0.000000	1.000000	153.000000	59.000000	0.000000	0.000000
1.190000	58.910000	61.350000	0.000000	0.000000	152.000000	60.000000	97.000000	-14.000000
1.200000	59.580000	61.300000	0.000000	0.000000	152.000000	60.000000	67.000000	-5.000000
1.210000	60.140000	61.300000	0.000000	0.000000	152.000000	60.000000	56.000000	0.000000
1.220000	60.680000	61.240000	0.000000	0.000000	152.000000	60.000000	54.000000	-6.000000
1.230000	61.200000	61.080000	0.000000	0.000000	152.000000	60.000000	52.000000	-16.000000
1.240000	61.640000	61.330000	0.000000	0.000000	152.000000	60.000000	44.000000	25.000000
1.250000	61.920000	61.890000	0.000000	0.000000	152.000000	60.000000	28.000000	56.000000
1.260000	62.100000	62.280000	0.000000	0.000000	152.000000	60.000000	18.000000	39.000000
1.270000	62.100000	62.280000	407.000000	1.000000	153.000000	59.000000	0.000000	0.000000
1.280000	61.910000	62.540000	527.000000	0.000000	153.000000	59.000000	-19.000000	26.000000
1.290000	61.660000	63.350000	622.000000	0.000000	153.000000	59.000000	-25.000000	81.000000
1.300000	61.500000	63.650000	736.000000	0.000000	155.000000	60.000000	-16.000000	30.000000
1.310000	61.380000	63.600000	751.000000	0.000000	156.000000	59.000000	-12.000000	-5.000000
1.320000	61.380000	63.550000	762.000000	0.000000	156.000000	59.000000	0.000000	-5.000000
1.330000	61.380000	63.210000	780.000000	0.000000	157.000000	59.000000	0.000000	-34.000000
1.340000	61.380000	62.680000	790.000000	0.000000	157.000000	59.000000	0.000000	-53.000000
1.350000	61.430000	62.110000	788.000000	0.000000	157.000000	60.000000	5.000000	-57.000000
1.360000	61.520000	61.610000	770.000000	0.000000	157.000000	60.000000	9.000000	-50.000000
1.370000	61.640000	61.160000	699.000000	0.000000	157.000000	60.000000	12.000000	-45.000000
1.380000	61.760000	60.870000	556.000000	0.000000	157.000000	60.000000	12.000000	-29.000000
1.390000	61.840000	60.760000	225.000000	0.000000	157.000000	60.000000	8.000000	-11.000000
1.400000	61.840000	60.760000	0.000000	1.000000	157.000000	60.000000	0.000000	0.000000
1.410000	61.840000	60.970000	0.000000	0.000000	155.000000	60.000000	0.000000	21.000000
1.420000	61.770000	61.280000	0.000000	0.000000	154.000000	60.000000	-7.000000	31.000000
1.430000	61.600000	61.670000	0.000000	0.000000	154.000000	60.000000	-17.000000	39.000000
1.440000	61.350000	62.060000	0.000000	0.000000	154.000000	60.000000	-25.000000	39.000000
1.450000	61.050000	62.540000	0.000000	0.000000	154.000000	60.000000	-30.000000	48.000000
1.460000	60.810000	63.070000	0.000000	0.000000	153.000000	59.000000	-24.000000	53.000000
1.470000	60.810000	63.070000	294.000000	1.000000	153.000000	59.000000	0.000000	0.000000
1.480000	60.480000	63.630000	409.000000	0.000000	153.000000	59.000000	-33.000000	56.000000
1.490000	60.480000	63.730000	494.000000	0.000000	153.000000	59.000000	0.000000	10.000000
1.500000	60.480000	63.730000	561.000000	0.000000	153.000000	59.000000	0.000000	0.000000
1.510000	60.620000	63.730000	610.000000	0.000000	155.000000	60.000000	14.000000	0.000000
1.520000	61.030000	63.800000	636.000000	0.000000	156.000000	59.000000	41.000000	7.000000
1.530000	61.630000	63.860000	636.000000	0.000000	156.000000	59.000000	60.000000	6.000000
1.540000	62.220000	63.990000	613.000000	0.000000	156.000000	59.000000	59.000000	13.000000
1.550000	62.740000	64.180000	464.000000	0.000000	156.000000	59.000000	52.000000	19.000000
1.560000	63.220000	64.270000	170.000000	0.000000	153.000000	59.000000	48.000000	9.000000
1.570000	63.220000	64.270000	0.000000	1.000000	153.000000	59.000000	0.000000	0.000000
1.580000	63.400000	64.330000	0.000000	0.000000	153.000000	59.000000	18.000000	6.000000
1.590000	63.350000	64.220000	0.000000	0.000000	153.000000	59.000000	-5.000000	-11.000000
1.600000	63.260000	64.020000	0.000000	0.000000	153.000000	59.000000	-9.000000	-20.000000
1.610000	63.160000	63.750000	0.000000	0.000000	153.000000	59.000000	-10.000000	-27.000000
1.620000	63.040000	63.400000	0.000000	0.000000	152.000000	59.000000	-12.000000	-35.000000
1.630000	62.960000	63.080000	0.000000	0.000000	153.000000	58.000000	-8.000000	-32.000000
1.640000	62.880000	62.780000	0.000000	0.000000	153.000000	58.000000	-8.000000	-30.000000
1.650000	62.760000	62.460000	0.000000	0.000000	153.000000	58.000000	-12.000000	-32.000000
1.660000	62.760000	62.460000	226.000000	1.000000	151.000000	58.000000	0.000000	0.000000
1.670000	62.490000	61.930000	345.000000	0.000000	151.000000	58.000000	-27.000000	-53.000000
1.680000	62.440000	61.770000	422.000000	0.000000	150.000000	58.000000	-5.000000	-16.000000
1.690000	62.510000	61.610000	465.000000	0.000000	150.000000	58.000000	7.000000	-16.000000
1.700000	62.510000	61.610000	483.000000	0.000000	152.000000	59.000000	0.000000	0.000000
1.710000	62.920000	61.430000	481.000000	0.000000	152.000000	59.000000	41.000000	-18.000000
1.720000	63.370000	61.430000	460.000000	0.000000	152.000000	59.000000	45.000000	0.000000
1.730000	63.830000	61.500000	423.000000	0.000000	152.000000	59.000000	46.000000	7.000000
1.740000	64.200000	61.670000	399.000000	0.000000	152.000000	59.000000	37.000000	17.000000
1.750000	64.500000	61.900000	396.000000	0.000000	152.000000	59.000000	30.000000	23.000000
1.760000	64.610000	62.140000	415.000000	0.000000	152.000000	59.000000	11.000000	24.000000
1.770000	64.540000	62.370000	460.000000	0.000000	152.000000	59.000000	-7.000000	23.000000
1.780000	64.360000	62.600000	537.000000	0.000000	152.000000	59.000000	-18.000000	23.000000
1.790000	64.170000	62.690000	592.000000	0.000000	152.000000	59.000000	-19.000000	9.000000
1.800000	63.960000	62.780000	671.000000	0.000000	152.000000	59.000000	-21.000000	9.000000
1.810000	63.740000	62.700000	708.000000	0.000000	152.000000	59.000000	-22.000000	-8.000000
1.820000	63.610000	62.520000	728.000000	0.000000	152.000000	59.000000	-13.000000	-18.000000
1.830000	63.460000	62.190000	754.000000	0.000000	152.000000	59.000000	-15.000000	-33.000000
1.840000	63.290000	61.830000	763.000000	0.000000	152.000000	59.000000	-17.000000	-36.000000
1.850000	63.400000	61.420000	752.000000	0.000000	152.000000	59.000000	11.000000	-41.000000
1.860000	63.530000	61.110000	717.000000	0.000000	152.000000	59.000000	13.000000	-31.000000
1.870000	63.860000	60.860000	631.000000	0.000000	152.000000	59.000000	33.000000	-25.000000
1.880000	64.310000	60.770000	485.000000	0.000000	152.000000	59.000000	45.000000	-9.000000
1.890000	64.790000	60.830000	274.000000	0.000000	151.000000	60.000000	48.000000	6.000000
1.900000	65.260000	61.000000	1.000000	1.000000	149.000000	59.000000	0.000000	0.000000
1.910000	65.260000	61.000000	0.000000	0.000000	149.000000	59.000000	0.000000	0.000000
1.920000	65.830000	61.520000	0.000000	0.000000	151.000000	60.000000	57.000000	52.000000
1.930000	65.910000	61.820000	0.000000	0.000000	151.000000	60.000000	8.000000	30.000000
1.940000	65.910000	61.820000	107.000000	1.000000	151.000000	60.000000	0.000000	0.000000
1.950000	65.830000	62.400000	226.000000	0.000000	151.000000	60.000000	-8.000000	58.000000
1.960000	65.750000	62.640000	345.000000	0.000000	151.000000	60.000000	-8.000000	24.000000
1.970000	65.670000	62.820000	448.000000	0.000000	152.000000	59.000000	-8.000000	18.000000
1.980000	65.620000	62.950000	565.000000	0.000000	152.000000	59.000000	-5.000000	13.000000
1.990000	65.620000	62.950000	619.000000	0.000000	152.000000	59.000000	0.000000	0.000000
2.000000	65.620000	62.950000	647.000000	0.000000	152.000000	59.000000	0.000000	0.000000
2.010000	65.570000	62.950000	667.000000	0.000000	152.000000	59.000000	-5.000000	0.000000
2.020000	65.570000	62.900000	666.000000	0.000000	152.000000	59.000000	0.000000	-5.000000
2.030000	65.570000	62.790000	691.000000	0.000000	152.000000	59.000000	0.000000	-11.000000
2.040000	65.630000	62.640000	694.000000	0.000000	152.000000	59.000000	6.000000	-15.000000
2.050000	65.710000	62.450000	699.000000	0.000000	152.000000	59.000000	8.000000	-19.000000
2.060000	65.790000	62.250000	691.000000	0.000000	152.000000	59.000000	8.000000	-20.000000
2.070000	65.880000	62.020000	697.000000	0.000000	152.000000	59.000000	9.000000	-23.000000
2.080000	65.880000	61.720000	699.000000	0.000000	152.000000	59.000000	0.000000	-30.000000
2.090000	65.880000	61.420000	699.000000	0.000000	152.000000	59.000000	0.000000	-30.000000
2.100000	65.980000	61.090000	696.000000	0.000000	152.000000	59.000000	10.000000	-33.000000
2.110000	66.100000	60.730000	691.000000	0.000000	151.000000	60.000000	12.000000	-36.000000
2.120000	66.210000	60.330000	690.000000	0.000000	152.000000	60.000000	11.000000	-40.000000
2.130000	66.300000	59.960000	678.000000	0.000000	152.000000	60.000000	9.000000	-37.000000
2.140000	66.380000	59.650000	676.000000	0.000000	151.000000	61.000000	8.000000	-31.000000
2.150000	66.380000	59.380000	678.000000	0.000000	151.000000	61.000000	0.000000	-27.000000
2.160000	66.240000	59.220000	681.000000	0.000000	150.000000	62.000000	-14.000000	-16.000000
2.170000	65.960000	59.140000	687.000000	0.000000	150.000000	62.000000	-28.000000	-8.000000
2.180000	65.530000	59.140000	694.000000	0.000000	150.000000	62.000000	-43.000000	0.000000
2.190000	64.990000	59.140000	694.000000	0.000000	149.000000	63.000000	-54.000000	0.000000
2.200000	64.620000	59.250000	693.000000	0.000000	149.000000	63.000000	-37.000000	11.000000
2.210000	64.510000	59.360000	672.000000	0.000000	147.000000	62.000000	-11.000000	11.000000
