t	x	y	pressure	penup	azimuth	inclination	v_x	v_y
0.000000	90.950000	28.890000	46.000000	1.000000	135.000000	62.000000	0.000000	0.000000
0.010000	90.690000	28.960000	85.000000	0.000000	135.000000	62.000000	-26.000000	7.000000
0.020000	90.590000	29.010000	131.000000	0.000000	135.000000	62.000000	-10.000000	5.000000
0.030000	90.520000	29.060000	172.000000	0.000000	136.000000	61.000000	-7.000000	5.000000
0.040000	90.460000	29.170000	242.000000	0.000000	136.000000	61.000000	-6.000000	11.000000
0.050000	90.460000	29.270000	305.000000	0.000000	136.000000	61.000000	0.000000	10.000000
0.060000	90.410000	29.330000	387.000000	0.000000	136.000000	61.000000	-5.000000	6.000000
0.070000	90.410000	29.330000	440.000000	0.000000	138.000000	61.000000	0.000000	0.000000
0.080000	90.410000	29.330000	473.000000	0.000000	139.000000	61.000000	0.000000	0.000000
0.090000	90.410000	29.330000	518.000000	0.000000	139.000000	61.000000	0.000000	0.000000
0.100000	90.530000	29.220000	591.000000	0.000000	139.000000	61.000000	12.000000	-11.000000
0.110000	90.690000	28.940000	610.000000	0.000000	138.000000	61.000000	16.000000	-28.000000
0.120000	91.000000	28.530000	640.000000	0.000000	138.000000	61.000000	31.000000	-41.000000
0.130000	91.410000	28.190000	661.000000	0.000000	138.000000	61.000000	41.000000	-34.000000
0.140000	91.950000	27.920000	663.000000	0.000000	137.000000	62.000000	54.000000	-27.000000
0.150000	92.670000	27.710000	669.000000	0.000000	137.000000	62.000000	72.000000	-21.000000
0.160000	93.510000	27.570000	676.000000	0.000000	137.000000	62.000000	84.000000	-14.000000
0.170000	94.190000	27.470000	676.000000	0.000000	135.000000	63.000000	68.000000	-10.000000
0.180000	94.600000	27.400000	676.000000	0.000000	135.000000	63.000000	41.000000	-7.000000
0.190000	94.840000	27.400000	673.000000	0.000000	135.000000	63.000000	24.000000	0.000000
0.200000	94.840000	27.400000	673.000000	0.000000	135.000000	63.000000	0.000000	0.000000
0.210000	94.780000	27.400000	670.000000	0.000000	135.000000	63.000000	-6.000000	0.000000
0.220000	94.550000	27.590000	634.000000	0.000000	135.000000	63.000000	-23.000000	19.000000
0.230000	94.190000	27.810000	616.000000	0.000000	135.000000	63.000000	-36.000000	22.000000
0.240000	93.400000	27.810000	611.000000	0.000000	135.000000	63.000000	-79.000000	0.000000
0.250000	92.490000	27.400000	616.000000	0.000000	135.000000	64.000000	-91.000000	-41.000000
0.260000	91.500000	26.690000	619.000000	0.000000	135.000000	64.000000	-99.000000	-71.000000
0.270000	91.020000	26.300000	610.000000	0.000000	135.000000	64.000000	-48.000000	-39.000000
0.280000	90.790000	26.090000	624.000000	0.000000	133.000000	65.000000	-23.000000	-21.000000
0.290000	90.720000	25.990000	636.000000	0.000000	135.000000	65.000000	-7.000000	-10.000000
0.300000	90.770000	25.990000	643.000000	0.000000	133.000000	66.000000	5.000000	0.000000
0.310000	90.850000	26.160000	659.000000	0.000000	131.000000	67.000000	8.000000	17.000000
0.320000	91.220000	26.410000	662.000000	0.000000	131.000000	67.000000	37.000000	25.000000
0.330000	91.770000	27.000000	667.000000	0.000000	131.000000	67.000000	55.000000	59.000000
0.340000	92.530000	27.840000	662.000000	0.000000	131.000000	67.000000	76.000000	84.000000
0.350000	93.320000	28.840000	644.000000	0.000000	131.000000	67.000000	79.000000	100.000000
0.360000	93.970000	30.040000	641.000000	0.000000	133.000000	66.000000	65.000000	120.000000
0.370000	94.520000	31.330000	627.000000	0.000000	137.000000	65.000000	55.000000	129.000000
0.380000	94.900000	32.680000	620.000000	0.000000	138.000000	64.000000	38.000000	135.000000
0.390000	95.130000	33.970000	624.000000	0.000000	143.000000	63.000000	23.000000	129.000000
0.400000	95.270000	34.780000	630.000000	0.000000	144.000000	62.000000	14.000000	81.000000
0.410000	95.270000	35.270000	652.000000	0.000000	146.000000	62.000000	0.000000	49.000000
0.420000	95.190000	35.430000	662.000000	0.000000	148.000000	61.000000	-8.000000	16.000000
0.430000	95.000000	35.350000	675.000000	0.000000	148.000000	61.000000	-19.000000	-8.000000
0.440000	94.610000	35.100000	696.000000	0.000000	151.000000	61.000000	-39.000000	-25.000000
0.450000	93.970000	34.320000	705.000000	0.000000	153.000000	61.000000	-64.000000	-78.000000
0.460000	93.160000	33.020000	728.000000	0.000000	153.000000	61.000000	-81.000000	-130.000000
0.470000	92.770000	31.380000	725.000000	0.000000	153.000000	61.000000	-39.000000	-164.000000
0.480000	92.630000	29.730000	734.000000	0.000000	152.000000	62.000000	-14.000000	-165.000000
0.490000	92.630000	28.150000	734.000000	0.000000	150.000000	62.000000	0.000000	-158.000000
0.500000	92.980000	26.630000	736.000000	0.000000	149.000000	63.000000	35.000000	-152.000000
0.510000	93.310000	25.460000	727.000000	0.000000	148.000000	63.000000	33.000000	-117.000000
0.520000	93.610000	24.620000	722.000000	0.000000	145.000000	64.000000	30.000000	-84.000000
0.530000	93.800000	24.010000	728.000000	0.000000	142.000000	65.000000	19.000000	-61.000000
0.540000	93.930000	23.660000	724.000000	0.000000	140.000000	66.000000	13.000000	-35.000000
0.550000	93.930000	23.560000	721.000000	0.000000	137.000000	66.000000	0.000000	-10.000000
0.560000	93.980000	23.630000	716.000000	0.000000	137.000000	67.000000	5.000000	7.000000
0.570000	93.980000	23.810000	710.000000	0.000000	135.000000	68.000000	0.000000	18.000000
0.580000	93.980000	24.330000	696.000000	0.000000	135.000000	68.000000	0.000000	52.000000
0.590000	93.980000	25.080000	673.000000	0.000000	135.000000	68.000000	0.000000	75.000000
0.600000	93.980000	26.110000	620.000000	0.000000	135.000000	68.000000	0.000000	103.000000
0.610000	93.880000	27.260000	620.000000	0.000000	135.000000	68.000000	-10.000000	115.000000
0.620000	93.610000	28.490000	638.000000	0.000000	135.000000	68.000000	-27.000000	123.000000
0.630000	92.950000	28.810000	656.000000	0.000000	137.000000	67.000000	-66.000000	32.000000
0.640000	92.110000	28.680000	688.000000	0.000000	139.000000	67.000000	-84.000000	-13.000000
0.650000	91.140000	28.250000	717.000000	0.000000	140.000000	66.000000	-97.000000	-43.000000
0.660000	90.100000	27.900000	734.000000	0.000000	140.000000	66.000000	-104.000000	-35.000000
0.670000	89.240000	27.640000	743.000000	0.000000	142.000000	65.000000	-86.000000	-26.000000
0.680000	88.500000	27.430000	761.000000	0.000000	142.000000	65.000000	-74.000000	-21.000000
0.690000	88.150000	27.360000	751.000000	0.000000	142.000000	65.000000	-35.000000	-7.000000
0.700000	88.280000	27.360000	768.000000	0.000000	142.000000	65.000000	13.000000	0.000000
0.710000	88.720000	27.360000	811.000000	0.000000	142.000000	65.000000	44.000000	0.000000
0.720000	90.110000	27.440000	879.000000	0.000000	142.000000	65.000000	139.000000	8.000000
0.730000	92.420000	27.580000	930.000000	0.000000	142.000000	65.000000	231.000000	14.000000
0.740000	95.330000	27.760000	958.000000	0.000000	142.000000	65.000000	291.000000	18.000000
0.750000	98.950000	27.920000	971.000000	0.000000	144.000000	66.000000	362.000000	16.000000
0.760000	103.380000	28.210000	951.000000	0.000000	146.000000	66.000000	443.000000	29.000000
0.770000	108.360000	28.580000	721.000000	0.000000	148.000000	67.000000	498.000000	37.000000
0.780000	108.360000	28.580000	0.000000	1.000000	150.000000	67.000000	0.000000	0.000000
0.790000	117.070000	29.080000	0.000000	0.000000	152.000000	68.000000	871.000000	50.000000
0.800000	119.710000	29.260000	0.000000	0.000000	154.000000	68.000000	264.000000	18.000000
0.810000	120.400000	29.400000	0.000000	0.000000	153.000000	69.000000	69.000000	14.000000
0.820000	120.810000	28.920000	0.000000	0.000000	155.000000	69.000000	41.000000	-48.000000
0.830000	121.030000	28.430000	0.000000	0.000000	153.000000	69.000000	22.000000	-49.000000
0.840000	121.130000	27.930000	0.000000	0.000000	153.000000	69.000000	10.000000	-50.000000
0.850000	120.860000	27.560000	0.000000	0.000000	151.000000	68.000000	-27.000000	-37.000000
0.860000	120.340000	27.270000	0.000000	0.000000	146.000000	67.000000	-52.000000	-29.000000
0.870000	119.570000	27.080000	0.000000	0.000000	144.000000	67.000000	-77.000000	-19.000000
0.880000	117.990000	26.850000	0.000000	0.000000	142.000000	66.000000	-158.000000	-23.000000
0.890000	115.880000	26.400000	0.000000	0.000000	142.000000	66.000000	-211.000000	-45.000000
0.900000	115.880000	26.400000	0.000000	0.000000	142.000000	66.000000	0.000000	0.000000
0.910000	97.310000	29.230000	0.000000	0.000000	141.000000	70.000000	-1857.000000	283.000000
0.920000	97.310000	29.230000	0.000000	0.000000	140.000000	73.000000	0.000000	0.000000
0.930000	96.880000	29.400000	0.000000	0.000000	138.000000	77.000000	-43.000000	17.000000
0.940000	96.150000	29.690000	0.000000	0.000000	135.000000	80.000000	-73.000000	29.000000
0.950000	96.150000	30.060000	0.000000	0.000000	135.000000	80.000000	0.000000	37.000000
0.960000	96.360000	30.390000	0.000000	0.000000	135.000000	80.000000	21.000000	33.000000
0.970000	96.690000	30.700000	0.000000	0.000000	135.000000	80.000000	33.000000	31.000000
0.980000	96.690000	30.700000	0.000000	0.000000	135.000000	80.000000	0.000000	0.000000
0.990000	96.690000	30.700000	0.000000	0.000000	135.000000	80.000000	0.000000	0.000000
1.000000	96.690000	30.700000	0.000000	0.000000	135.000000	79.000000	0.000000	0.000000
1.010000	96.770000	30.700000	0.000000	0.000000	135.000000	76.000000	8.000000	0.000000
1.020000	96.680000	30.890000	0.000000	0.000000	135.000000	73.000000	-9.000000	19.000000
1.030000	96.480000	30.890000	0.000000	0.000000	135.000000	71.000000	-20.000000	0.000000
1.040000	96.480000	30.770000	0.000000	0.000000	135.000000	68.000000	0.000000	-12.000000
1.050000	96.480000	30.700000	0.000000	0.000000	133.000000	66.000000	0.000000	-7.000000
1.060000	96.480000	30.640000	0.000000	0.000000	135.000000	64.000000	0.000000	-6.000000
1.070000	96.480000	30.550000	0.000000	0.000000	133.000000	62.000000	0.000000	-9.000000
1.080000	96.480000	30.430000	0.000000	0.000000	133.000000	62.000000	0.000000	-12.000000
1.090000	96.570000	30.330000	0.000000	0.000000	134.000000	61.000000	9.000000	-10.000000
1.100000	96.570000	30.330000	0.000000	0.000000	134.000000	61.000000	0.000000	0.000000
1.110000	96.570000	30.330000	0.000000	0.000000	135.000000	62.000000	0.000000	0.000000
1.120000	96.570000	30.330000	0.000000	0.000000	135.000000	62.000000	0.000000	0.000000
1.130000	96.570000	30.330000	0.000000	0.000000	135.000000	62.000000	0.000000	0.000000
1.140000	96.410000	30.330000	0.000000	0.000000	135.000000	62.000000	-16.000000	0.000000
1.150000	96.410000	30.330000	0.000000	0.000000	135.000000	62.000000	0.000000	0.000000
1.160000	96.410000	30.330000	0.000000	0.000000	135.000000	62.000000	0.000000	0.000000
1.170000	96.410000	30.330000	0.000000	0.000000	135.000000	62.000000	0.000000	0.000000
1.180000	96.410000	30.330000	0.000000	0.000000	135.000000	62.000000	0.000000	0.000000
1.190000	96.410000	30.330000	0.000000	0.000000	135.000000	62.000000	0.000000	0.000000
1.200000	96.390000	30.630000	0.000000	0.000000	136.000000	61.000000	-2.000000	30.000000
1.210000	96.390000	30.630000	0.000000	0.000000	136.000000	61.000000	0.000000	0.000000
1.220000	96.290000	30.710000	0.000000	0.000000	136.000000	61.000000	-10.000000	8.000000
1.230000	96.210000	30.710000	0.000000	0.000000	136.000000	61.000000	-8.000000	0.000000
1.240000	96.120000	30.710000	0.000000	0.000000	136.000000	61.000000	-9.000000	0.000000
1.250000	96.010000	30.710000	0.000000	0.000000	136.000000	61.000000	-11.000000	0.000000
1.260000	95.910000	30.710000	0.000000	0.000000	136.000000	61.000000	-10.000000	0.000000
1.270000	95.840000	30.760000	0.000000	0.000000	136.000000	61.000000	-7.000000	5.000000
1.280000	95.840000	30.760000	81.000000	1.000000	138.000000	60.000000	0.000000	0.000000
1.290000	95.840000	30.760000	170.000000	0.000000	138.000000	60.000000	0.000000	0.000000
1.300000	95.840000	30.760000	260.000000	0.000000	138.000000	60.000000	0.000000	0.000000
1.310000	95.840000	30.760000	307.000000	0.000000	138.000000	60.000000	0.000000	0.000000
1.320000	95.840000	30.760000	349.000000	0.000000	138.000000	60.000000	0.000000	0.000000
1.330000	95.840000	30.760000	400.000000	0.000000	138.000000	60.000000	0.000000	0.000000
1.340000	95.840000	30.760000	460.000000	0.000000	138.000000	60.000000	0.000000	0.000000
1.350000	95.840000	30.760000	499.000000	0.000000	138.000000	60.000000	0.000000	0.000000
1.360000	96.260000	30.690000	515.000000	0.000000	138.000000	60.000000	42.000000	-7.000000
1.370000	96.500000	30.740000	516.000000	0.000000	138.000000	60.000000	24.000000	5.000000
1.380000	96.730000	30.830000	526.000000	0.000000	138.000000	60.000000	23.000000	9.000000
1.390000	96.900000	30.900000	538.000000	0.000000	138.000000	60.000000	17.000000	7.000000
1.400000	97.020000	30.990000	542.000000	0.000000	139.000000	61.000000	12.000000	9.000000
1.410000	97.130000	31.100000	548.000000	0.000000	139.000000	61.000000	11.000000	11.000000
1.420000	97.130000	31.250000	567.000000	0.000000	139.000000	61.000000	0.000000	15.000000
1.430000	97.130000	31.360000	564.000000	0.000000	139.000000	61.000000	0.000000	11.000000
1.440000	97.130000	31.440000	581.000000	0.000000	139.000000	61.000000	0.000000	8.000000
1.450000	96.950000	31.520000	606.000000	0.000000	141.000000	61.000000	-18.000000	8.000000
1.460000	96.770000	31.450000	617.000000	0.000000	141.000000	61.000000	-18.000000	-7.000000
1.470000	96.530000	31.370000	620.000000	0.000000	141.000000	61.000000	-24.000000	-8.000000
1.480000	96.270000	31.250000	628.000000	0.000000	141.000000	61.000000	-26.000000	-12.000000
1.490000	95.990000	31.050000	636.000000	0.000000	141.000000	61.000000	-28.000000	-20.000000
1.500000	95.700000	30.780000	641.000000	0.000000	139.000000	61.000000	-29.000000	-27.000000
1.510000	95.580000	30.500000	638.000000	0.000000	138.000000	61.000000	-12.000000	-28.000000
1.520000	95.580000	30.230000	638.000000	0.000000	138.000000	61.000000	0.000000	-27.000000
1.530000	95.580000	30.050000	634.000000	0.000000	138.000000	61.000000	0.000000	-18.000000
1.540000	95.760000	29.910000	631.000000	0.000000	136.000000	61.000000	18.000000	-14.000000
1.550000	96.050000	29.790000	628.000000	0.000000	135.000000	62.000000	29.000000	-12.000000
1.560000	96.310000	29.790000	628.000000	0.000000	135.000000	62.000000	26.000000	0.000000
1.570000	96.490000	29.840000	633.000000	0.000000	135.000000	62.000000	18.000000	5.000000
1.580000	96.610000	29.930000	634.000000	0.000000	135.000000	62.000000	12.000000	9.000000
1.590000	96.660000	30.070000	639.000000	0.000000	137.000000	62.000000	5.000000	14.000000
1.600000	96.660000	30.160000	637.000000	0.000000	137.000000	62.000000	0.000000	9.000000
1.610000	96.590000	30.220000	645.000000	0.000000	137.000000	62.000000	-7.000000	6.000000
1.620000	96.490000	30.220000	644.000000	0.000000	137.000000	62.000000	-10.000000	0.000000
1.630000	96.280000	30.130000	641.000000	0.000000	137.000000	62.000000	-21.000000	-9.000000
1.640000	96.000000	29.900000	642.000000	0.000000	137.000000	62.000000	-28.000000	-23.000000
1.650000	95.800000	29.580000	638.000000	0.000000	137.000000	62.000000	-20.000000	-32.000000
1.660000	95.630000	29.250000	639.000000	0.000000	137.000000	62.000000	-17.000000	-33.000000
1.670000	95.520000	28.940000	638.000000	0.000000	137.000000	62.000000	-11.000000	-31.000000
1.680000	95.460000	28.630000	639.000000	0.000000	135.000000	63.000000	-6.000000	-31.000000
1.690000	95.460000	28.360000	639.000000	0.000000	135.000000	63.000000	0.000000	-27.000000
1.700000	95.510000	28.120000	639.000000	0.000000	133.000000	62.000000	5.000000	-24.000000
1.710000	95.620000	27.910000	633.000000	0.000000	132.000000	63.000000	11.000000	-21.000000
1.720000	95.820000	27.810000	628.000000	0.000000	132.000000	63.000000	20.000000	-10.000000
1.730000	96.060000	27.810000	613.000000	0.000000	130.000000	63.000000	24.000000	0.000000
1.740000	96.340000	27.810000	610.000000	0.000000	130.000000	63.000000	28.000000	0.000000
1.750000	96.610000	27.930000	614.000000	0.000000	130.000000	63.000000	27.000000	12.000000
1.760000	96.860000	28.060000	613.000000	0.000000	132.000000	64.000000	25.000000	13.000000
1.770000	97.060000	28.390000	611.000000	0.000000	132.000000	64.000000	20.000000	33.000000
1.780000	97.240000	28.720000	613.000000	0.000000	132.000000	64.000000	18.000000	33.000000
1.790000	97.240000	29.040000	613.000000	0.000000	133.000000	65.000000	0.000000	32.000000
1.800000	97.320000	29.330000	616.000000	0.000000	135.000000	64.000000	8.000000	29.000000
1.810000	97.320000	29.400000	620.000000	0.000000	135.000000	64.000000	0.000000	7.000000
1.820000	97.260000	29.330000	610.000000	0.000000	135.000000	64.000000	-6.000000	-7.000000
1.830000	97.260000	29.260000	616.000000	0.000000	137.000000	63.000000	0.000000	-7.000000
1.840000	97.260000	29.130000	633.000000	0.000000	137.000000	63.000000	0.000000	-13.000000
1.850000	97.180000	28.920000	645.000000	0.000000	137.000000	63.000000	-8.000000	-21.000000
1.860000	97.120000	28.680000	643.000000	0.000000	137.000000	63.000000	-6.000000	-24.000000
1.870000	97.120000	28.430000	643.000000	0.000000	137.000000	63.000000	0.000000	-25.000000
1.880000	97.120000	28.160000	644.000000	0.000000	135.000000	64.000000	0.000000	-27.000000
1.890000	97.260000	27.890000	638.000000	0.000000	135.000000	64.000000	14.000000	-27.000000
1.900000	97.440000	27.790000	640.000000	0.000000	135.000000	64.000000	18.000000	-10.000000
1.910000	97.650000	27.790000	637.000000	0.000000	133.000000	65.000000	21.000000	0.000000
1.920000	98.050000	27.960000	643.000000	0.000000	133.000000	65.000000	40.000000	17.000000
1.930000	98.510000	28.090000	638.000000	0.000000	135.000000	65.000000	46.000000	13.000000
1.940000	98.790000	28.350000	641.000000	0.000000	135.000000	65.000000	28.000000	26.000000
1.950000	98.920000	28.700000	641.000000	0.000000	135.000000	65.000000	13.000000	35.000000
1.960000	99.000000	29.070000	647.000000	0.000000	137.000000	66.000000	8.000000	37.000000
1.970000	99.080000	29.440000	636.000000	0.000000	137.000000	66.000000	8.000000	37.000000
1.980000	99.080000	29.800000	641.000000	0.000000	140.000000	66.000000	0.000000	36.000000
1.990000	98.920000	29.950000	633.000000	0.000000	140.000000	66.000000	-16.000000	15.000000
2.000000	98.820000	29.950000	603.000000	0.000000	142.000000	65.000000	-10.000000	0.000000
2.010000	98.730000	29.860000	550.000000	0.000000	142.000000	65.000000	-9.000000	-9.000000
2.020000	98.610000	29.710000	425.000000	0.000000	142.000000	65.000000	-12.000000	-15.000000
2.030000	98.610000	29.560000	180.000000	0.000000	143.000000	64.000000	0.000000	-15.000000
2.040000	98.610000	29.560000	0.000000	1.000000	143.000000	64.000000	0.000000	0.000000
2.050000	98.960000	29.300000	0.000000	0.000000	143.000000	64.000000	35.000000	-26.000000
2.060000	99.250000	29.170000	0.000000	0.000000	143.000000	64.000000	29.000000	-13.000000
2.070000	99.590000	29.070000	0.000000	0.000000	143.000000	64.000000	34.000000	-10.000000
2.080000	99.950000	29.000000	0.000000	0.000000	142.000000	65.000000	36.000000	-7.000000
2.090000	100.300000	28.950000	0.000000	0.000000	144.000000	66.000000	35.000000	-5.000000
2.100000	100.300000	28.950000	109.000000	1.000000	144.000000	66.000000	0.000000	0.000000
2.110000	100.780000	29.010000	237.000000	0.000000	144.000000	66.000000	48.000000	6.000000
2.120000	100.910000	29.110000	361.000000	0.000000	146.000000	66.000000	13.000000	10.000000
2.130000	100.980000	29.200000	475.000000	0.000000	146.000000	66.000000	7.000000	9.000000
2.140000	100.980000	29.340000	540.000000	0.000000	146.000000	66.000000	0.000000	14.000000
2.150000	100.980000	29.520000	588.000000	0.000000	148.000000	67.000000	0.000000	18.000000
2.160000	100.900000	29.670000	594.000000	0.000000	148.000000	67.000000	-8.000000	15.000000
2.170000	100.770000	29.800000	642.000000	0.000000	148.000000	67.000000	-13.000000	13.000000
2.180000	100.570000	29.920000	659.000000	0.000000	148.000000	67.000000	-20.000000	12.000000
2.190000	100.320000	29.870000	663.000000	0.000000	149.000000	66.000000	-25.000000	-5.000000
2.200000	100.040000	29.760000	682.000000	0.000000	149.000000	66.000000	-28.000000	-11.000000
2.210000	99.670000	29.560000	694.000000	0.000000	149.000000	66.000000	-37.000000	-20.000000
