t	x	y	pressure	penup	azimuth	inclination	v_x	v_y
0.000000	49.540000	28.960000	282.000000	1.000000	135.000000	60.000000	0.000000	0.000000
0.010000	49.540000	28.960000	310.000000	0.000000	136.000000	61.000000	0.000000	0.000000
0.020000	49.540000	28.960000	339.000000	0.000000	136.000000	61.000000	0.000000	0.000000
0.030000	49.540000	28.960000	404.000000	0.000000	139.000000	61.000000	0.000000	0.000000
0.040000	49.540000	28.960000	441.000000	0.000000	141.000000	61.000000	0.000000	0.000000
0.050000	49.710000	28.650000	456.000000	0.000000	141.000000	61.000000	17.000000	-31.000000
0.060000	50.030000	28.410000	473.000000	0.000000	143.000000	62.000000	32.000000	-24.000000
0.070000	50.510000	28.160000	488.000000	0.000000	143.000000	62.000000	48.000000	-25.000000
0.080000	50.990000	28.010000	509.000000	0.000000	143.000000	62.000000	48.000000	-15.000000
0.090000	51.490000	27.910000	510.000000	0.000000	143.000000	62.000000	50.000000	-10.000000
0.100000	51.980000	27.910000	514.000000	0.000000	143.000000	62.000000	49.000000	0.000000
0.110000	52.440000	28.040000	519.000000	0.000000	140.000000	62.000000	46.000000	13.000000
0.120000	52.700000	28.180000	517.000000	0.000000	140.000000	62.000000	26.000000	14.000000
0.130000	52.850000	28.410000	520.000000	0.000000	140.000000	62.000000	15.000000	23.000000
0.140000	52.910000	28.640000	526.000000	0.000000	140.000000	62.000000	6.000000	23.000000
0.150000	52.860000	28.870000	537.000000	0.000000	138.000000	61.000000	-5.000000	23.000000
0.160000	52.730000	29.030000	589.000000	0.000000	139.000000	61.000000	-13.000000	16.000000
0.170000	52.320000	29.130000	619.000000	0.000000	139.000000	61.000000	-41.000000	10.000000
0.180000	51.850000	29.080000	637.000000	0.000000	139.000000	61.000000	-47.000000	-5.000000
0.190000	51.330000	28.950000	684.000000	0.000000	139.000000	61.000000	-52.000000	-13.000000
0.200000	50.800000	28.620000	699.000000	0.000000	139.000000	61.000000	-53.000000	-33.000000
0.210000	50.470000	28.280000	725.000000	0.000000	139.000000	61.000000	-33.000000	-34.000000
0.220000	50.260000	27.880000	720.000000	0.000000	141.000000	61.000000	-21.000000	-40.000000
0.230000	50.260000	27.430000	727.000000	0.000000	140.000000	62.000000	0.000000	-45.000000
0.240000	50.260000	26.930000	728.000000	0.000000	140.000000	62.000000	0.000000	-50.000000
0.250000	50.600000	26.460000	727.000000	0.000000	138.000000	63.000000	34.000000	-47.000000
0.260000	51.110000	26.140000	722.000000	0.000000	138.000000	63.000000	51.000000	-32.000000
0.270000	51.790000	25.910000	724.000000	0.000000	137.000000	63.000000	68.000000	-23.000000
0.280000	52.360000	25.910000	714.000000	0.000000	133.000000	63.000000	57.000000	0.000000
0.290000	52.860000	26.010000	708.000000	0.000000	132.000000	64.000000	50.000000	10.000000
0.300000	53.170000	26.170000	713.000000	0.000000	132.000000	64.000000	31.000000	16.000000
0.310000	53.260000	26.340000	727.000000	0.000000	130.000000	65.000000	9.000000	17.000000
0.320000	53.200000	26.490000	730.000000	0.000000	130.000000	65.000000	-6.000000	15.000000
0.330000	53.080000	26.620000	734.000000	0.000000	129.000000	64.000000	-12.000000	13.000000
0.340000	52.720000	26.750000	743.000000	0.000000	129.000000	64.000000	-36.000000	13.000000
0.350000	52.190000	26.670000	757.000000	0.000000	129.000000	64.000000	-53.000000	-8.000000
0.360000	51.650000	26.470000	770.000000	0.000000	132.000000	64.000000	-54.000000	-20.000000
0.370000	51.160000	26.180000	785.000000	0.000000	132.000000	64.000000	-49.000000	-29.000000
0.380000	50.880000	25.890000	794.000000	0.000000	132.000000	64.000000	-28.000000	-29.000000
0.390000	50.720000	25.530000	797.000000	0.000000	130.000000	65.000000	-16.000000	-36.000000
0.400000	50.720000	25.130000	783.000000	0.000000	130.000000	65.000000	0.000000	-40.000000
0.410000	50.860000	24.780000	787.000000	0.000000	130.000000	65.000000	14.000000	-35.000000
0.420000	51.160000	24.460000	785.000000	0.000000	128.000000	65.000000	30.000000	-32.000000
0.430000	51.610000	24.270000	788.000000	0.000000	128.000000	65.000000	45.000000	-19.000000
0.440000	52.060000	24.150000	791.000000	0.000000	128.000000	65.000000	45.000000	-12.000000
0.450000	52.500000	24.150000	800.000000	0.000000	128.000000	65.000000	44.000000	0.000000
0.460000	52.820000	24.230000	803.000000	0.000000	128.000000	65.000000	32.000000	8.000000
0.470000	53.080000	24.370000	806.000000	0.000000	127.000000	64.000000	26.000000	14.000000
0.480000	53.280000	24.550000	806.000000	0.000000	127.000000	64.000000	20.000000	18.000000
0.490000	53.490000	24.710000	788.000000	0.000000	127.000000	64.000000	21.000000	16.000000
0.500000	53.600000	24.870000	745.000000	0.000000	127.000000	64.000000	11.000000	16.000000
0.510000	53.600000	24.870000	584.000000	0.000000	127.000000	64.000000	0.000000	0.000000
0.520000	53.600000	24.870000	91.000000	0.000000	127.000000	64.000000	0.000000	0.000000
0.530000	53.600000	24.870000	0.000000	1.000000	125.000000	64.000000	0.000000	0.000000
0.540000	53.600000	24.870000	0.000000	0.000000	125.000000	64.000000	0.000000	0.000000
0.550000	53.600000	24.870000	0.000000	0.000000	125.000000	64.000000	0.000000	0.000000
0.560000	53.600000	24.870000	0.000000	0.000000	127.000000	63.000000	0.000000	0.000000
0.570000	53.920000	25.050000	0.000000	0.000000	127.000000	63.000000	32.000000	18.000000
0.580000	54.060000	25.170000	0.000000	0.000000	129.000000	63.000000	14.000000	12.000000
0.590000	54.210000	25.290000	0.000000	0.000000	129.000000	63.000000	15.000000	12.000000
0.600000	54.340000	25.470000	0.000000	0.000000	130.000000	62.000000	13.000000	18.000000
0.610000	54.390000	25.670000	0.000000	0.000000	130.000000	62.000000	5.000000	20.000000
0.620000	54.390000	25.890000	0.000000	0.000000	130.000000	62.000000	0.000000	22.000000
0.630000	54.390000	25.890000	430.000000	1.000000	132.000000	61.000000	0.000000	0.000000
0.640000	54.250000	26.270000	589.000000	0.000000	130.000000	62.000000	-14.000000	38.000000
0.650000	54.070000	26.390000	721.000000	0.000000	130.000000	62.000000	-18.000000	12.000000
0.660000	54.070000	26.440000	770.000000	0.000000	130.000000	62.000000	0.000000	5.000000
0.670000	54.070000	26.440000	780.000000	0.000000	129.000000	63.000000	0.000000	0.000000
0.680000	54.070000	26.380000	787.000000	0.000000	129.000000	63.000000	0.000000	-6.000000
0.690000	54.070000	26.140000	790.000000	0.000000	127.000000	63.000000	0.000000	-24.000000
0.700000	54.190000	25.760000	788.000000	0.000000	127.000000	63.000000	12.000000	-38.000000
0.710000	54.310000	25.490000	770.000000	0.000000	127.000000	63.000000	12.000000	-27.000000
0.720000	54.500000	25.210000	748.000000	0.000000	125.000000	64.000000	19.000000	-28.000000
0.730000	54.820000	25.060000	731.000000	0.000000	125.000000	64.000000	32.000000	-15.000000
0.740000	55.090000	25.000000	727.000000	0.000000	125.000000	64.000000	27.000000	-6.000000
0.750000	55.330000	25.060000	737.000000	0.000000	125.000000	64.000000	24.000000	6.000000
0.760000	55.510000	25.220000	757.000000	0.000000	125.000000	64.000000	18.000000	16.000000
0.770000	55.610000	25.450000	793.000000	0.000000	125.000000	64.000000	10.000000	23.000000
0.780000	55.610000	25.740000	815.000000	0.000000	127.000000	64.000000	0.000000	29.000000
0.790000	55.660000	26.010000	843.000000	0.000000	127.000000	64.000000	5.000000	27.000000
0.800000	55.660000	26.270000	851.000000	0.000000	127.000000	64.000000	0.000000	26.000000
0.810000	55.580000	26.400000	846.000000	0.000000	129.000000	64.000000	-8.000000	13.000000
0.820000	55.580000	26.480000	802.000000	0.000000	129.000000	64.000000	0.000000	8.000000
0.830000	55.580000	26.480000	691.000000	0.000000	129.000000	64.000000	0.000000	0.000000
0.840000	55.580000	26.430000	554.000000	0.000000	129.000000	64.000000	0.000000	-5.000000
0.850000	55.640000	26.340000	422.000000	0.000000	129.000000	64.000000	6.000000	-9.000000
0.860000	55.640000	26.340000	254.000000	0.000000	129.000000	64.000000	0.000000	0.000000
0.870000	56.110000	26.120000	73.000000	0.000000	129.000000	64.000000	47.000000	-22.000000
0.880000	56.430000	26.070000	1.000000	1.000000	130.000000	65.000000	0.000000	0.000000
0.890000	56.430000	26.070000	0.000000	0.000000	130.000000	65.000000	0.000000	0.000000
0.900000	56.430000	26.070000	67.000000	1.000000	130.000000	65.000000	0.000000	0.000000
0.910000	57.160000	26.120000	188.000000	0.000000	132.000000	65.000000	73.000000	5.000000
0.920000	57.260000	26.210000	354.000000	0.000000	132.000000	65.000000	10.000000	9.000000
0.930000	57.260000	26.350000	512.000000	0.000000	132.000000	65.000000	0.000000	14.000000
0.940000	57.260000	26.490000	653.000000	0.000000	132.000000	65.000000	0.000000	14.000000
0.950000	57.100000	26.590000	745.000000	0.000000	133.000000	65.000000	-16.000000	10.000000
0.960000	56.920000	26.670000	788.000000	0.000000	133.000000	65.000000	-18.000000	8.000000
0.970000	56.710000	26.670000	837.000000	0.000000	133.000000	65.000000	-21.000000	0.000000
0.980000	56.450000	26.540000	866.000000	0.000000	133.000000	65.000000	-26.000000	-13.000000
0.990000	56.200000	26.290000	861.000000	0.000000	133.000000	65.000000	-25.000000	-25.000000
1.000000	55.960000	25.880000	858.000000	0.000000	133.000000	65.000000	-24.000000	-41.000000
1.010000	55.960000	25.530000	857.000000	0.000000	133.000000	65.000000	0.000000	-35.000000
1.020000	56.020000	25.230000	817.000000	0.000000	132.000000	65.000000	6.000000	-30.000000
1.030000	56.080000	24.970000	788.000000	0.000000	130.000000	65.000000	6.000000	-26.000000
1.040000	56.380000	24.870000	746.000000	0.000000	130.000000	65.000000	30.000000	-10.000000
1.050000	56.670000	24.870000	725.000000	0.000000	130.000000	65.000000	29.000000	0.000000
1.060000	56.950000	25.020000	728.000000	0.000000	130.000000	65.000000	28.000000	15.000000
1.070000	57.110000	25.250000	739.000000	0.000000	130.000000	65.000000	16.000000	23.000000
1.080000	57.220000	25.530000	771.000000	0.000000	132.000000	65.000000	11.000000	28.000000
1.090000	57.270000	25.860000	815.000000	0.000000	132.000000	65.000000	5.000000	33.000000
1.100000	57.270000	26.160000	864.000000	0.000000	132.000000	65.000000	0.000000	30.000000
1.110000	57.270000	26.280000	872.000000	0.000000	133.000000	66.000000	0.000000	12.000000
1.120000	57.270000	26.280000	884.000000	0.000000	133.000000	66.000000	0.000000	0.000000
1.130000	57.270000	26.230000	890.000000	0.000000	133.000000	66.000000	0.000000	-5.000000
1.140000	57.270000	26.110000	896.000000	0.000000	133.000000	66.000000	0.000000	-12.000000
1.150000	57.220000	25.870000	896.000000	0.000000	133.000000	66.000000	-5.000000	-24.000000
1.160000	57.220000	25.570000	866.000000	0.000000	133.000000	66.000000	0.000000	-30.000000
1.170000	57.280000	25.350000	664.000000	0.000000	133.000000	66.000000	6.000000	-22.000000
1.180000	57.280000	25.350000	0.000000	1.000000	133.000000	66.000000	0.000000	0.000000
1.190000	57.740000	25.120000	0.000000	0.000000	132.000000	65.000000	46.000000	-23.000000
1.200000	58.200000	25.250000	0.000000	0.000000	132.000000	65.000000	46.000000	13.000000
1.210000	58.470000	25.250000	0.000000	0.000000	132.000000	65.000000	27.000000	0.000000
1.220000	58.770000	25.170000	0.000000	0.000000	133.000000	65.000000	30.000000	-8.000000
1.230000	59.110000	25.110000	0.000000	0.000000	135.000000	64.000000	34.000000	-6.000000
1.240000	59.500000	24.980000	0.000000	0.000000	135.000000	63.000000	39.000000	-13.000000
1.250000	59.920000	24.980000	0.000000	0.000000	136.000000	61.000000	42.000000	0.000000
1.260000	60.640000	25.110000	0.000000	0.000000	138.000000	59.000000	72.000000	13.000000
1.270000	61.110000	25.530000	0.000000	0.000000	140.000000	56.000000	47.000000	42.000000
1.280000	61.420000	25.690000	0.000000	0.000000	141.000000	55.000000	31.000000	16.000000
1.290000	61.890000	25.690000	0.000000	0.000000	143.000000	52.000000	47.000000	0.000000
1.300000	62.170000	25.690000	0.000000	0.000000	145.000000	51.000000	28.000000	0.000000
1.310000	62.310000	25.690000	0.000000	0.000000	147.000000	49.000000	14.000000	0.000000
1.320000	62.430000	25.740000	0.000000	0.000000	148.000000	48.000000	12.000000	5.000000
1.330000	62.640000	25.680000	0.000000	0.000000	149.000000	49.000000	21.000000	-6.000000
1.340000	62.900000	25.680000	0.000000	0.000000	149.000000	49.000000	26.000000	0.000000
1.350000	62.900000	25.750000	0.000000	0.000000	150.000000	50.000000	0.000000	7.000000
1.360000	63.060000	26.040000	0.000000	0.000000	149.000000	52.000000	16.000000	29.000000
1.370000	62.970000	26.350000	0.000000	0.000000	148.000000	54.000000	-9.000000	31.000000
1.380000	62.640000	26.670000	0.000000	0.000000	147.000000	55.000000	-33.000000	32.000000
1.390000	62.520000	26.970000	0.000000	0.000000	145.000000	56.000000	-12.000000	30.000000
1.400000	62.700000	27.270000	0.000000	0.000000	144.000000	58.000000	18.000000	30.000000
1.410000	62.700000	27.270000	252.000000	1.000000	143.000000	59.000000	0.000000	0.000000
1.420000	62.860000	27.820000	334.000000	0.000000	142.000000	59.000000	16.000000	55.000000
1.430000	62.690000	28.030000	398.000000	0.000000	141.000000	60.000000	-17.000000	21.000000
1.440000	62.600000	28.160000	522.000000	0.000000	142.000000	61.000000	-9.000000	13.000000
1.450000	62.550000	28.160000	594.000000	0.000000	142.000000	61.000000	-5.000000	0.000000
1.460000	62.550000	28.160000	630.000000	0.000000	141.000000	61.000000	0.000000	0.000000
1.470000	62.550000	28.080000	697.000000	0.000000	141.000000	61.000000	0.000000	-8.000000
1.480000	62.550000	27.550000	727.000000	0.000000	141.000000	61.000000	0.000000	-53.000000
1.490000	62.550000	26.740000	746.000000	0.000000	140.000000	62.000000	0.000000	-81.000000
1.500000	62.620000	26.020000	755.000000	0.000000	140.000000	62.000000	7.000000	-72.000000
1.510000	62.620000	25.450000	757.000000	0.000000	140.000000	62.000000	0.000000	-57.000000
1.520000	62.620000	24.970000	728.000000	0.000000	138.000000	63.000000	0.000000	-48.000000
1.530000	62.830000	24.700000	592.000000	0.000000	137.000000	63.000000	21.000000	-27.000000
1.540000	62.900000	24.500000	339.000000	0.000000	135.000000	63.000000	7.000000	-20.000000
1.550000	62.990000	24.360000	1.000000	1.000000	133.000000	63.000000	0.000000	0.000000
1.560000	62.990000	24.360000	0.000000	0.000000	133.000000	63.000000	0.000000	0.000000
1.570000	63.310000	25.240000	0.000000	0.000000	133.000000	63.000000	32.000000	88.000000
1.580000	63.310000	25.660000	0.000000	0.000000	133.000000	63.000000	0.000000	42.000000
1.590000	63.080000	26.190000	0.000000	0.000000	132.000000	63.000000	-23.000000	53.000000
1.600000	62.870000	26.790000	0.000000	0.000000	132.000000	63.000000	-21.000000	60.000000
1.610000	62.610000	27.400000	0.000000	0.000000	133.000000	62.000000	-26.000000	61.000000
1.620000	62.320000	27.770000	0.000000	0.000000	133.000000	62.000000	-29.000000	37.000000
1.630000	62.320000	27.770000	265.000000	1.000000	135.000000	62.000000	0.000000	0.000000
1.640000	61.700000	28.080000	337.000000	0.000000	135.000000	62.000000	-62.000000	31.000000
1.650000	61.640000	28.150000	396.000000	0.000000	136.000000	61.000000	-6.000000	7.000000
1.660000	61.730000	28.150000	468.000000	0.000000	138.000000	61.000000	9.000000	0.000000
1.670000	61.880000	28.150000	497.000000	0.000000	139.000000	61.000000	15.000000	0.000000
1.680000	62.380000	28.150000	507.000000	0.000000	139.000000	61.000000	50.000000	0.000000
1.690000	63.100000	28.260000	494.000000	0.000000	139.000000	61.000000	72.000000	11.000000
1.700000	63.780000	28.400000	443.000000	0.000000	141.000000	60.000000	68.000000	14.000000
1.710000	64.180000	28.490000	212.000000	0.000000	141.000000	60.000000	40.000000	9.000000
1.720000	64.180000	28.490000	0.000000	1.000000	139.000000	60.000000	0.000000	0.000000
1.730000	64.500000	28.570000	0.000000	0.000000	139.000000	60.000000	32.000000	8.000000
1.740000	64.500000	28.470000	0.000000	0.000000	139.000000	60.000000	0.000000	-10.000000
1.750000	64.370000	28.300000	0.000000	0.000000	139.000000	60.000000	-13.000000	-17.000000
1.760000	64.370000	28.090000	0.000000	0.000000	139.000000	60.000000	0.000000	-21.000000
1.770000	64.370000	27.820000	0.000000	0.000000	139.000000	60.000000	0.000000	-27.000000
1.780000	64.490000	27.470000	0.000000	0.000000	136.000000	60.000000	12.000000	-35.000000
1.790000	64.620000	27.100000	0.000000	0.000000	136.000000	60.000000	13.000000	-37.000000
1.800000	64.740000	26.760000	0.000000	0.000000	136.000000	60.000000	12.000000	-34.000000
1.810000	64.640000	26.400000	0.000000	0.000000	136.000000	60.000000	-10.000000	-36.000000
1.820000	64.400000	26.070000	0.000000	0.000000	135.000000	60.000000	-24.000000	-33.000000
1.830000	64.400000	26.070000	322.000000	1.000000	134.000000	60.000000	0.000000	0.000000
1.840000	63.960000	25.560000	379.000000	0.000000	134.000000	60.000000	-44.000000	-51.000000
1.850000	63.850000	25.500000	427.000000	0.000000	132.000000	60.000000	-11.000000	-6.000000
1.860000	63.850000	25.380000	452.000000	0.000000	132.000000	60.000000	0.000000	-12.000000
1.870000	63.980000	25.330000	471.000000	0.000000	131.000000	61.000000	13.000000	-5.000000
1.880000	64.340000	25.330000	447.000000	0.000000	131.000000	61.000000	36.000000	0.000000
1.890000	64.910000	25.440000	418.000000	0.000000	130.000000	62.000000	57.000000	11.000000
1.900000	65.610000	25.630000	425.000000	0.000000	130.000000	62.000000	70.000000	19.000000
1.910000	66.040000	25.880000	423.000000	0.000000	130.000000	62.000000	43.000000	25.000000
1.920000	66.230000	26.110000	425.000000	0.000000	130.000000	62.000000	19.000000	23.000000
1.930000	66.230000	26.380000	448.000000	0.000000	130.000000	62.000000	0.000000	27.000000
1.940000	66.120000	26.670000	496.000000	0.000000	130.000000	62.000000	-11.000000	29.000000
1.950000	65.910000	26.820000	586.000000	0.000000	132.000000	61.000000	-21.000000	15.000000
1.960000	65.650000	26.950000	645.000000	0.000000	132.000000	61.000000	-26.000000	13.000000
1.970000	65.380000	26.890000	685.000000	0.000000	132.000000	61.000000	-27.000000	-6.000000
1.980000	65.130000	26.720000	725.000000	0.000000	134.000000	61.000000	-25.000000	-17.000000
1.990000	64.900000	26.480000	740.000000	0.000000	134.000000	61.000000	-23.000000	-24.000000
2.000000	64.700000	26.100000	754.000000	0.000000	134.000000	61.000000	-20.000000	-38.000000
2.010000	64.550000	25.640000	755.000000	0.000000	134.000000	61.000000	-15.000000	-46.000000
2.020000	64.600000	25.190000	736.000000	0.000000	132.000000	61.000000	5.000000	-45.000000
2.030000	64.760000	24.850000	671.000000	0.000000	132.000000	61.000000	16.000000	-34.000000
2.040000	65.080000	24.580000	538.000000	0.000000	132.000000	61.000000	32.000000	-27.000000
2.050000	65.580000	24.480000	315.000000	0.000000	130.000000	62.000000	50.000000	-10.000000
2.060000	66.190000	24.530000	34.000000	0.000000	129.000000	61.000000	61.000000	5.000000
2.070000	66.190000	24.530000	0.000000	1.000000	130.000000	62.000000	0.000000	0.000000
2.080000	67.130000	24.900000	0.000000	0.000000	130.000000	62.000000	94.000000	37.000000
2.090000	67.410000	25.130000	0.000000	0.000000	130.000000	62.000000	28.000000	23.000000
2.100000	67.570000	25.450000	0.000000	0.000000	132.000000	63.000000	16.000000	32.000000
2.110000	67.730000	25.850000	0.000000	0.000000	132.000000	63.000000	16.000000	40.000000
2.120000	67.730000	25.850000	149.000000	1.000000	135.000000	63.000000	0.000000	0.000000
2.130000	67.800000	26.570000	275.000000	0.000000	135.000000	63.000000	7.000000	72.000000
2.140000	67.730000	26.830000	377.000000	0.000000	135.000000	63.000000	-7.000000	26.000000
2.150000	67.660000	27.040000	483.000000	0.000000	137.000000	63.000000	-7.000000	21.000000
2.160000	67.660000	27.220000	588.000000	0.000000	137.000000	63.000000	0.000000	18.000000
2.170000	67.590000	27.220000	622.000000	0.000000	138.000000	63.000000	-7.000000	0.000000
2.180000	67.590000	27.220000	673.000000	0.000000	138.000000	63.000000	0.000000	0.000000
2.190000	67.480000	27.060000	710.000000	0.000000	138.000000	63.000000	-11.000000	-16.000000
2.200000	67.360000	26.750000	720.000000	0.000000	138.000000	61.000000	-12.000000	-31.000000
2.210000	67.360000	26.310000	727.000000	0.000000	137.000000	62.000000	0.000000	-44.000000
2.220000	67.360000	25.880000	730.000000	0.000000	137.000000	62.000000	0.000000	-43.000000
