t	x	y	pressure	penup	azimuth	inclination	v_x	v_y
0.000000	67.930000	49.150000	100.000000	1.000000	284.000000	60.000000	0.000000	0.000000
0.010000	67.930000	49.150000	131.000000	0.000000	284.000000	60.000000	0.000000	0.000000
0.020000	67.930000	49.150000	160.000000	0.000000	282.000000	60.000000	0.000000	0.000000
0.030000	67.930000	49.150000	213.000000	0.000000	282.000000	60.000000	0.000000	0.000000
0.040000	67.930000	49.150000	251.000000	0.000000	282.000000	60.000000	0.000000	0.000000
0.050000	67.520000	49.280000	302.000000	0.000000	282.000000	60.000000	-41.000000	13.000000
0.060000	66.820000	49.030000	371.000000	0.000000	282.000000	60.000000	-70.000000	-25.000000
0.070000	65.590000	48.680000	422.000000	0.000000	282.000000	60.000000	-123.000000	-35.000000
0.080000	63.920000	48.180000	453.000000	0.000000	282.000000	60.000000	-167.000000	-50.000000
0.090000	61.950000	47.520000	473.000000	0.000000	282.000000	60.000000	-197.000000	-66.000000
0.100000	59.950000	46.750000	490.000000	0.000000	285.000000	61.000000	-200.000000	-77.000000
0.110000	58.010000	45.830000	496.000000	0.000000	287.000000	61.000000	-194.000000	-92.000000
0.120000	56.630000	45.030000	494.000000	0.000000	288.000000	61.000000	-138.000000	-80.000000
0.130000	55.610000	44.300000	492.000000	0.000000	291.000000	61.000000	-102.000000	-73.000000
0.140000	54.680000	43.660000	495.000000	0.000000	294.000000	62.000000	-93.000000	-64.000000
0.150000	54.010000	43.060000	483.000000	0.000000	295.000000	62.000000	-67.000000	-60.000000
0.160000	53.520000	42.550000	460.000000	0.000000	298.000000	62.000000	-49.000000	-51.000000
0.170000	53.410000	42.140000	447.000000	0.000000	301.000000	63.000000	-11.000000	-41.000000
0.180000	53.650000	41.920000	418.000000	0.000000	303.000000	62.000000	24.000000	-22.000000
0.190000	54.120000	41.810000	402.000000	0.000000	303.000000	62.000000	47.000000	-11.000000
0.200000	54.940000	41.870000	396.000000	0.000000	303.000000	62.000000	82.000000	6.000000
0.210000	55.980000	42.200000	399.000000	0.000000	303.000000	62.000000	104.000000	33.000000
0.220000	57.170000	42.710000	398.000000	0.000000	303.000000	62.000000	119.000000	51.000000
0.230000	58.540000	43.500000	394.000000	0.000000	303.000000	62.000000	137.000000	79.000000
0.240000	59.900000	44.660000	398.000000	0.000000	301.000000	63.000000	136.000000	116.000000
0.250000	60.960000	46.060000	397.000000	0.000000	300.000000	62.000000	106.000000	140.000000
0.260000	61.830000	47.900000	404.000000	0.000000	298.000000	62.000000	87.000000	184.000000
0.270000	62.360000	49.750000	405.000000	0.000000	295.000000	62.000000	53.000000	185.000000
0.280000	62.580000	51.600000	410.000000	0.000000	294.000000	62.000000	22.000000	185.000000
0.290000	62.580000	53.450000	409.000000	0.000000	293.000000	61.000000	0.000000	185.000000
0.300000	62.410000	54.990000	413.000000	0.000000	290.000000	60.000000	-17.000000	154.000000
0.310000	62.190000	56.330000	409.000000	0.000000	288.000000	61.000000	-22.000000	134.000000
0.320000	61.870000	57.110000	412.000000	0.000000	287.000000	61.000000	-32.000000	78.000000
0.330000	61.480000	57.460000	412.000000	0.000000	284.000000	60.000000	-39.000000	35.000000
0.340000	61.200000	57.520000	422.000000	0.000000	282.000000	60.000000	-28.000000	6.000000
0.350000	60.900000	57.140000	443.000000	0.000000	282.000000	60.000000	-30.000000	-38.000000
0.360000	60.580000	56.310000	473.000000	0.000000	282.000000	60.000000	-32.000000	-83.000000
0.370000	60.360000	55.170000	517.000000	0.000000	282.000000	60.000000	-22.000000	-114.000000
0.380000	60.210000	53.460000	578.000000	0.000000	283.000000	61.000000	-15.000000	-171.000000
0.390000	60.140000	51.320000	588.000000	0.000000	283.000000	61.000000	-7.000000	-214.000000
0.400000	60.140000	48.890000	610.000000	0.000000	283.000000	61.000000	0.000000	-243.000000
0.410000	60.140000	45.880000	637.000000	0.000000	284.000000	62.000000	0.000000	-301.000000
0.420000	60.300000	42.910000	646.000000	0.000000	285.000000	62.000000	16.000000	-297.000000
0.430000	60.450000	40.540000	664.000000	0.000000	285.000000	62.000000	15.000000	-237.000000
0.440000	60.670000	38.560000	661.000000	0.000000	287.000000	62.000000	22.000000	-198.000000
0.450000	60.930000	37.500000	592.000000	0.000000	287.000000	62.000000	26.000000	-106.000000
0.460000	61.080000	37.020000	445.000000	0.000000	289.000000	62.000000	15.000000	-48.000000
0.470000	61.160000	36.940000	144.000000	0.000000	289.000000	62.000000	8.000000	-8.000000
0.480000	61.160000	36.940000	0.000000	1.000000	289.000000	62.000000	0.000000	0.000000
0.490000	61.050000	37.410000	0.000000	0.000000	291.000000	61.000000	-11.000000	47.000000
0.500000	60.990000	37.740000	0.000000	0.000000	291.000000	61.000000	-6.000000	33.000000
0.510000	60.990000	38.020000	0.000000	0.000000	291.000000	61.000000	0.000000	28.000000
0.520000	60.890000	38.330000	0.000000	0.000000	291.000000	61.000000	-10.000000	31.000000
0.530000	60.800000	38.690000	0.000000	0.000000	293.000000	61.000000	-9.000000	36.000000
0.540000	60.650000	39.210000	0.000000	0.000000	294.000000	62.000000	-15.000000	52.000000
0.550000	60.460000	39.850000	0.000000	0.000000	295.000000	62.000000	-19.000000	64.000000
0.560000	60.150000	40.170000	0.000000	0.000000	297.000000	61.000000	-31.000000	32.000000
0.570000	59.770000	40.660000	0.000000	0.000000	298.000000	62.000000	-38.000000	49.000000
0.580000	59.330000	41.270000	0.000000	0.000000	301.000000	63.000000	-44.000000	61.000000
0.590000	58.810000	41.760000	0.000000	0.000000	301.000000	63.000000	-52.000000	49.000000
0.600000	58.240000	42.070000	0.000000	0.000000	301.000000	63.000000	-57.000000	31.000000
0.610000	57.790000	42.250000	0.000000	0.000000	300.000000	62.000000	-45.000000	18.000000
0.620000	57.370000	42.340000	0.000000	0.000000	300.000000	62.000000	-42.000000	9.000000
0.630000	56.960000	42.450000	0.000000	0.000000	297.000000	61.000000	-41.000000	11.000000
0.640000	56.330000	42.560000	0.000000	0.000000	296.000000	60.000000	-63.000000	11.000000
0.650000	56.030000	42.660000	0.000000	0.000000	295.000000	60.000000	-30.000000	10.000000
0.660000	55.950000	42.790000	0.000000	0.000000	294.000000	59.000000	-8.000000	13.000000
0.670000	55.680000	42.980000	0.000000	0.000000	294.000000	59.000000	-27.000000	19.000000
0.680000	55.460000	43.230000	0.000000	0.000000	293.000000	58.000000	-22.000000	25.000000
0.690000	55.270000	43.480000	0.000000	0.000000	294.000000	59.000000	-19.000000	25.000000
0.700000	55.130000	43.720000	0.000000	0.000000	294.000000	59.000000	-14.000000	24.000000
0.710000	55.030000	43.950000	0.000000	0.000000	294.000000	59.000000	-10.000000	23.000000
0.720000	54.950000	44.150000	0.000000	0.000000	294.000000	59.000000	-8.000000	20.000000
0.730000	54.950000	44.340000	0.000000	0.000000	293.000000	59.000000	0.000000	19.000000
0.740000	54.950000	44.400000	0.000000	0.000000	293.000000	59.000000	0.000000	6.000000
0.750000	54.950000	44.400000	0.000000	0.000000	293.000000	59.000000	0.000000	0.000000
0.760000	54.950000	44.310000	0.000000	0.000000	293.000000	59.000000	0.000000	-9.000000
0.770000	54.950000	44.150000	0.000000	0.000000	293.000000	59.000000	0.000000	-16.000000
0.780000	54.950000	44.000000	0.000000	0.000000	293.000000	59.000000	0.000000	-15.000000
0.790000	54.950000	43.870000	0.000000	0.000000	293.000000	59.000000	0.000000	-13.000000
0.800000	54.900000	43.780000	0.000000	0.000000	293.000000	59.000000	-5.000000	-9.000000
0.810000	54.850000	43.780000	0.000000	0.000000	293.000000	59.000000	-5.000000	0.000000
0.820000	54.780000	43.780000	0.000000	0.000000	294.000000	59.000000	-7.000000	0.000000
0.830000	54.670000	43.860000	0.000000	0.000000	295.000000	60.000000	-11.000000	8.000000
0.840000	54.530000	43.860000	0.000000	0.000000	295.000000	60.000000	-14.000000	0.000000
0.850000	54.390000	43.860000	0.000000	0.000000	295.000000	60.000000	-14.000000	0.000000
0.860000	54.240000	43.860000	0.000000	0.000000	295.000000	60.000000	-15.000000	0.000000
0.870000	54.040000	43.720000	0.000000	0.000000	295.000000	60.000000	-20.000000	-14.000000
0.880000	53.850000	43.560000	0.000000	0.000000	297.000000	59.000000	-19.000000	-16.000000
0.890000	53.640000	43.370000	0.000000	0.000000	297.000000	59.000000	-21.000000	-19.000000
0.900000	53.450000	43.180000	0.000000	0.000000	297.000000	59.000000	-19.000000	-19.000000
0.910000	53.450000	43.180000	158.000000	1.000000	297.000000	59.000000	0.000000	0.000000
0.920000	53.210000	42.790000	177.000000	0.000000	298.000000	60.000000	-24.000000	-39.000000
0.930000	53.270000	42.580000	180.000000	0.000000	298.000000	60.000000	6.000000	-21.000000
0.940000	53.390000	42.360000	225.000000	0.000000	298.000000	60.000000	12.000000	-22.000000
0.950000	53.520000	42.360000	245.000000	0.000000	298.000000	60.000000	13.000000	0.000000
0.960000	53.650000	42.360000	280.000000	0.000000	298.000000	60.000000	13.000000	0.000000
0.970000	53.900000	42.650000	333.000000	0.000000	298.000000	60.000000	25.000000	29.000000
0.980000	54.230000	43.160000	369.000000	0.000000	298.000000	60.000000	33.000000	51.000000
0.990000	54.580000	43.900000	377.000000	0.000000	297.000000	61.000000	35.000000	74.000000
1.000000	54.900000	44.950000	396.000000	0.000000	297.000000	61.000000	32.000000	105.000000
1.010000	55.170000	46.220000	399.000000	0.000000	297.000000	61.000000	27.000000	127.000000
1.020000	55.420000	47.730000	391.000000	0.000000	295.000000	62.000000	25.000000	151.000000
1.030000	55.510000	49.110000	399.000000	0.000000	295.000000	62.000000	9.000000	138.000000
1.040000	55.510000	50.400000	389.000000	0.000000	294.000000	62.000000	0.000000	129.000000
1.050000	55.410000	51.610000	391.000000	0.000000	292.000000	62.000000	-10.000000	121.000000
1.060000	55.310000	52.580000	399.000000	0.000000	290.000000	63.000000	-10.000000	97.000000
1.070000	55.210000	53.380000	393.000000	0.000000	288.000000	63.000000	-10.000000	80.000000
1.080000	55.100000	53.640000	394.000000	0.000000	288.000000	63.000000	-11.000000	26.000000
1.090000	54.980000	53.540000	389.000000	0.000000	285.000000	62.000000	-12.000000	-10.000000
1.100000	54.870000	53.200000	391.000000	0.000000	285.000000	62.000000	-11.000000	-34.000000
1.110000	54.810000	52.310000	407.000000	0.000000	285.000000	62.000000	-6.000000	-89.000000
1.120000	54.810000	51.080000	433.000000	0.000000	285.000000	62.000000	0.000000	-123.000000
1.130000	54.890000	49.630000	453.000000	0.000000	285.000000	62.000000	8.000000	-145.000000
1.140000	55.120000	48.090000	480.000000	0.000000	285.000000	62.000000	23.000000	-154.000000
1.150000	55.430000	46.640000	498.000000	0.000000	285.000000	62.000000	31.000000	-145.000000
1.160000	55.800000	45.260000	501.000000	0.000000	288.000000	63.000000	37.000000	-138.000000
1.170000	56.190000	44.510000	498.000000	0.000000	288.000000	63.000000	39.000000	-75.000000
1.180000	56.590000	44.190000	486.000000	0.000000	290.000000	63.000000	40.000000	-32.000000
1.190000	56.970000	44.190000	467.000000	0.000000	290.000000	63.000000	38.000000	0.000000
1.200000	57.360000	44.580000	473.000000	0.000000	292.000000	62.000000	39.000000	39.000000
1.210000	57.750000	45.460000	468.000000	0.000000	292.000000	62.000000	39.000000	88.000000
1.220000	58.000000	46.650000	468.000000	0.000000	294.000000	62.000000	25.000000	119.000000
1.230000	58.180000	48.230000	468.000000	0.000000	292.000000	62.000000	18.000000	158.000000
1.240000	58.310000	49.790000	468.000000	0.000000	292.000000	62.000000	13.000000	156.000000
1.250000	58.380000	51.350000	468.000000	0.000000	290.000000	63.000000	7.000000	156.000000
1.260000	58.380000	53.010000	471.000000	0.000000	287.000000	62.000000	0.000000	166.000000
1.270000	58.240000	54.280000	468.000000	0.000000	285.000000	62.000000	-14.000000	127.000000
1.280000	58.070000	55.300000	474.000000	0.000000	285.000000	62.000000	-17.000000	102.000000
1.290000	57.960000	55.790000	472.000000	0.000000	283.000000	61.000000	-11.000000	49.000000
1.300000	57.910000	55.860000	494.000000	0.000000	283.000000	61.000000	-5.000000	7.000000
1.310000	57.910000	55.650000	527.000000	0.000000	283.000000	61.000000	0.000000	-21.000000
1.320000	57.830000	55.070000	542.000000	0.000000	283.000000	61.000000	-8.000000	-58.000000
1.330000	57.830000	54.060000	570.000000	0.000000	283.000000	61.000000	0.000000	-101.000000
1.340000	57.890000	52.770000	608.000000	0.000000	283.000000	61.000000	6.000000	-129.000000
1.350000	58.080000	51.310000	650.000000	0.000000	283.000000	61.000000	19.000000	-146.000000
1.360000	58.330000	49.830000	655.000000	0.000000	283.000000	61.000000	25.000000	-148.000000
1.370000	58.680000	48.330000	659.000000	0.000000	283.000000	61.000000	35.000000	-150.000000
1.380000	59.100000	47.060000	636.000000	0.000000	283.000000	61.000000	42.000000	-127.000000
1.390000	59.480000	46.230000	611.000000	0.000000	283.000000	61.000000	38.000000	-83.000000
1.400000	59.830000	45.700000	519.000000	0.000000	283.000000	61.000000	35.000000	-53.000000
1.410000	60.110000	45.630000	386.000000	0.000000	285.000000	61.000000	28.000000	-7.000000
1.420000	60.230000	45.750000	119.000000	0.000000	285.000000	61.000000	12.000000	12.000000
1.430000	60.230000	45.750000	0.000000	1.000000	287.000000	61.000000	0.000000	0.000000
1.440000	60.230000	46.220000	0.000000	0.000000	287.000000	61.000000	0.000000	47.000000
1.450000	60.120000	46.330000	0.000000	0.000000	287.000000	61.000000	-11.000000	11.000000
1.460000	60.040000	46.380000	0.000000	0.000000	288.000000	61.000000	-8.000000	5.000000
1.470000	59.940000	46.380000	0.000000	0.000000	288.000000	61.000000	-10.000000	0.000000
1.480000	59.850000	46.480000	0.000000	0.000000	288.000000	61.000000	-9.000000	10.000000
1.490000	59.770000	46.590000	0.000000	0.000000	288.000000	61.000000	-8.000000	11.000000
1.500000	59.770000	46.770000	0.000000	0.000000	288.000000	61.000000	0.000000	18.000000
1.510000	59.710000	46.990000	0.000000	0.000000	287.000000	61.000000	-6.000000	22.000000
1.520000	59.710000	46.990000	0.000000	0.000000	287.000000	61.000000	0.000000	0.000000
1.530000	59.870000	47.330000	0.000000	0.000000	287.000000	61.000000	16.000000	34.000000
1.540000	59.990000	47.330000	0.000000	0.000000	287.000000	61.000000	12.000000	0.000000
1.550000	59.990000	47.330000	65.000000	1.000000	285.000000	61.000000	0.000000	0.000000
1.560000	59.990000	47.330000	108.000000	0.000000	285.000000	61.000000	0.000000	0.000000
1.570000	60.320000	47.230000	187.000000	0.000000	285.000000	61.000000	33.000000	-10.000000
1.580000	60.440000	47.230000	223.000000	0.000000	285.000000	61.000000	12.000000	0.000000
1.590000	60.550000	47.290000	259.000000	0.000000	283.000000	61.000000	11.000000	6.000000
1.600000	60.640000	47.450000	262.000000	0.000000	283.000000	61.000000	9.000000	16.000000
1.610000	60.770000	47.840000	274.000000	0.000000	283.000000	61.000000	13.000000	39.000000
1.620000	60.930000	48.250000	279.000000	0.000000	283.000000	61.000000	16.000000	41.000000
1.630000	61.140000	48.690000	294.000000	0.000000	281.000000	62.000000	21.000000	44.000000
1.640000	61.340000	49.120000	297.000000	0.000000	281.000000	61.000000	20.000000	43.000000
1.650000	61.540000	49.450000	302.000000	0.000000	281.000000	61.000000	20.000000	33.000000
1.660000	61.760000	49.740000	312.000000	0.000000	279.000000	61.000000	22.000000	29.000000
1.670000	61.920000	49.880000	344.000000	0.000000	279.000000	61.000000	16.000000	14.000000
1.680000	62.010000	50.000000	353.000000	0.000000	279.000000	61.000000	9.000000	12.000000
1.690000	62.010000	50.120000	367.000000	0.000000	279.000000	60.000000	0.000000	12.000000
1.700000	62.010000	50.270000	396.000000	0.000000	277.000000	60.000000	0.000000	15.000000
1.710000	61.830000	50.440000	423.000000	0.000000	277.000000	60.000000	-18.000000	17.000000
1.720000	61.620000	50.650000	423.000000	0.000000	277.000000	60.000000	-21.000000	21.000000
1.730000	61.360000	50.880000	433.000000	0.000000	277.000000	60.000000	-26.000000	23.000000
1.740000	61.060000	50.980000	430.000000	0.000000	277.000000	60.000000	-30.000000	10.000000
1.750000	60.730000	50.980000	443.000000	0.000000	279.000000	60.000000	-33.000000	0.000000
1.760000	60.500000	50.810000	441.000000	0.000000	279.000000	60.000000	-23.000000	-17.000000
1.770000	60.310000	50.370000	439.000000	0.000000	279.000000	61.000000	-19.000000	-44.000000
1.780000	60.140000	49.770000	448.000000	0.000000	279.000000	61.000000	-17.000000	-60.000000
1.790000	60.140000	48.970000	460.000000	0.000000	279.000000	61.000000	0.000000	-80.000000
1.800000	60.290000	48.100000	455.000000	0.000000	279.000000	61.000000	15.000000	-87.000000
1.810000	60.510000	47.180000	474.000000	0.000000	279.000000	61.000000	22.000000	-92.000000
1.820000	60.840000	46.380000	467.000000	0.000000	279.000000	61.000000	33.000000	-80.000000
1.830000	61.170000	45.950000	473.000000	0.000000	281.000000	61.000000	33.000000	-43.000000
1.840000	61.510000	45.760000	471.000000	0.000000	282.000000	60.000000	34.000000	-19.000000
1.850000	61.780000	45.870000	458.000000	0.000000	282.000000	60.000000	27.000000	11.000000
1.860000	62.020000	46.200000	444.000000	0.000000	284.000000	60.000000	24.000000	33.000000
1.870000	62.220000	46.690000	441.000000	0.000000	284.000000	60.000000	20.000000	49.000000
1.880000	62.330000	47.320000	438.000000	0.000000	284.000000	60.000000	11.000000	63.000000
1.890000	62.330000	48.050000	441.000000	0.000000	284.000000	59.000000	0.000000	73.000000
1.900000	62.280000	48.840000	433.000000	0.000000	284.000000	59.000000	-5.000000	79.000000
1.910000	62.180000	49.480000	435.000000	0.000000	282.000000	59.000000	-10.000000	64.000000
1.920000	62.060000	49.870000	436.000000	0.000000	280.000000	60.000000	-12.000000	39.000000
1.930000	62.000000	50.090000	448.000000	0.000000	279.000000	60.000000	-6.000000	22.000000
1.940000	62.000000	50.090000	458.000000	0.000000	279.000000	60.000000	0.000000	0.000000
1.950000	62.000000	50.090000	470.000000	0.000000	277.000000	60.000000	0.000000	0.000000
1.960000	62.000000	50.030000	491.000000	0.000000	277.000000	60.000000	0.000000	-6.000000
1.970000	62.000000	49.970000	504.000000	0.000000	275.000000	59.000000	0.000000	-6.000000
1.980000	62.000000	49.970000	515.000000	0.000000	275.000000	59.000000	0.000000	0.000000
1.990000	62.000000	49.970000	520.000000	0.000000	275.000000	59.000000	0.000000	0.000000
2.000000	62.000000	49.970000	522.000000	0.000000	275.000000	59.000000	0.000000	0.000000
2.010000	62.000000	49.910000	522.000000	0.000000	275.000000	59.000000	0.000000	-6.000000
2.020000	62.000000	49.910000	512.000000	0.000000	275.000000	60.000000	0.000000	0.000000
2.030000	62.000000	49.910000	516.000000	0.000000	275.000000	60.000000	0.000000	0.000000
2.040000	62.000000	49.910000	518.000000	0.000000	275.000000	60.000000	0.000000	0.000000
2.050000	62.000000	49.910000	522.000000	0.000000	275.000000	60.000000	0.000000	0.000000
2.060000	62.000000	49.910000	527.000000	0.000000	275.000000	60.000000	0.000000	0.000000
2.070000	62.000000	49.910000	532.000000	0.000000	275.000000	60.000000	0.000000	0.000000
2.080000	62.000000	49.910000	526.000000	0.000000	275.000000	60.000000	0.000000	0.000000
2.090000	62.000000	49.910000	533.000000	0.000000	275.000000	60.000000	0.000000	0.000000
2.100000	62.000000	49.910000	540.000000	0.000000	275.000000	60.000000	0.000000	0.000000
2.110000	62.000000	49.910000	548.000000	0.000000	275.000000	60.000000	0.000000	0.000000
2.120000	62.000000	49.910000	570.000000	0.000000	275.000000	60.000000	0.000000	0.000000
2.130000	62.000000	49.910000	588.000000	0.000000	275.000000	60.000000	0.000000	0.000000
2.140000	62.000000	49.820000	581.000000	0.000000	275.000000	60.000000	0.000000	-9.000000
2.150000	62.100000	49.660000	588.000000	0.000000	275.000000	60.000000	10.000000	-16.000000
2.160000	62.220000	49.210000	586.000000	0.000000	275.000000	60.000000	12.000000	-45.000000
2.170000	62.320000	48.560000	605.000000	0.000000	275.000000	60.000000	10.000000	-65.000000
2.180000	62.490000	47.790000	608.000000	0.000000	275.000000	60.000000	17.000000	-77.000000
2.190000	62.710000	46.840000	613.000000	0.000000	275.000000	60.000000	22.000000	-95.000000
2.200000	63.000000	45.820000	614.000000	0.000000	277.000000	60.000000	29.000000	-102.000000
