t	x	y	pressure	penup	azimuth	inclination	v_x	v_y
0.000000	32.650000	49.360000	83.000000	1.000000	291.000000	61.000000	0.000000	0.000000
0.010000	32.290000	49.360000	139.000000	0.000000	291.000000	61.000000	-36.000000	0.000000
0.020000	32.000000	49.220000	245.000000	0.000000	289.000000	62.000000	-29.000000	-14.000000
0.030000	31.050000	48.970000	374.000000	0.000000	290.000000	63.000000	-95.000000	-25.000000
0.040000	29.480000	48.610000	483.000000	0.000000	288.000000	63.000000	-157.000000	-36.000000
0.050000	27.490000	48.290000	546.000000	0.000000	289.000000	64.000000	-199.000000	-32.000000
0.060000	25.320000	47.830000	591.000000	0.000000	289.000000	64.000000	-217.000000	-46.000000
0.070000	23.390000	47.280000	600.000000	0.000000	290.000000	65.000000	-193.000000	-55.000000
0.080000	21.610000	46.670000	603.000000	0.000000	293.000000	65.000000	-178.000000	-61.000000
0.090000	20.120000	46.090000	595.000000	0.000000	294.000000	66.000000	-149.000000	-58.000000
0.100000	18.920000	45.470000	591.000000	0.000000	297.000000	67.000000	-120.000000	-62.000000
0.110000	17.910000	44.820000	568.000000	0.000000	300.000000	67.000000	-101.000000	-65.000000
0.120000	17.100000	44.260000	544.000000	0.000000	302.000000	68.000000	-81.000000	-56.000000
0.130000	16.680000	43.930000	494.000000	0.000000	304.000000	67.000000	-42.000000	-33.000000
0.140000	16.510000	43.750000	458.000000	0.000000	308.000000	68.000000	-17.000000	-18.000000
0.150000	16.570000	43.750000	428.000000	0.000000	308.000000	68.000000	6.000000	0.000000
0.160000	17.210000	43.810000	433.000000	0.000000	310.000000	67.000000	64.000000	6.000000
0.170000	18.240000	44.110000	453.000000	0.000000	310.000000	67.000000	103.000000	30.000000
0.180000	19.350000	44.550000	465.000000	0.000000	311.000000	67.000000	111.000000	44.000000
0.190000	20.600000	45.150000	465.000000	0.000000	311.000000	67.000000	125.000000	60.000000
0.200000	21.950000	46.090000	458.000000	0.000000	311.000000	67.000000	135.000000	94.000000
0.210000	23.260000	47.270000	448.000000	0.000000	308.000000	66.000000	131.000000	118.000000
0.220000	24.230000	48.780000	453.000000	0.000000	308.000000	66.000000	97.000000	151.000000
0.230000	24.980000	50.500000	430.000000	0.000000	304.000000	66.000000	75.000000	172.000000
0.240000	25.380000	52.350000	428.000000	0.000000	302.000000	67.000000	40.000000	185.000000
0.250000	25.530000	54.190000	396.000000	0.000000	300.000000	67.000000	15.000000	184.000000
0.260000	25.530000	55.770000	381.000000	0.000000	297.000000	67.000000	0.000000	158.000000
0.270000	25.240000	57.190000	366.000000	0.000000	295.000000	67.000000	-29.000000	142.000000
0.280000	24.920000	58.270000	344.000000	0.000000	292.000000	67.000000	-32.000000	108.000000
0.290000	24.550000	58.560000	364.000000	0.000000	290.000000	68.000000	-37.000000	29.000000
0.300000	24.160000	58.320000	431.000000	0.000000	290.000000	68.000000	-39.000000	-24.000000
0.310000	23.800000	57.490000	524.000000	0.000000	288.000000	68.000000	-36.000000	-83.000000
0.320000	23.510000	56.220000	614.000000	0.000000	288.000000	68.000000	-29.000000	-127.000000
0.330000	23.260000	54.650000	700.000000	0.000000	287.000000	67.000000	-25.000000	-157.000000
0.340000	23.120000	52.460000	796.000000	0.000000	287.000000	67.000000	-14.000000	-219.000000
0.350000	23.120000	49.850000	861.000000	0.000000	287.000000	67.000000	0.000000	-261.000000
0.360000	23.120000	46.970000	863.000000	0.000000	289.000000	67.000000	0.000000	-288.000000
0.370000	23.220000	44.260000	855.000000	0.000000	290.000000	68.000000	10.000000	-271.000000
0.380000	23.430000	42.190000	800.000000	0.000000	292.000000	67.000000	21.000000	-207.000000
0.390000	23.690000	40.540000	699.000000	0.000000	295.000000	67.000000	26.000000	-165.000000
0.400000	23.920000	39.690000	285.000000	0.000000	298.000000	68.000000	23.000000	-85.000000
0.410000	23.920000	39.690000	0.000000	1.000000	300.000000	67.000000	0.000000	0.000000
0.420000	24.160000	39.550000	0.000000	0.000000	300.000000	67.000000	24.000000	-14.000000
0.430000	24.160000	40.040000	0.000000	0.000000	302.000000	67.000000	0.000000	49.000000
0.440000	24.020000	40.550000	0.000000	0.000000	302.000000	67.000000	-14.000000	51.000000
0.450000	23.850000	41.070000	0.000000	0.000000	303.000000	65.000000	-17.000000	52.000000
0.460000	23.570000	41.580000	0.000000	0.000000	303.000000	65.000000	-28.000000	51.000000
0.470000	23.210000	42.120000	0.000000	0.000000	302.000000	65.000000	-36.000000	54.000000
0.480000	22.820000	42.510000	0.000000	0.000000	302.000000	63.000000	-39.000000	39.000000
0.490000	22.430000	42.820000	0.000000	0.000000	301.000000	63.000000	-39.000000	31.000000
0.500000	22.060000	43.160000	0.000000	0.000000	301.000000	63.000000	-37.000000	34.000000
0.510000	21.700000	43.440000	0.000000	0.000000	300.000000	62.000000	-36.000000	28.000000
0.520000	21.330000	43.680000	0.000000	0.000000	300.000000	62.000000	-37.000000	24.000000
0.530000	20.970000	43.890000	0.000000	0.000000	300.000000	62.000000	-36.000000	21.000000
0.540000	20.630000	44.080000	0.000000	0.000000	298.000000	62.000000	-34.000000	19.000000
0.550000	20.270000	44.250000	0.000000	0.000000	298.000000	62.000000	-36.000000	17.000000
0.560000	19.910000	44.400000	0.000000	0.000000	298.000000	62.000000	-36.000000	15.000000
0.570000	19.540000	44.600000	0.000000	0.000000	297.000000	63.000000	-37.000000	20.000000
0.580000	19.170000	44.870000	0.000000	0.000000	297.000000	63.000000	-37.000000	27.000000
0.590000	18.790000	45.150000	0.000000	0.000000	297.000000	65.000000	-38.000000	28.000000
0.600000	18.410000	45.420000	0.000000	0.000000	297.000000	65.000000	-38.000000	27.000000
0.610000	18.040000	45.680000	0.000000	0.000000	298.000000	65.000000	-37.000000	26.000000
0.620000	17.700000	45.900000	0.000000	0.000000	296.000000	66.000000	-34.000000	22.000000
0.630000	17.340000	46.090000	0.000000	0.000000	297.000000	67.000000	-36.000000	19.000000
0.640000	17.010000	46.210000	0.000000	0.000000	295.000000	67.000000	-33.000000	12.000000
0.650000	16.780000	46.280000	0.000000	0.000000	296.000000	68.000000	-23.000000	7.000000
0.660000	16.630000	46.280000	0.000000	0.000000	294.000000	68.000000	-15.000000	0.000000
0.670000	16.540000	46.280000	0.000000	0.000000	294.000000	68.000000	-9.000000	0.000000
0.680000	16.470000	46.200000	0.000000	0.000000	294.000000	68.000000	-7.000000	-8.000000
0.690000	16.410000	46.060000	0.000000	0.000000	292.000000	67.000000	-6.000000	-14.000000
0.700000	16.410000	45.860000	0.000000	0.000000	292.000000	67.000000	0.000000	-20.000000
0.710000	16.410000	45.620000	0.000000	0.000000	292.000000	67.000000	0.000000	-24.000000
0.720000	16.310000	45.350000	0.000000	0.000000	295.000000	67.000000	-10.000000	-27.000000
0.730000	16.240000	45.110000	0.000000	0.000000	294.000000	66.000000	-7.000000	-24.000000
0.740000	16.150000	44.880000	0.000000	0.000000	294.000000	66.000000	-9.000000	-23.000000
0.750000	16.150000	44.880000	213.000000	1.000000	296.000000	66.000000	0.000000	0.000000
0.760000	16.060000	44.470000	289.000000	0.000000	296.000000	66.000000	-9.000000	-41.000000
0.770000	16.110000	44.470000	343.000000	0.000000	296.000000	66.000000	5.000000	0.000000
0.780000	16.170000	44.470000	405.000000	0.000000	299.000000	66.000000	6.000000	0.000000
0.790000	16.330000	44.780000	439.000000	0.000000	299.000000	66.000000	16.000000	31.000000
0.800000	16.550000	45.200000	465.000000	0.000000	299.000000	66.000000	22.000000	42.000000
0.810000	16.790000	45.870000	519.000000	0.000000	299.000000	66.000000	24.000000	67.000000
0.820000	17.060000	46.940000	537.000000	0.000000	300.000000	67.000000	27.000000	107.000000
0.830000	17.350000	48.290000	536.000000	0.000000	298.000000	68.000000	29.000000	135.000000
0.840000	17.560000	49.730000	546.000000	0.000000	298.000000	68.000000	21.000000	144.000000
0.850000	17.560000	51.170000	501.000000	0.000000	298.000000	68.000000	0.000000	144.000000
0.860000	17.490000	52.630000	490.000000	0.000000	296.000000	68.000000	-7.000000	146.000000
0.870000	17.320000	53.830000	456.000000	0.000000	296.000000	68.000000	-17.000000	120.000000
0.880000	17.100000	54.860000	420.000000	0.000000	294.000000	68.000000	-22.000000	103.000000
0.890000	16.810000	55.350000	396.000000	0.000000	291.000000	69.000000	-29.000000	49.000000
0.900000	16.650000	55.350000	417.000000	0.000000	291.000000	69.000000	-16.000000	0.000000
0.910000	16.570000	55.040000	423.000000	0.000000	291.000000	69.000000	-8.000000	-31.000000
0.920000	16.500000	54.290000	469.000000	0.000000	291.000000	69.000000	-7.000000	-75.000000
0.930000	16.580000	53.170000	501.000000	0.000000	291.000000	69.000000	8.000000	-112.000000
0.940000	16.750000	51.810000	569.000000	0.000000	290.000000	68.000000	17.000000	-136.000000
0.950000	17.020000	50.290000	591.000000	0.000000	290.000000	68.000000	27.000000	-152.000000
0.960000	17.440000	48.780000	620.000000	0.000000	291.000000	69.000000	42.000000	-151.000000
0.970000	17.960000	47.270000	611.000000	0.000000	294.000000	68.000000	52.000000	-151.000000
0.980000	18.490000	46.100000	613.000000	0.000000	294.000000	68.000000	53.000000	-117.000000
0.990000	19.040000	45.530000	620.000000	0.000000	296.000000	68.000000	55.000000	-57.000000
1.000000	19.600000	45.350000	609.000000	0.000000	296.000000	68.000000	56.000000	-18.000000
1.010000	20.110000	45.640000	589.000000	0.000000	295.000000	67.000000	51.000000	29.000000
1.020000	20.580000	46.440000	561.000000	0.000000	297.000000	67.000000	47.000000	80.000000
1.030000	21.020000	47.580000	537.000000	0.000000	297.000000	67.000000	44.000000	114.000000
1.040000	21.400000	48.980000	515.000000	0.000000	294.000000	66.000000	38.000000	140.000000
1.050000	21.610000	50.430000	494.000000	0.000000	294.000000	66.000000	21.000000	145.000000
1.060000	21.700000	51.960000	473.000000	0.000000	294.000000	66.000000	9.000000	153.000000
1.070000	21.700000	53.560000	472.000000	0.000000	290.000000	66.000000	0.000000	160.000000
1.080000	21.550000	54.900000	472.000000	0.000000	288.000000	66.000000	-15.000000	134.000000
1.090000	21.330000	56.070000	473.000000	0.000000	288.000000	66.000000	-22.000000	117.000000
1.100000	21.160000	56.710000	505.000000	0.000000	285.000000	65.000000	-17.000000	64.000000
1.110000	21.020000	56.840000	565.000000	0.000000	285.000000	65.000000	-14.000000	13.000000
1.120000	20.890000	56.620000	619.000000	0.000000	285.000000	65.000000	-13.000000	-22.000000
1.130000	20.800000	56.110000	658.000000	0.000000	285.000000	65.000000	-9.000000	-51.000000
1.140000	20.690000	55.260000	691.000000	0.000000	285.000000	65.000000	-11.000000	-85.000000
1.150000	20.690000	54.190000	737.000000	0.000000	285.000000	65.000000	0.000000	-107.000000
1.160000	20.850000	52.770000	758.000000	0.000000	285.000000	65.000000	16.000000	-142.000000
1.170000	21.120000	51.250000	771.000000	0.000000	285.000000	65.000000	27.000000	-152.000000
1.180000	21.490000	49.660000	782.000000	0.000000	285.000000	65.000000	37.000000	-159.000000
1.190000	21.920000	48.250000	771.000000	0.000000	286.000000	66.000000	43.000000	-141.000000
1.200000	22.360000	47.140000	765.000000	0.000000	286.000000	66.000000	44.000000	-111.000000
1.210000	22.780000	46.220000	719.000000	0.000000	288.000000	66.000000	42.000000	-92.000000
1.220000	23.190000	45.810000	566.000000	0.000000	290.000000	66.000000	41.000000	-41.000000
1.230000	23.450000	45.720000	246.000000	0.000000	290.000000	66.000000	26.000000	-9.000000
1.240000	23.450000	45.720000	0.000000	1.000000	290.000000	66.000000	0.000000	0.000000
1.250000	23.620000	46.110000	0.000000	0.000000	293.000000	65.000000	17.000000	39.000000
1.260000	23.620000	46.330000	0.000000	0.000000	293.000000	65.000000	0.000000	22.000000
1.270000	23.620000	46.490000	0.000000	0.000000	293.000000	65.000000	0.000000	16.000000
1.280000	23.490000	46.640000	0.000000	0.000000	293.000000	65.000000	-13.000000	15.000000
1.290000	23.350000	46.780000	0.000000	0.000000	290.000000	66.000000	-14.000000	14.000000
1.300000	23.190000	46.890000	0.000000	0.000000	290.000000	65.000000	-16.000000	11.000000
1.310000	23.030000	47.000000	0.000000	0.000000	290.000000	65.000000	-16.000000	11.000000
1.320000	23.030000	47.050000	0.000000	0.000000	288.000000	65.000000	0.000000	5.000000
1.330000	23.030000	47.050000	0.000000	0.000000	287.000000	64.000000	0.000000	0.000000
1.340000	23.120000	46.990000	0.000000	0.000000	287.000000	64.000000	9.000000	-6.000000
1.350000	23.260000	46.920000	0.000000	0.000000	287.000000	64.000000	14.000000	-7.000000
1.360000	23.440000	46.790000	0.000000	0.000000	287.000000	64.000000	18.000000	-13.000000
1.370000	23.600000	46.610000	0.000000	0.000000	288.000000	65.000000	16.000000	-18.000000
1.380000	23.600000	46.610000	42.000000	1.000000	288.000000	65.000000	0.000000	0.000000
1.390000	24.000000	46.420000	50.000000	0.000000	288.000000	65.000000	40.000000	-19.000000
1.400000	24.180000	46.420000	51.000000	0.000000	290.000000	65.000000	18.000000	0.000000
1.410000	24.360000	46.590000	83.000000	0.000000	290.000000	66.000000	18.000000	17.000000
1.420000	24.530000	46.900000	90.000000	0.000000	290.000000	66.000000	17.000000	31.000000
1.430000	24.670000	47.310000	136.000000	0.000000	293.000000	65.000000	14.000000	41.000000
1.440000	24.770000	47.880000	193.000000	0.000000	290.000000	66.000000	10.000000	57.000000
1.450000	24.860000	48.550000	256.000000	0.000000	290.000000	66.000000	9.000000	67.000000
1.460000	24.910000	49.270000	304.000000	0.000000	290.000000	66.000000	5.000000	72.000000
1.470000	24.910000	49.950000	344.000000	0.000000	289.000000	67.000000	0.000000	68.000000
1.480000	24.720000	50.600000	363.000000	0.000000	289.000000	67.000000	-19.000000	65.000000
1.490000	24.460000	51.030000	425.000000	0.000000	287.000000	67.000000	-26.000000	43.000000
1.500000	24.150000	51.160000	471.000000	0.000000	287.000000	67.000000	-31.000000	13.000000
1.510000	23.850000	51.080000	492.000000	0.000000	287.000000	67.000000	-30.000000	-8.000000
1.520000	23.560000	50.880000	516.000000	0.000000	287.000000	67.000000	-29.000000	-20.000000
1.530000	23.270000	50.540000	583.000000	0.000000	287.000000	67.000000	-29.000000	-34.000000
1.540000	23.130000	50.110000	595.000000	0.000000	287.000000	67.000000	-14.000000	-43.000000
1.550000	23.080000	49.710000	595.000000	0.000000	287.000000	67.000000	-5.000000	-40.000000
1.560000	23.240000	49.340000	608.000000	0.000000	287.000000	67.000000	16.000000	-37.000000
1.570000	23.500000	48.990000	589.000000	0.000000	287.000000	67.000000	26.000000	-35.000000
1.580000	23.820000	48.750000	595.000000	0.000000	287.000000	67.000000	32.000000	-24.000000
1.590000	24.220000	48.580000	575.000000	0.000000	285.000000	67.000000	40.000000	-17.000000
1.600000	24.620000	48.470000	559.000000	0.000000	285.000000	67.000000	40.000000	-11.000000
1.610000	25.030000	48.410000	466.000000	0.000000	285.000000	67.000000	41.000000	-6.000000
1.620000	25.470000	48.290000	473.000000	0.000000	285.000000	68.000000	44.000000	-12.000000
1.630000	25.870000	48.100000	486.000000	0.000000	285.000000	68.000000	40.000000	-19.000000
1.640000	26.190000	47.670000	518.000000	0.000000	288.000000	68.000000	32.000000	-43.000000
1.650000	26.450000	47.030000	561.000000	0.000000	288.000000	68.000000	26.000000	-64.000000
1.660000	26.640000	46.240000	586.000000	0.000000	288.000000	68.000000	19.000000	-79.000000
1.670000	26.820000	45.390000	627.000000	0.000000	288.000000	68.000000	18.000000	-85.000000
1.680000	26.970000	44.550000	644.000000	0.000000	290.000000	68.000000	15.000000	-84.000000
1.690000	27.080000	43.710000	644.000000	0.000000	292.000000	67.000000	11.000000	-84.000000
1.700000	27.150000	43.000000	659.000000	0.000000	291.000000	67.000000	7.000000	-71.000000
1.710000	27.150000	42.380000	659.000000	0.000000	291.000000	67.000000	0.000000	-62.000000
1.720000	27.060000	42.030000	631.000000	0.000000	294.000000	66.000000	-9.000000	-35.000000
1.730000	26.990000	41.980000	595.000000	0.000000	294.000000	66.000000	-7.000000	-5.000000
1.740000	26.940000	42.130000	569.000000	0.000000	294.000000	66.000000	-5.000000	15.000000
1.750000	26.830000	42.470000	538.000000	0.000000	296.000000	66.000000	-11.000000	34.000000
1.760000	26.750000	43.050000	472.000000	0.000000	296.000000	66.000000	-8.000000	58.000000
1.770000	26.750000	43.800000	447.000000	0.000000	296.000000	66.000000	0.000000	75.000000
1.780000	26.800000	44.550000	404.000000	0.000000	296.000000	66.000000	5.000000	75.000000
1.790000	26.860000	45.360000	392.000000	0.000000	296.000000	66.000000	6.000000	81.000000
1.800000	26.860000	46.180000	356.000000	0.000000	294.000000	66.000000	0.000000	82.000000
1.810000	26.860000	46.990000	344.000000	0.000000	294.000000	66.000000	0.000000	81.000000
1.820000	26.860000	47.730000	344.000000	0.000000	294.000000	66.000000	0.000000	74.000000
1.830000	26.910000	48.290000	349.000000	0.000000	290.000000	66.000000	5.000000	56.000000
1.840000	26.910000	48.730000	353.000000	0.000000	290.000000	66.000000	0.000000	44.000000
1.850000	26.990000	48.990000	354.000000	0.000000	288.000000	66.000000	8.000000	26.000000
1.860000	27.070000	49.110000	384.000000	0.000000	286.000000	66.000000	8.000000	12.000000
1.870000	27.070000	49.110000	422.000000	0.000000	286.000000	66.000000	0.000000	0.000000
1.880000	27.180000	49.110000	440.000000	0.000000	285.000000	67.000000	11.000000	0.000000
1.890000	27.260000	49.050000	441.000000	0.000000	285.000000	67.000000	8.000000	-6.000000
1.900000	27.310000	48.970000	440.000000	0.000000	282.000000	68.000000	5.000000	-8.000000
1.910000	27.360000	48.920000	443.000000	0.000000	282.000000	68.000000	5.000000	-5.000000
1.920000	27.360000	48.920000	435.000000	0.000000	282.000000	68.000000	0.000000	0.000000
1.930000	27.360000	48.920000	418.000000	0.000000	282.000000	67.000000	0.000000	0.000000
1.940000	27.360000	48.920000	407.000000	0.000000	282.000000	67.000000	0.000000	0.000000
1.950000	27.360000	48.920000	407.000000	0.000000	282.000000	67.000000	0.000000	0.000000
1.960000	27.360000	48.920000	423.000000	0.000000	282.000000	67.000000	0.000000	0.000000
1.970000	27.360000	48.920000	430.000000	0.000000	282.000000	67.000000	0.000000	0.000000
1.980000	27.360000	48.920000	458.000000	0.000000	282.000000	67.000000	0.000000	0.000000
1.990000	27.360000	48.840000	474.000000	0.000000	282.000000	67.000000	0.000000	-8.000000
2.000000	27.360000	48.750000	475.000000	0.000000	282.000000	67.000000	0.000000	-9.000000
2.010000	27.550000	48.600000	489.000000	0.000000	282.000000	67.000000	19.000000	-15.000000
2.020000	27.740000	48.460000	498.000000	0.000000	282.000000	68.000000	19.000000	-14.000000
2.030000	27.960000	48.370000	492.000000	0.000000	282.000000	68.000000	22.000000	-9.000000
2.040000	28.180000	48.370000	492.000000	0.000000	282.000000	68.000000	22.000000	0.000000
2.050000	28.460000	48.370000	477.000000	0.000000	282.000000	68.000000	28.000000	0.000000
2.060000	28.770000	48.420000	494.000000	0.000000	285.000000	67.000000	31.000000	5.000000
2.070000	29.010000	48.480000	491.000000	0.000000	285.000000	67.000000	24.000000	6.000000
2.080000	29.230000	48.610000	499.000000	0.000000	285.000000	67.000000	22.000000	13.000000
2.090000	29.430000	48.740000	501.000000	0.000000	285.000000	67.000000	20.000000	13.000000
2.100000	29.530000	48.920000	502.000000	0.000000	282.000000	67.000000	10.000000	18.000000
2.110000	29.620000	49.210000	495.000000	0.000000	282.000000	67.000000	9.000000	29.000000
2.120000	29.620000	49.520000	486.000000	0.000000	282.000000	67.000000	0.000000	31.000000
2.130000	29.670000	49.790000	472.000000	0.000000	281.000000	66.000000	5.000000	27.000000
2.140000	29.670000	49.960000	469.000000	0.000000	281.000000	66.000000	0.000000	17.000000
2.150000	29.750000	50.080000	468.000000	0.000000	281.000000	66.000000	8.000000	12.000000
2.160000	29.750000	50.080000	486.000000	0.000000	279.000000	66.000000	0.000000	0.000000
2.170000	29.810000	49.940000	496.000000	0.000000	279.000000	66.000000	6.000000	-14.000000
2.180000	29.870000	49.760000	537.000000	0.000000	279.000000	66.000000	6.000000	-18.000000
2.190000	29.940000	49.650000	548.000000	0.000000	279.000000	66.000000	7.000000	-11.000000
2.200000	30.000000	49.570000	559.000000	0.000000	279.000000	66.000000	6.000000	-8.000000
