t	x	y	pressure	penup	azimuth	inclination	v_x	v_y
0.000000	86.750000	44.540000	230.000000	1.000000	152.000000	53.000000	0.000000	0.000000
0.010000	87.090000	45.060000	264.000000	0.000000	151.000000	53.000000	34.000000	52.000000
0.020000	87.090000	45.400000	389.000000	0.000000	151.000000	53.000000	0.000000	34.000000
0.030000	87.090000	45.680000	498.000000	0.000000	151.000000	53.000000	0.000000	28.000000
0.040000	87.030000	45.780000	540.000000	0.000000	150.000000	54.000000	-6.000000	10.000000
0.050000	87.030000	45.780000	570.000000	0.000000	150.000000	54.000000	0.000000	0.000000
0.060000	86.870000	45.670000	586.000000	0.000000	150.000000	54.000000	-16.000000	-11.000000
0.070000	86.640000	45.230000	602.000000	0.000000	150.000000	54.000000	-23.000000	-44.000000
0.080000	86.260000	44.560000	620.000000	0.000000	150.000000	54.000000	-38.000000	-67.000000
0.090000	85.800000	43.370000	638.000000	0.000000	150.000000	54.000000	-46.000000	-119.000000
0.100000	85.290000	42.150000	643.000000	0.000000	150.000000	54.000000	-51.000000	-122.000000
0.110000	84.950000	40.840000	649.000000	0.000000	148.000000	54.000000	-34.000000	-131.000000
0.120000	84.840000	39.880000	653.000000	0.000000	149.000000	53.000000	-11.000000	-96.000000
0.130000	84.840000	39.170000	664.000000	0.000000	149.000000	53.000000	0.000000	-71.000000
0.140000	85.190000	39.100000	663.000000	0.000000	149.000000	53.000000	35.000000	-7.000000
0.150000	85.730000	39.580000	666.000000	0.000000	151.000000	53.000000	54.000000	48.000000
0.160000	86.420000	40.430000	666.000000	0.000000	151.000000	53.000000	69.000000	85.000000
0.170000	87.150000	41.670000	669.000000	0.000000	151.000000	53.000000	73.000000	124.000000
0.180000	87.680000	42.900000	673.000000	0.000000	152.000000	54.000000	53.000000	123.000000
0.190000	88.070000	44.130000	667.000000	0.000000	152.000000	54.000000	39.000000	123.000000
0.200000	88.240000	45.510000	664.000000	0.000000	152.000000	54.000000	17.000000	138.000000
0.210000	88.320000	46.970000	661.000000	0.000000	152.000000	54.000000	8.000000	146.000000
0.220000	88.320000	48.420000	659.000000	0.000000	153.000000	54.000000	0.000000	145.000000
0.230000	88.370000	49.190000	665.000000	0.000000	153.000000	54.000000	5.000000	77.000000
0.240000	88.290000	49.510000	668.000000	0.000000	154.000000	53.000000	-8.000000	32.000000
0.250000	88.140000	49.510000	664.000000	0.000000	154.000000	53.000000	-15.000000	0.000000
0.260000	87.760000	49.100000	662.000000	0.000000	154.000000	53.000000	-38.000000	-41.000000
0.270000	87.380000	48.500000	665.000000	0.000000	155.000000	52.000000	-38.000000	-60.000000
0.280000	87.000000	47.490000	668.000000	0.000000	155.000000	52.000000	-38.000000	-101.000000
0.290000	86.810000	46.290000	668.000000	0.000000	155.000000	52.000000	-19.000000	-120.000000
0.300000	86.670000	44.970000	670.000000	0.000000	154.000000	52.000000	-14.000000	-132.000000
0.310000	86.620000	43.640000	673.000000	0.000000	153.000000	53.000000	-5.000000	-133.000000
0.320000	86.810000	42.750000	673.000000	0.000000	153.000000	53.000000	19.000000	-89.000000
0.330000	87.170000	42.150000	667.000000	0.000000	151.000000	53.000000	36.000000	-60.000000
0.340000	87.550000	41.910000	641.000000	0.000000	151.000000	53.000000	38.000000	-24.000000
0.350000	88.120000	42.040000	611.000000	0.000000	152.000000	54.000000	57.000000	13.000000
0.360000	88.820000	42.410000	586.000000	0.000000	152.000000	54.000000	70.000000	37.000000
0.370000	89.530000	43.080000	575.000000	0.000000	152.000000	54.000000	71.000000	67.000000
0.380000	90.050000	43.880000	570.000000	0.000000	153.000000	54.000000	52.000000	80.000000
0.390000	90.440000	44.760000	577.000000	0.000000	155.000000	54.000000	39.000000	88.000000
0.400000	90.660000	45.620000	580.000000	0.000000	156.000000	55.000000	22.000000	86.000000
0.410000	90.730000	46.430000	588.000000	0.000000	157.000000	56.000000	7.000000	81.000000
0.420000	90.730000	46.730000	605.000000	0.000000	158.000000	56.000000	0.000000	30.000000
0.430000	90.620000	46.730000	603.000000	0.000000	158.000000	56.000000	-11.000000	0.000000
0.440000	90.340000	46.550000	606.000000	0.000000	160.000000	56.000000	-28.000000	-18.000000
0.450000	89.920000	46.020000	609.000000	0.000000	160.000000	56.000000	-42.000000	-53.000000
0.460000	89.560000	45.250000	614.000000	0.000000	160.000000	56.000000	-36.000000	-77.000000
0.470000	89.250000	44.320000	617.000000	0.000000	160.000000	56.000000	-31.000000	-93.000000
0.480000	89.080000	43.300000	617.000000	0.000000	158.000000	56.000000	-17.000000	-102.000000
0.490000	88.970000	42.220000	619.000000	0.000000	158.000000	56.000000	-11.000000	-108.000000
0.500000	88.970000	41.510000	620.000000	0.000000	158.000000	55.000000	0.000000	-71.000000
0.510000	89.180000	41.200000	616.000000	0.000000	158.000000	55.000000	21.000000	-31.000000
0.520000	89.490000	41.150000	620.000000	0.000000	156.000000	55.000000	31.000000	-5.000000
0.530000	89.850000	41.260000	613.000000	0.000000	156.000000	55.000000	36.000000	11.000000
0.540000	90.250000	41.610000	611.000000	0.000000	156.000000	55.000000	40.000000	35.000000
0.550000	90.630000	42.120000	609.000000	0.000000	156.000000	55.000000	38.000000	51.000000
0.560000	90.970000	42.670000	605.000000	0.000000	156.000000	55.000000	34.000000	55.000000
0.570000	91.260000	43.320000	597.000000	0.000000	156.000000	55.000000	29.000000	65.000000
0.580000	91.460000	44.030000	588.000000	0.000000	158.000000	55.000000	20.000000	71.000000
0.590000	91.610000	44.560000	589.000000	0.000000	159.000000	55.000000	15.000000	53.000000
0.600000	91.610000	44.760000	594.000000	0.000000	160.000000	55.000000	0.000000	20.000000
0.610000	91.610000	44.760000	595.000000	0.000000	160.000000	55.000000	0.000000	0.000000
0.620000	91.460000	44.610000	603.000000	0.000000	161.000000	57.000000	-15.000000	-15.000000
0.630000	91.230000	44.120000	605.000000	0.000000	161.000000	57.000000	-23.000000	-49.000000
0.640000	91.010000	43.400000	613.000000	0.000000	161.000000	57.000000	-22.000000	-72.000000
0.650000	90.850000	42.550000	620.000000	0.000000	161.000000	57.000000	-16.000000	-85.000000
0.660000	90.770000	41.650000	611.000000	0.000000	161.000000	57.000000	-8.000000	-90.000000
0.670000	90.910000	41.020000	611.000000	0.000000	161.000000	57.000000	14.000000	-63.000000
0.680000	91.190000	40.600000	614.000000	0.000000	161.000000	57.000000	28.000000	-42.000000
0.690000	91.580000	40.540000	619.000000	0.000000	160.000000	56.000000	39.000000	-6.000000
0.700000	92.000000	40.810000	614.000000	0.000000	160.000000	56.000000	42.000000	27.000000
0.710000	92.480000	41.310000	609.000000	0.000000	158.000000	56.000000	48.000000	50.000000
0.720000	92.840000	41.910000	595.000000	0.000000	158.000000	56.000000	36.000000	60.000000
0.730000	93.130000	42.490000	526.000000	0.000000	158.000000	56.000000	29.000000	58.000000
0.740000	93.180000	43.040000	499.000000	0.000000	157.000000	56.000000	5.000000	55.000000
0.750000	93.130000	43.590000	491.000000	0.000000	158.000000	56.000000	-5.000000	55.000000
0.760000	93.010000	44.120000	485.000000	0.000000	158.000000	56.000000	-12.000000	53.000000
0.770000	92.840000	44.430000	491.000000	0.000000	158.000000	56.000000	-17.000000	31.000000
0.780000	92.640000	44.620000	510.000000	0.000000	160.000000	56.000000	-20.000000	19.000000
0.790000	92.430000	44.720000	522.000000	0.000000	160.000000	56.000000	-21.000000	10.000000
0.800000	92.260000	44.770000	540.000000	0.000000	160.000000	56.000000	-17.000000	5.000000
0.810000	92.090000	44.770000	536.000000	0.000000	161.000000	57.000000	-17.000000	0.000000
0.820000	91.920000	44.500000	564.000000	0.000000	161.000000	57.000000	-17.000000	-27.000000
0.830000	91.730000	44.100000	567.000000	0.000000	161.000000	57.000000	-19.000000	-40.000000
0.840000	91.540000	43.600000	570.000000	0.000000	161.000000	57.000000	-19.000000	-50.000000
0.850000	91.480000	43.100000	560.000000	0.000000	161.000000	57.000000	-6.000000	-50.000000
0.860000	91.580000	42.760000	564.000000	0.000000	161.000000	57.000000	10.000000	-34.000000
0.870000	91.780000	42.530000	535.000000	0.000000	161.000000	57.000000	20.000000	-23.000000
0.880000	92.090000	42.530000	439.000000	0.000000	160.000000	56.000000	31.000000	0.000000
0.890000	92.450000	42.730000	292.000000	0.000000	160.000000	56.000000	36.000000	20.000000
0.900000	92.930000	43.160000	218.000000	0.000000	160.000000	56.000000	48.000000	43.000000
0.910000	93.480000	43.730000	183.000000	0.000000	158.000000	56.000000	55.000000	57.000000
0.920000	93.840000	44.280000	24.000000	0.000000	158.000000	56.000000	36.000000	55.000000
0.930000	93.990000	44.790000	25.000000	0.000000	158.000000	56.000000	15.000000	51.000000
0.940000	93.990000	45.280000	93.000000	0.000000	158.000000	56.000000	0.000000	49.000000
0.950000	93.900000	45.760000	212.000000	0.000000	157.000000	57.000000	-9.000000	48.000000
0.960000	93.730000	45.970000	253.000000	0.000000	157.000000	57.000000	-17.000000	21.000000
0.970000	93.520000	46.130000	281.000000	0.000000	159.000000	57.000000	-21.000000	16.000000
0.980000	93.350000	46.130000	301.000000	0.000000	159.000000	57.000000	-17.000000	0.000000
0.990000	93.190000	45.990000	311.000000	0.000000	159.000000	57.000000	-16.000000	-14.000000
1.000000	93.030000	45.740000	332.000000	0.000000	159.000000	57.000000	-16.000000	-25.000000
1.010000	92.880000	45.380000	348.000000	0.000000	159.000000	57.000000	-15.000000	-36.000000
1.020000	92.770000	44.950000	384.000000	0.000000	159.000000	57.000000	-11.000000	-43.000000
1.030000	92.680000	44.530000	414.000000	0.000000	159.000000	57.000000	-9.000000	-42.000000
1.040000	92.680000	44.110000	425.000000	0.000000	159.000000	57.000000	0.000000	-42.000000
1.050000	92.680000	43.700000	448.000000	0.000000	159.000000	57.000000	0.000000	-41.000000
1.060000	92.870000	43.310000	439.000000	0.000000	159.000000	57.000000	19.000000	-39.000000
1.070000	93.130000	42.990000	448.000000	0.000000	160.000000	56.000000	26.000000	-32.000000
1.080000	93.720000	42.720000	413.000000	0.000000	160.000000	56.000000	59.000000	-27.000000
1.090000	94.510000	42.620000	387.000000	0.000000	158.000000	56.000000	79.000000	-10.000000
1.100000	95.350000	42.620000	376.000000	0.000000	158.000000	56.000000	84.000000	0.000000
1.110000	95.950000	42.620000	374.000000	0.000000	157.000000	56.000000	60.000000	0.000000
1.120000	96.390000	42.440000	389.000000	0.000000	157.000000	56.000000	44.000000	-18.000000
1.130000	96.530000	42.250000	448.000000	0.000000	156.000000	55.000000	14.000000	-19.000000
1.140000	96.390000	41.960000	522.000000	0.000000	156.000000	55.000000	-14.000000	-29.000000
1.150000	96.070000	41.430000	578.000000	0.000000	156.000000	55.000000	-32.000000	-53.000000
1.160000	95.530000	40.750000	611.000000	0.000000	155.000000	55.000000	-54.000000	-68.000000
1.170000	94.990000	40.030000	641.000000	0.000000	155.000000	55.000000	-54.000000	-72.000000
1.180000	94.460000	39.310000	652.000000	0.000000	155.000000	55.000000	-53.000000	-72.000000
1.190000	94.100000	38.800000	658.000000	0.000000	155.000000	55.000000	-36.000000	-51.000000
1.200000	93.970000	38.430000	658.000000	0.000000	154.000000	56.000000	-13.000000	-37.000000
1.210000	93.970000	38.430000	652.000000	0.000000	154.000000	56.000000	0.000000	0.000000
1.220000	94.090000	38.640000	613.000000	0.000000	154.000000	56.000000	12.000000	21.000000
1.230000	94.460000	39.060000	586.000000	0.000000	154.000000	57.000000	37.000000	42.000000
1.240000	95.010000	39.840000	519.000000	0.000000	154.000000	57.000000	55.000000	78.000000
1.250000	95.430000	40.610000	448.000000	0.000000	154.000000	57.000000	42.000000	77.000000
1.260000	95.790000	41.350000	412.000000	0.000000	154.000000	57.000000	36.000000	74.000000
1.270000	96.110000	42.050000	396.000000	0.000000	154.000000	56.000000	32.000000	70.000000
1.280000	96.350000	42.670000	397.000000	0.000000	154.000000	56.000000	24.000000	62.000000
1.290000	96.470000	43.110000	418.000000	0.000000	155.000000	55.000000	12.000000	44.000000
1.300000	96.470000	43.440000	443.000000	0.000000	157.000000	56.000000	0.000000	33.000000
1.310000	96.470000	43.630000	464.000000	0.000000	157.000000	56.000000	0.000000	19.000000
1.320000	96.390000	43.770000	512.000000	0.000000	158.000000	55.000000	-8.000000	14.000000
1.330000	96.340000	43.770000	516.000000	0.000000	159.000000	55.000000	-5.000000	0.000000
1.340000	96.250000	43.600000	537.000000	0.000000	159.000000	55.000000	-9.000000	-17.000000
1.350000	96.110000	43.290000	577.000000	0.000000	159.000000	55.000000	-14.000000	-31.000000
1.360000	95.930000	42.660000	589.000000	0.000000	159.000000	55.000000	-18.000000	-63.000000
1.370000	95.840000	42.060000	597.000000	0.000000	159.000000	55.000000	-9.000000	-60.000000
1.380000	95.900000	41.490000	597.000000	0.000000	158.000000	56.000000	6.000000	-57.000000
1.390000	96.050000	41.090000	595.000000	0.000000	157.000000	56.000000	15.000000	-40.000000
1.400000	96.360000	41.010000	570.000000	0.000000	157.000000	56.000000	31.000000	-8.000000
1.410000	96.860000	41.150000	561.000000	0.000000	157.000000	56.000000	50.000000	14.000000
1.420000	97.490000	41.540000	561.000000	0.000000	155.000000	55.000000	63.000000	39.000000
1.430000	98.210000	42.030000	560.000000	0.000000	155.000000	55.000000	72.000000	49.000000
1.440000	98.770000	42.580000	561.000000	0.000000	157.000000	56.000000	56.000000	55.000000
1.450000	99.210000	43.140000	538.000000	0.000000	157.000000	56.000000	44.000000	56.000000
1.460000	99.490000	43.760000	537.000000	0.000000	158.000000	56.000000	28.000000	62.000000
1.470000	99.590000	44.420000	550.000000	0.000000	160.000000	56.000000	10.000000	66.000000
1.480000	99.590000	44.650000	564.000000	0.000000	161.000000	57.000000	0.000000	23.000000
1.490000	99.360000	44.810000	586.000000	0.000000	161.000000	57.000000	-23.000000	16.000000
1.500000	99.160000	44.810000	594.000000	0.000000	163.000000	57.000000	-20.000000	0.000000
1.510000	98.970000	44.810000	585.000000	0.000000	164.000000	57.000000	-19.000000	0.000000
1.520000	98.790000	44.480000	588.000000	0.000000	164.000000	57.000000	-18.000000	-33.000000
1.530000	98.610000	43.990000	592.000000	0.000000	164.000000	57.000000	-18.000000	-49.000000
1.540000	98.610000	43.490000	594.000000	0.000000	164.000000	57.000000	0.000000	-50.000000
1.550000	98.820000	43.020000	591.000000	0.000000	163.000000	57.000000	21.000000	-47.000000
1.560000	99.060000	42.720000	595.000000	0.000000	163.000000	57.000000	24.000000	-30.000000
1.570000	99.490000	42.540000	605.000000	0.000000	163.000000	57.000000	43.000000	-18.000000
1.580000	100.040000	42.440000	610.000000	0.000000	161.000000	57.000000	55.000000	-10.000000
1.590000	100.760000	42.550000	616.000000	0.000000	163.000000	57.000000	72.000000	11.000000
1.600000	101.480000	42.800000	620.000000	0.000000	163.000000	57.000000	72.000000	25.000000
1.610000	102.380000	43.130000	619.000000	0.000000	163.000000	57.000000	90.000000	33.000000
1.620000	103.400000	43.700000	620.000000	0.000000	163.000000	57.000000	102.000000	57.000000
1.630000	104.410000	44.440000	616.000000	0.000000	162.000000	58.000000	101.000000	74.000000
1.640000	105.300000	45.440000	636.000000	0.000000	162.000000	58.000000	89.000000	100.000000
1.650000	106.110000	46.870000	633.000000	0.000000	162.000000	58.000000	81.000000	143.000000
1.660000	106.710000	48.580000	641.000000	0.000000	162.000000	58.000000	60.000000	171.000000
1.670000	107.040000	50.810000	647.000000	0.000000	161.000000	57.000000	33.000000	223.000000
1.680000	107.180000	52.980000	675.000000	0.000000	161.000000	57.000000	14.000000	217.000000
1.690000	107.120000	54.330000	722.000000	0.000000	161.000000	57.000000	-6.000000	135.000000
1.700000	106.780000	55.150000	728.000000	0.000000	160.000000	56.000000	-34.000000	82.000000
1.710000	106.250000	55.320000	728.000000	0.000000	160.000000	55.000000	-53.000000	17.000000
1.720000	105.020000	54.870000	727.000000	0.000000	162.000000	56.000000	-123.000000	-45.000000
1.730000	103.270000	54.000000	691.000000	0.000000	163.000000	55.000000	-175.000000	-87.000000
1.740000	101.170000	52.400000	700.000000	0.000000	163.000000	54.000000	-210.000000	-160.000000
1.750000	98.460000	50.330000	713.000000	0.000000	163.000000	54.000000	-271.000000	-207.000000
1.760000	95.620000	47.960000	757.000000	0.000000	164.000000	53.000000	-284.000000	-237.000000
1.770000	92.690000	45.300000	776.000000	0.000000	163.000000	54.000000	-293.000000	-266.000000
1.780000	91.410000	42.720000	771.000000	0.000000	162.000000	54.000000	-128.000000	-258.000000
1.790000	91.320000	40.200000	757.000000	0.000000	162.000000	54.000000	-9.000000	-252.000000
1.800000	92.020000	38.880000	754.000000	0.000000	161.000000	55.000000	70.000000	-132.000000
1.810000	93.570000	38.340000	754.000000	0.000000	159.000000	55.000000	155.000000	-54.000000
1.820000	95.480000	38.340000	724.000000	0.000000	157.000000	56.000000	191.000000	0.000000
1.830000	97.630000	39.150000	719.000000	0.000000	156.000000	57.000000	215.000000	81.000000
1.840000	99.690000	40.030000	720.000000	0.000000	156.000000	57.000000	206.000000	88.000000
1.850000	101.630000	40.950000	728.000000	0.000000	155.000000	58.000000	194.000000	92.000000
1.860000	103.150000	42.650000	730.000000	0.000000	155.000000	58.000000	152.000000	170.000000
1.870000	104.420000	44.330000	737.000000	0.000000	157.000000	58.000000	127.000000	168.000000
1.880000	105.090000	45.980000	731.000000	0.000000	157.000000	58.000000	67.000000	165.000000
1.890000	105.220000	47.630000	740.000000	0.000000	158.000000	58.000000	13.000000	165.000000
1.900000	105.000000	48.590000	740.000000	0.000000	160.000000	58.000000	-22.000000	96.000000
1.910000	104.550000	49.110000	745.000000	0.000000	161.000000	57.000000	-45.000000	52.000000
1.920000	103.550000	49.110000	745.000000	0.000000	162.000000	58.000000	-100.000000	0.000000
1.930000	102.170000	48.700000	745.000000	0.000000	162.000000	58.000000	-138.000000	-41.000000
1.940000	100.360000	48.010000	757.000000	0.000000	164.000000	57.000000	-181.000000	-69.000000
1.950000	98.100000	46.810000	763.000000	0.000000	164.000000	57.000000	-226.000000	-120.000000
1.960000	95.530000	45.060000	796.000000	0.000000	164.000000	57.000000	-257.000000	-175.000000
1.970000	92.400000	42.940000	819.000000	0.000000	165.000000	56.000000	-313.000000	-212.000000
1.980000	89.640000	40.560000	867.000000	0.000000	165.000000	56.000000	-276.000000	-238.000000
1.990000	87.120000	38.760000	869.000000	0.000000	163.000000	57.000000	-252.000000	-180.000000
2.000000	86.490000	37.350000	851.000000	0.000000	160.000000	56.000000	-63.000000	-141.000000
2.010000	86.550000	37.080000	834.000000	0.000000	158.000000	56.000000	6.000000	-27.000000
2.020000	87.080000	37.290000	773.000000	0.000000	154.000000	56.000000	53.000000	21.000000
2.030000	88.240000	37.810000	491.000000	0.000000	153.000000	56.000000	116.000000	52.000000
