t	x	y	pressure	penup	azimuth	inclination	v_x	v_y
0.000000	70.900000	67.520000	71.000000	1.000000	282.000000	63.000000	0.000000	0.000000
0.010000	70.520000	67.520000	96.000000	0.000000	282.000000	63.000000	-38.000000	0.000000
0.020000	70.370000	67.520000	137.000000	0.000000	282.000000	63.000000	-15.000000	0.000000
0.030000	70.240000	67.590000	212.000000	0.000000	282.000000	63.000000	-13.000000	7.000000
0.040000	69.950000	67.640000	265.000000	0.000000	283.000000	64.000000	-29.000000	5.000000
0.050000	69.740000	67.640000	325.000000	0.000000	283.000000	64.000000	-21.000000	0.000000
0.060000	69.380000	67.710000	381.000000	0.000000	283.000000	64.000000	-36.000000	7.000000
0.070000	68.890000	67.760000	448.000000	0.000000	283.000000	65.000000	-49.000000	5.000000
0.080000	68.050000	67.710000	520.000000	0.000000	283.000000	65.000000	-84.000000	-5.000000
0.090000	66.610000	67.590000	572.000000	0.000000	283.000000	65.000000	-144.000000	-12.000000
0.100000	64.760000	67.270000	628.000000	0.000000	284.000000	66.000000	-185.000000	-32.000000
0.110000	62.200000	66.680000	661.000000	0.000000	284.000000	66.000000	-256.000000	-59.000000
0.120000	59.910000	65.900000	675.000000	0.000000	285.000000	67.000000	-229.000000	-78.000000
0.130000	57.790000	65.350000	684.000000	0.000000	288.000000	68.000000	-212.000000	-55.000000
0.140000	56.240000	64.800000	667.000000	0.000000	289.000000	69.000000	-155.000000	-55.000000
0.150000	55.060000	64.250000	659.000000	0.000000	292.000000	70.000000	-118.000000	-55.000000
0.160000	54.120000	63.890000	620.000000	0.000000	295.000000	71.000000	-94.000000	-36.000000
0.170000	53.400000	63.550000	563.000000	0.000000	299.000000	72.000000	-72.000000	-34.000000
0.180000	53.060000	63.260000	536.000000	0.000000	301.000000	73.000000	-34.000000	-29.000000
0.190000	52.960000	63.090000	512.000000	0.000000	302.000000	74.000000	-10.000000	-17.000000
0.200000	53.180000	63.010000	514.000000	0.000000	305.000000	73.000000	22.000000	-8.000000
0.210000	53.900000	63.010000	519.000000	0.000000	305.000000	73.000000	72.000000	0.000000
0.220000	54.950000	63.190000	515.000000	0.000000	305.000000	73.000000	105.000000	18.000000
0.230000	56.240000	63.550000	502.000000	0.000000	305.000000	73.000000	129.000000	36.000000
0.240000	57.910000	64.050000	516.000000	0.000000	305.000000	73.000000	167.000000	50.000000
0.250000	59.830000	64.790000	540.000000	0.000000	305.000000	73.000000	192.000000	74.000000
0.260000	61.440000	65.700000	551.000000	0.000000	305.000000	73.000000	161.000000	91.000000
0.270000	62.650000	67.100000	565.000000	0.000000	303.000000	72.000000	121.000000	140.000000
0.280000	63.580000	68.830000	570.000000	0.000000	299.000000	72.000000	93.000000	173.000000
0.290000	63.990000	70.790000	545.000000	0.000000	297.000000	71.000000	41.000000	196.000000
0.300000	64.170000	72.740000	530.000000	0.000000	293.000000	71.000000	18.000000	195.000000
0.310000	64.170000	74.700000	519.000000	0.000000	290.000000	70.000000	0.000000	196.000000
0.320000	63.760000	76.280000	518.000000	0.000000	289.000000	69.000000	-41.000000	158.000000
0.330000	63.280000	77.600000	518.000000	0.000000	285.000000	68.000000	-48.000000	132.000000
0.340000	62.710000	78.110000	524.000000	0.000000	283.000000	69.000000	-57.000000	51.000000
0.350000	62.070000	77.950000	561.000000	0.000000	280.000000	69.000000	-64.000000	-16.000000
0.360000	61.450000	77.350000	602.000000	0.000000	280.000000	69.000000	-62.000000	-60.000000
0.370000	60.930000	76.300000	653.000000	0.000000	280.000000	69.000000	-52.000000	-105.000000
0.380000	60.480000	74.630000	760.000000	0.000000	278.000000	70.000000	-45.000000	-167.000000
0.390000	60.300000	72.540000	832.000000	0.000000	278.000000	70.000000	-18.000000	-209.000000
0.400000	60.210000	70.070000	854.000000	0.000000	278.000000	70.000000	-9.000000	-247.000000
0.410000	60.210000	67.170000	906.000000	0.000000	279.000000	71.000000	0.000000	-290.000000
0.420000	60.330000	63.990000	899.000000	0.000000	281.000000	71.000000	12.000000	-318.000000
0.430000	60.570000	61.380000	872.000000	0.000000	284.000000	70.000000	24.000000	-261.000000
0.440000	60.850000	59.580000	819.000000	0.000000	288.000000	71.000000	28.000000	-180.000000
0.450000	61.180000	58.330000	746.000000	0.000000	288.000000	71.000000	33.000000	-125.000000
0.460000	61.320000	57.770000	519.000000	0.000000	291.000000	71.000000	14.000000	-56.000000
0.470000	61.320000	57.770000	132.000000	0.000000	293.000000	71.000000	0.000000	0.000000
0.480000	61.320000	57.770000	0.000000	1.000000	293.000000	71.000000	0.000000	0.000000
0.490000	61.070000	58.900000	0.000000	0.000000	293.000000	71.000000	-25.000000	113.000000
0.500000	60.880000	59.520000	0.000000	0.000000	296.000000	70.000000	-19.000000	62.000000
0.510000	60.660000	60.100000	0.000000	0.000000	295.000000	69.000000	-22.000000	58.000000
0.520000	60.420000	60.540000	0.000000	0.000000	296.000000	70.000000	-24.000000	44.000000
0.530000	60.140000	60.890000	0.000000	0.000000	298.000000	70.000000	-28.000000	35.000000
0.540000	59.830000	61.190000	0.000000	0.000000	298.000000	70.000000	-31.000000	30.000000
0.550000	59.480000	61.440000	0.000000	0.000000	300.000000	71.000000	-35.000000	25.000000
0.560000	59.070000	61.700000	0.000000	0.000000	302.000000	70.000000	-41.000000	26.000000
0.570000	58.600000	61.970000	0.000000	0.000000	302.000000	70.000000	-47.000000	27.000000
0.580000	58.170000	62.250000	0.000000	0.000000	302.000000	70.000000	-43.000000	28.000000
0.590000	57.780000	62.530000	0.000000	0.000000	305.000000	70.000000	-39.000000	28.000000
0.600000	57.410000	62.850000	0.000000	0.000000	303.000000	69.000000	-37.000000	32.000000
0.610000	57.070000	63.120000	0.000000	0.000000	303.000000	69.000000	-34.000000	27.000000
0.620000	56.740000	63.350000	0.000000	0.000000	299.000000	68.000000	-33.000000	23.000000
0.630000	56.370000	63.640000	0.000000	0.000000	298.000000	68.000000	-37.000000	29.000000
0.640000	55.980000	63.940000	0.000000	0.000000	298.000000	68.000000	-39.000000	30.000000
0.650000	55.560000	64.250000	0.000000	0.000000	298.000000	68.000000	-42.000000	31.000000
0.660000	55.160000	64.580000	0.000000	0.000000	297.000000	67.000000	-40.000000	33.000000
0.670000	54.760000	64.920000	0.000000	0.000000	296.000000	68.000000	-40.000000	34.000000
0.680000	54.310000	65.190000	0.000000	0.000000	296.000000	68.000000	-45.000000	27.000000
0.690000	53.890000	65.410000	0.000000	0.000000	296.000000	68.000000	-42.000000	22.000000
0.700000	53.540000	65.530000	0.000000	0.000000	297.000000	69.000000	-35.000000	12.000000
0.710000	53.230000	65.530000	0.000000	0.000000	295.000000	69.000000	-31.000000	0.000000
0.720000	52.990000	65.530000	0.000000	0.000000	295.000000	69.000000	-24.000000	0.000000
0.730000	52.860000	65.530000	0.000000	0.000000	295.000000	69.000000	-13.000000	0.000000
0.740000	52.800000	65.370000	0.000000	0.000000	295.000000	69.000000	-6.000000	-16.000000
0.750000	52.800000	65.210000	0.000000	0.000000	295.000000	69.000000	0.000000	-16.000000
0.760000	52.800000	65.000000	0.000000	0.000000	296.000000	70.000000	0.000000	-21.000000
0.770000	52.800000	64.770000	0.000000	0.000000	296.000000	70.000000	0.000000	-23.000000
0.780000	52.800000	64.520000	0.000000	0.000000	296.000000	70.000000	0.000000	-25.000000
0.790000	52.800000	64.520000	311.000000	1.000000	296.000000	70.000000	0.000000	0.000000
0.800000	52.800000	64.090000	317.000000	0.000000	298.000000	70.000000	0.000000	-43.000000
0.810000	52.910000	63.920000	289.000000	0.000000	298.000000	70.000000	11.000000	-17.000000
0.820000	53.140000	63.920000	324.000000	0.000000	300.000000	71.000000	23.000000	0.000000
0.830000	53.420000	64.120000	336.000000	0.000000	300.000000	71.000000	28.000000	20.000000
0.840000	53.790000	64.630000	387.000000	0.000000	300.000000	71.000000	37.000000	51.000000
0.850000	54.230000	65.320000	439.000000	0.000000	300.000000	71.000000	44.000000	69.000000
0.860000	54.460000	66.350000	456.000000	0.000000	300.000000	71.000000	23.000000	103.000000
0.870000	54.790000	67.710000	456.000000	0.000000	297.000000	71.000000	33.000000	136.000000
0.880000	55.180000	69.280000	453.000000	0.000000	297.000000	71.000000	39.000000	157.000000
0.890000	55.240000	70.840000	440.000000	0.000000	293.000000	71.000000	6.000000	156.000000
0.900000	55.240000	72.310000	415.000000	0.000000	291.000000	71.000000	0.000000	147.000000
0.910000	55.180000	73.710000	386.000000	0.000000	288.000000	71.000000	-6.000000	140.000000
0.920000	55.060000	74.690000	325.000000	0.000000	285.000000	71.000000	-12.000000	98.000000
0.930000	54.920000	75.020000	341.000000	0.000000	285.000000	71.000000	-14.000000	33.000000
0.940000	54.800000	74.910000	341.000000	0.000000	282.000000	72.000000	-12.000000	-11.000000
0.950000	54.700000	74.400000	384.000000	0.000000	282.000000	72.000000	-10.000000	-51.000000
0.960000	54.590000	73.330000	448.000000	0.000000	282.000000	72.000000	-11.000000	-107.000000
0.970000	54.640000	71.880000	538.000000	0.000000	282.000000	72.000000	5.000000	-145.000000
0.980000	54.860000	70.350000	561.000000	0.000000	282.000000	72.000000	22.000000	-153.000000
0.990000	55.200000	68.780000	602.000000	0.000000	282.000000	72.000000	34.000000	-157.000000
1.000000	55.630000	67.190000	647.000000	0.000000	282.000000	72.000000	43.000000	-159.000000
1.010000	56.110000	66.060000	639.000000	0.000000	285.000000	71.000000	48.000000	-113.000000
1.020000	56.630000	65.480000	616.000000	0.000000	288.000000	71.000000	52.000000	-58.000000
1.030000	57.190000	65.260000	613.000000	0.000000	288.000000	71.000000	56.000000	-22.000000
1.040000	57.770000	65.520000	588.000000	0.000000	291.000000	71.000000	58.000000	26.000000
1.050000	58.360000	66.250000	570.000000	0.000000	291.000000	71.000000	59.000000	73.000000
1.060000	58.940000	67.300000	545.000000	0.000000	291.000000	71.000000	58.000000	105.000000
1.070000	59.240000	68.710000	537.000000	0.000000	291.000000	71.000000	30.000000	141.000000
1.080000	59.340000	70.130000	521.000000	0.000000	291.000000	71.000000	10.000000	142.000000
1.090000	59.420000	71.520000	515.000000	0.000000	287.000000	70.000000	8.000000	139.000000
1.100000	59.270000	72.640000	496.000000	0.000000	287.000000	70.000000	-15.000000	112.000000
1.110000	58.970000	73.600000	496.000000	0.000000	284.000000	70.000000	-30.000000	96.000000
1.120000	58.780000	73.790000	510.000000	0.000000	281.000000	71.000000	-19.000000	19.000000
1.130000	58.640000	73.530000	537.000000	0.000000	281.000000	71.000000	-14.000000	-26.000000
1.140000	58.540000	72.970000	553.000000	0.000000	279.000000	71.000000	-10.000000	-56.000000
1.150000	58.540000	71.990000	619.000000	0.000000	279.000000	71.000000	0.000000	-98.000000
1.160000	58.630000	70.850000	664.000000	0.000000	279.000000	71.000000	9.000000	-114.000000
1.170000	58.880000	69.600000	694.000000	0.000000	279.000000	71.000000	25.000000	-125.000000
1.180000	59.220000	68.470000	702.000000	0.000000	279.000000	71.000000	34.000000	-113.000000
1.190000	59.600000	67.650000	663.000000	0.000000	279.000000	71.000000	38.000000	-82.000000
1.200000	60.000000	67.040000	637.000000	0.000000	281.000000	71.000000	40.000000	-61.000000
1.210000	60.360000	66.720000	580.000000	0.000000	281.000000	71.000000	36.000000	-32.000000
1.220000	60.660000	66.720000	507.000000	0.000000	284.000000	70.000000	30.000000	0.000000
1.230000	60.880000	66.830000	420.000000	0.000000	284.000000	70.000000	22.000000	11.000000
1.240000	61.030000	67.050000	381.000000	0.000000	287.000000	70.000000	15.000000	22.000000
1.250000	61.110000	67.210000	371.000000	0.000000	287.000000	70.000000	8.000000	16.000000
1.260000	61.110000	67.210000	386.000000	0.000000	286.000000	69.000000	0.000000	0.000000
1.270000	61.170000	67.100000	412.000000	0.000000	289.000000	69.000000	6.000000	-11.000000
1.280000	61.260000	66.920000	443.000000	0.000000	289.000000	69.000000	9.000000	-18.000000
1.290000	61.360000	66.700000	483.000000	0.000000	288.000000	68.000000	10.000000	-22.000000
1.300000	61.520000	66.460000	520.000000	0.000000	288.000000	68.000000	16.000000	-24.000000
1.310000	61.720000	66.340000	533.000000	0.000000	288.000000	68.000000	20.000000	-12.000000
1.320000	62.090000	66.340000	540.000000	0.000000	288.000000	68.000000	37.000000	0.000000
1.330000	62.450000	66.520000	530.000000	0.000000	290.000000	68.000000	36.000000	18.000000
1.340000	62.930000	66.750000	527.000000	0.000000	290.000000	68.000000	48.000000	23.000000
1.350000	63.490000	67.000000	537.000000	0.000000	289.000000	67.000000	56.000000	25.000000
1.360000	63.970000	67.280000	537.000000	0.000000	289.000000	67.000000	48.000000	28.000000
1.370000	64.270000	67.610000	540.000000	0.000000	289.000000	67.000000	30.000000	33.000000
1.380000	64.450000	67.950000	544.000000	0.000000	287.000000	67.000000	18.000000	34.000000
1.390000	64.540000	68.350000	554.000000	0.000000	286.000000	66.000000	9.000000	40.000000
1.400000	64.420000	68.810000	568.000000	0.000000	286.000000	66.000000	-12.000000	46.000000
1.410000	64.170000	69.260000	560.000000	0.000000	284.000000	66.000000	-25.000000	45.000000
1.420000	63.880000	69.720000	568.000000	0.000000	282.000000	67.000000	-29.000000	46.000000
1.430000	63.510000	70.070000	561.000000	0.000000	282.000000	67.000000	-37.000000	35.000000
1.440000	63.130000	70.360000	572.000000	0.000000	279.000000	67.000000	-38.000000	29.000000
1.450000	62.770000	70.360000	606.000000	0.000000	279.000000	67.000000	-36.000000	0.000000
1.460000	62.570000	70.070000	619.000000	0.000000	277.000000	67.000000	-20.000000	-29.000000
1.470000	62.480000	69.680000	637.000000	0.000000	275.000000	67.000000	-9.000000	-39.000000
1.480000	62.480000	68.940000	673.000000	0.000000	275.000000	67.000000	0.000000	-74.000000
1.490000	62.650000	67.950000	705.000000	0.000000	275.000000	67.000000	17.000000	-99.000000
1.500000	62.920000	66.800000	719.000000	0.000000	277.000000	67.000000	27.000000	-115.000000
1.510000	63.250000	65.800000	733.000000	0.000000	277.000000	67.000000	33.000000	-100.000000
1.520000	63.750000	64.820000	733.000000	0.000000	279.000000	67.000000	50.000000	-98.000000
1.530000	64.100000	63.900000	722.000000	0.000000	282.000000	67.000000	35.000000	-92.000000
1.540000	64.360000	63.050000	720.000000	0.000000	284.000000	66.000000	26.000000	-85.000000
1.550000	64.620000	62.530000	720.000000	0.000000	284.000000	66.000000	26.000000	-52.000000
1.560000	64.700000	62.230000	676.000000	0.000000	286.000000	66.000000	8.000000	-30.000000
1.570000	64.700000	62.310000	644.000000	0.000000	286.000000	66.000000	0.000000	8.000000
1.580000	64.590000	62.720000	642.000000	0.000000	288.000000	66.000000	-11.000000	41.000000
1.590000	64.480000	63.350000	595.000000	0.000000	288.000000	66.000000	-11.000000	63.000000
1.600000	64.320000	64.290000	559.000000	0.000000	288.000000	66.000000	-16.000000	94.000000
1.610000	64.150000	65.150000	522.000000	0.000000	288.000000	66.000000	-17.000000	86.000000
1.620000	63.930000	65.970000	473.000000	0.000000	288.000000	66.000000	-22.000000	82.000000
1.630000	63.820000	66.560000	445.000000	0.000000	288.000000	66.000000	-11.000000	59.000000
1.640000	63.770000	67.030000	440.000000	0.000000	286.000000	66.000000	-5.000000	47.000000
1.650000	63.840000	67.410000	431.000000	0.000000	286.000000	66.000000	7.000000	38.000000
1.660000	63.990000	67.580000	448.000000	0.000000	286.000000	66.000000	15.000000	17.000000
1.670000	64.190000	67.580000	483.000000	0.000000	286.000000	66.000000	20.000000	0.000000
1.680000	64.490000	67.580000	516.000000	0.000000	286.000000	66.000000	30.000000	0.000000
1.690000	64.760000	67.420000	544.000000	0.000000	284.000000	66.000000	27.000000	-16.000000
1.700000	65.000000	67.250000	562.000000	0.000000	284.000000	66.000000	24.000000	-17.000000
1.710000	65.220000	67.050000	561.000000	0.000000	284.000000	66.000000	22.000000	-20.000000
1.720000	65.430000	66.970000	570.000000	0.000000	284.000000	66.000000	21.000000	-8.000000
1.730000	65.570000	66.890000	574.000000	0.000000	284.000000	66.000000	14.000000	-8.000000
1.740000	65.680000	66.830000	586.000000	0.000000	284.000000	66.000000	11.000000	-6.000000
1.750000	65.760000	66.830000	600.000000	0.000000	284.000000	66.000000	8.000000	0.000000
1.760000	65.830000	66.740000	603.000000	0.000000	284.000000	66.000000	7.000000	-9.000000
1.770000	65.910000	66.690000	606.000000	0.000000	286.000000	66.000000	8.000000	-5.000000
1.780000	66.070000	66.690000	613.000000	0.000000	286.000000	66.000000	16.000000	0.000000
1.790000	66.270000	66.620000	622.000000	0.000000	286.000000	66.000000	20.000000	-7.000000
1.800000	66.480000	66.620000	620.000000	0.000000	286.000000	66.000000	21.000000	0.000000
1.810000	66.770000	66.740000	630.000000	0.000000	286.000000	66.000000	29.000000	12.000000
1.820000	67.110000	66.890000	620.000000	0.000000	286.000000	66.000000	34.000000	15.000000
1.830000	67.470000	67.070000	622.000000	0.000000	286.000000	66.000000	36.000000	18.000000
1.840000	67.840000	67.410000	619.000000	0.000000	286.000000	66.000000	37.000000	34.000000
1.850000	68.210000	67.790000	622.000000	0.000000	286.000000	66.000000	37.000000	38.000000
1.860000	68.580000	68.230000	619.000000	0.000000	284.000000	66.000000	37.000000	44.000000
1.870000	68.950000	68.830000	616.000000	0.000000	284.000000	66.000000	37.000000	60.000000
1.880000	69.360000	69.520000	611.000000	0.000000	282.000000	67.000000	41.000000	69.000000
1.890000	69.620000	70.380000	611.000000	0.000000	282.000000	67.000000	26.000000	86.000000
1.900000	69.750000	71.270000	617.000000	0.000000	279.000000	67.000000	13.000000	89.000000
1.910000	69.750000	72.390000	617.000000	0.000000	279.000000	66.000000	0.000000	112.000000
1.920000	69.580000	73.640000	614.000000	0.000000	277.000000	66.000000	-17.000000	125.000000
1.930000	69.270000	74.890000	616.000000	0.000000	277.000000	66.000000	-31.000000	125.000000
1.940000	68.600000	75.910000	613.000000	0.000000	274.000000	66.000000	-67.000000	102.000000
1.950000	67.880000	76.790000	606.000000	0.000000	274.000000	66.000000	-72.000000	88.000000
1.960000	67.190000	77.330000	605.000000	0.000000	274.000000	66.000000	-69.000000	54.000000
1.970000	66.550000	77.330000	620.000000	0.000000	274.000000	66.000000	-64.000000	0.000000
1.980000	66.090000	77.020000	636.000000	0.000000	274.000000	66.000000	-46.000000	-31.000000
1.990000	65.790000	76.350000	687.000000	0.000000	275.000000	67.000000	-30.000000	-67.000000
2.000000	65.600000	75.160000	751.000000	0.000000	275.000000	67.000000	-19.000000	-119.000000
2.010000	65.720000	73.620000	815.000000	0.000000	275.000000	67.000000	12.000000	-154.000000
2.020000	66.050000	71.790000	833.000000	0.000000	275.000000	67.000000	33.000000	-183.000000
2.030000	66.520000	69.960000	867.000000	0.000000	275.000000	67.000000	47.000000	-183.000000
2.040000	67.170000	68.130000	864.000000	0.000000	275.000000	67.000000	65.000000	-183.000000
2.050000	67.830000	66.850000	803.000000	0.000000	275.000000	67.000000	66.000000	-128.000000
2.060000	68.490000	66.120000	708.000000	0.000000	275.000000	67.000000	66.000000	-73.000000
2.070000	69.050000	65.750000	537.000000	0.000000	277.000000	67.000000	56.000000	-37.000000
2.080000	69.510000	65.800000	93.000000	0.000000	277.000000	67.000000	46.000000	5.000000
2.090000	69.510000	65.800000	0.000000	1.000000	279.000000	67.000000	0.000000	0.000000
2.100000	69.410000	67.030000	0.000000	0.000000	279.000000	66.000000	-10.000000	123.000000
2.110000	69.050000	67.840000	0.000000	0.000000	279.000000	66.000000	-36.000000	81.000000
2.120000	68.680000	68.600000	0.000000	0.000000	281.000000	66.000000	-37.000000	76.000000
2.130000	68.300000	69.100000	0.000000	0.000000	281.000000	66.000000	-38.000000	50.000000
2.140000	67.840000	69.450000	0.000000	0.000000	281.000000	65.000000	-46.000000	35.000000
2.150000	67.370000	69.620000	0.000000	0.000000	281.000000	65.000000	-47.000000	17.000000
2.160000	66.890000	69.680000	0.000000	0.000000	278.000000	64.000000	-48.000000	6.000000
2.170000	66.410000	69.680000	0.000000	0.000000	278.000000	64.000000	-48.000000	0.000000
2.180000	66.010000	69.570000	0.000000	0.000000	278.000000	64.000000	-40.000000	-11.000000
2.190000	65.650000	69.410000	0.000000	0.000000	278.000000	63.000000	-36.000000	-16.000000
