t	x	y	pressure	penup	azimuth	inclination	v_x	v_y
0.000000	67.670000	65.230000	32.000000	1.000000	293.000000	59.000000	0.000000	0.000000
0.010000	67.670000	65.230000	93.000000	0.000000	293.000000	59.000000	0.000000	0.000000
0.020000	67.670000	65.230000	112.000000	0.000000	291.000000	59.000000	0.000000	0.000000
0.030000	67.670000	65.230000	146.000000	0.000000	292.000000	60.000000	0.000000	0.000000
0.040000	67.670000	65.230000	179.000000	0.000000	292.000000	60.000000	0.000000	0.000000
0.050000	67.080000	65.200000	214.000000	0.000000	292.000000	60.000000	-59.000000	-3.000000
0.060000	66.190000	65.000000	273.000000	0.000000	292.000000	60.000000	-89.000000	-20.000000
0.070000	65.030000	64.790000	339.000000	0.000000	292.000000	60.000000	-116.000000	-21.000000
0.080000	64.100000	64.490000	371.000000	0.000000	292.000000	60.000000	-93.000000	-30.000000
0.090000	62.710000	64.130000	386.000000	0.000000	292.000000	60.000000	-139.000000	-36.000000
0.100000	61.020000	63.600000	392.000000	0.000000	292.000000	60.000000	-169.000000	-53.000000
0.110000	59.490000	62.920000	407.000000	0.000000	292.000000	60.000000	-153.000000	-68.000000
0.120000	57.990000	62.130000	413.000000	0.000000	293.000000	61.000000	-150.000000	-79.000000
0.130000	56.950000	61.440000	413.000000	0.000000	293.000000	61.000000	-104.000000	-69.000000
0.140000	56.210000	60.780000	412.000000	0.000000	294.000000	62.000000	-74.000000	-66.000000
0.150000	55.610000	60.310000	412.000000	0.000000	294.000000	62.000000	-60.000000	-47.000000
0.160000	55.340000	59.950000	412.000000	0.000000	295.000000	63.000000	-27.000000	-36.000000
0.170000	55.340000	59.760000	397.000000	0.000000	296.000000	64.000000	0.000000	-19.000000
0.180000	55.450000	59.630000	369.000000	0.000000	296.000000	64.000000	11.000000	-13.000000
0.190000	55.930000	59.630000	345.000000	0.000000	297.000000	65.000000	48.000000	0.000000
0.200000	56.640000	59.900000	316.000000	0.000000	295.000000	65.000000	71.000000	27.000000
0.210000	57.660000	60.360000	314.000000	0.000000	295.000000	65.000000	102.000000	46.000000
0.220000	58.890000	61.110000	339.000000	0.000000	295.000000	65.000000	123.000000	75.000000
0.230000	60.260000	62.240000	333.000000	0.000000	294.000000	64.000000	137.000000	113.000000
0.240000	61.430000	63.620000	353.000000	0.000000	294.000000	64.000000	117.000000	138.000000
0.250000	62.280000	65.230000	366.000000	0.000000	293.000000	63.000000	85.000000	161.000000
0.260000	62.920000	66.880000	372.000000	0.000000	292.000000	62.000000	64.000000	165.000000
0.270000	63.210000	68.620000	377.000000	0.000000	292.000000	62.000000	29.000000	174.000000
0.280000	63.320000	70.270000	379.000000	0.000000	289.000000	62.000000	11.000000	165.000000
0.290000	63.320000	71.850000	382.000000	0.000000	287.000000	61.000000	0.000000	158.000000
0.300000	63.090000	73.330000	377.000000	0.000000	286.000000	60.000000	-23.000000	148.000000
0.310000	62.820000	74.330000	374.000000	0.000000	284.000000	60.000000	-27.000000	100.000000
0.320000	62.490000	75.010000	374.000000	0.000000	282.000000	60.000000	-33.000000	68.000000
0.330000	62.160000	75.010000	400.000000	0.000000	282.000000	60.000000	-33.000000	0.000000
0.340000	61.800000	74.500000	415.000000	0.000000	281.000000	61.000000	-36.000000	-51.000000
0.350000	61.500000	73.630000	477.000000	0.000000	281.000000	61.000000	-30.000000	-87.000000
0.360000	61.220000	72.120000	529.000000	0.000000	279.000000	61.000000	-28.000000	-151.000000
0.370000	61.120000	70.280000	588.000000	0.000000	279.000000	61.000000	-10.000000	-184.000000
0.380000	61.020000	68.230000	625.000000	0.000000	279.000000	62.000000	-10.000000	-205.000000
0.390000	60.940000	65.710000	650.000000	0.000000	281.000000	62.000000	-8.000000	-252.000000
0.400000	60.940000	63.170000	658.000000	0.000000	281.000000	62.000000	0.000000	-254.000000
0.410000	61.110000	60.610000	650.000000	0.000000	281.000000	62.000000	17.000000	-256.000000
0.420000	61.380000	58.790000	628.000000	0.000000	283.000000	61.000000	27.000000	-182.000000
0.430000	61.500000	57.600000	588.000000	0.000000	283.000000	61.000000	12.000000	-119.000000
0.440000	61.620000	56.830000	491.000000	0.000000	285.000000	61.000000	12.000000	-77.000000
0.450000	61.750000	56.720000	215.000000	0.000000	287.000000	61.000000	13.000000	-11.000000
0.460000	61.750000	56.720000	0.000000	1.000000	288.000000	61.000000	0.000000	0.000000
0.470000	61.750000	57.460000	0.000000	0.000000	288.000000	61.000000	0.000000	74.000000
0.480000	61.690000	58.070000	0.000000	0.000000	290.000000	60.000000	-6.000000	61.000000
0.490000	61.690000	58.510000	0.000000	0.000000	290.000000	60.000000	0.000000	44.000000
0.500000	61.590000	58.830000	0.000000	0.000000	290.000000	60.000000	-10.000000	32.000000
0.510000	61.460000	59.110000	0.000000	0.000000	292.000000	60.000000	-13.000000	28.000000
0.520000	61.230000	59.340000	0.000000	0.000000	292.000000	60.000000	-23.000000	23.000000
0.530000	60.960000	59.540000	0.000000	0.000000	293.000000	61.000000	-27.000000	20.000000
0.540000	60.570000	59.660000	0.000000	0.000000	294.000000	61.000000	-39.000000	12.000000
0.550000	60.100000	59.780000	0.000000	0.000000	296.000000	60.000000	-47.000000	12.000000
0.560000	59.600000	59.900000	0.000000	0.000000	297.000000	61.000000	-50.000000	12.000000
0.570000	59.100000	60.050000	0.000000	0.000000	300.000000	62.000000	-50.000000	15.000000
0.580000	58.630000	60.210000	0.000000	0.000000	302.000000	61.000000	-47.000000	16.000000
0.590000	58.230000	60.370000	0.000000	0.000000	302.000000	61.000000	-40.000000	16.000000
0.600000	57.850000	60.480000	0.000000	0.000000	300.000000	60.000000	-38.000000	11.000000
0.610000	57.590000	60.570000	0.000000	0.000000	300.000000	60.000000	-26.000000	9.000000
0.620000	57.340000	60.570000	0.000000	0.000000	298.000000	60.000000	-25.000000	0.000000
0.630000	57.100000	60.570000	0.000000	0.000000	297.000000	59.000000	-24.000000	0.000000
0.640000	56.860000	60.570000	0.000000	0.000000	296.000000	58.000000	-24.000000	0.000000
0.650000	56.650000	60.630000	0.000000	0.000000	294.000000	59.000000	-21.000000	6.000000
0.660000	56.450000	60.730000	0.000000	0.000000	293.000000	58.000000	-20.000000	10.000000
0.670000	56.200000	60.880000	0.000000	0.000000	293.000000	58.000000	-25.000000	15.000000
0.680000	56.010000	61.090000	0.000000	0.000000	293.000000	58.000000	-19.000000	21.000000
0.690000	55.850000	61.360000	0.000000	0.000000	293.000000	58.000000	-16.000000	27.000000
0.700000	55.730000	61.620000	0.000000	0.000000	292.000000	58.000000	-12.000000	26.000000
0.710000	55.630000	61.860000	0.000000	0.000000	292.000000	58.000000	-10.000000	24.000000
0.720000	55.550000	61.960000	0.000000	0.000000	293.000000	59.000000	-8.000000	10.000000
0.730000	55.480000	61.960000	0.000000	0.000000	293.000000	59.000000	-7.000000	0.000000
0.740000	55.400000	61.840000	0.000000	0.000000	293.000000	59.000000	-8.000000	-12.000000
0.750000	55.400000	61.700000	0.000000	0.000000	293.000000	59.000000	0.000000	-14.000000
0.760000	55.400000	61.560000	0.000000	0.000000	293.000000	59.000000	0.000000	-14.000000
0.770000	55.330000	61.390000	0.000000	0.000000	293.000000	59.000000	-7.000000	-17.000000
0.780000	55.330000	61.210000	0.000000	0.000000	293.000000	59.000000	0.000000	-18.000000
0.790000	55.330000	61.210000	0.000000	0.000000	293.000000	59.000000	0.000000	0.000000
0.800000	55.330000	60.880000	0.000000	0.000000	293.000000	59.000000	0.000000	-33.000000
0.810000	55.330000	60.730000	0.000000	0.000000	293.000000	59.000000	0.000000	-15.000000
0.820000	55.330000	60.600000	0.000000	0.000000	293.000000	59.000000	0.000000	-13.000000
0.830000	55.330000	60.460000	0.000000	0.000000	293.000000	60.000000	0.000000	-14.000000
0.840000	55.250000	60.340000	0.000000	0.000000	293.000000	60.000000	-8.000000	-12.000000
0.850000	55.200000	60.200000	0.000000	0.000000	293.000000	60.000000	-5.000000	-14.000000
0.860000	55.150000	60.060000	0.000000	0.000000	292.000000	60.000000	-5.000000	-14.000000
0.870000	55.150000	60.060000	0.000000	0.000000	292.000000	60.000000	0.000000	0.000000
0.880000	55.150000	60.010000	0.000000	0.000000	292.000000	60.000000	0.000000	-5.000000
0.890000	55.150000	60.060000	0.000000	0.000000	292.000000	60.000000	0.000000	5.000000
0.900000	55.150000	60.150000	0.000000	0.000000	292.000000	60.000000	0.000000	9.000000
0.910000	55.150000	60.280000	0.000000	0.000000	293.000000	61.000000	0.000000	13.000000
0.920000	55.150000	60.440000	0.000000	0.000000	293.000000	61.000000	0.000000	16.000000
0.930000	55.240000	60.620000	0.000000	0.000000	293.000000	61.000000	9.000000	18.000000
0.940000	55.240000	60.810000	0.000000	0.000000	293.000000	61.000000	0.000000	19.000000
0.950000	55.320000	61.010000	0.000000	0.000000	293.000000	61.000000	8.000000	20.000000
0.960000	55.320000	61.190000	0.000000	0.000000	292.000000	60.000000	0.000000	18.000000
0.970000	55.380000	61.350000	0.000000	0.000000	292.000000	60.000000	6.000000	16.000000
0.980000	55.380000	61.460000	0.000000	0.000000	292.000000	60.000000	0.000000	11.000000
0.990000	55.320000	61.460000	0.000000	0.000000	293.000000	60.000000	-6.000000	0.000000
1.000000	55.260000	61.340000	0.000000	0.000000	292.000000	60.000000	-6.000000	-12.000000
1.010000	55.260000	61.220000	0.000000	0.000000	292.000000	60.000000	0.000000	-12.000000
1.020000	55.200000	61.050000	0.000000	0.000000	292.000000	60.000000	-6.000000	-17.000000
1.030000	55.200000	60.850000	0.000000	0.000000	292.000000	60.000000	0.000000	-20.000000
1.040000	55.200000	60.640000	0.000000	0.000000	292.000000	60.000000	0.000000	-21.000000
1.050000	55.110000	60.420000	0.000000	0.000000	292.000000	60.000000	-9.000000	-22.000000
1.060000	55.030000	60.200000	0.000000	0.000000	292.000000	60.000000	-8.000000	-22.000000
1.070000	55.030000	60.200000	113.000000	1.000000	293.000000	61.000000	0.000000	0.000000
1.080000	55.030000	60.200000	148.000000	0.000000	291.000000	61.000000	0.000000	0.000000
1.090000	55.030000	60.200000	132.000000	0.000000	291.000000	61.000000	0.000000	0.000000
1.100000	55.030000	60.200000	173.000000	0.000000	291.000000	61.000000	0.000000	0.000000
1.110000	55.030000	60.200000	200.000000	0.000000	291.000000	61.000000	0.000000	0.000000
1.120000	55.430000	60.820000	244.000000	0.000000	289.000000	62.000000	40.000000	62.000000
1.130000	55.640000	61.540000	260.000000	0.000000	290.000000	63.000000	21.000000	72.000000
1.140000	55.840000	62.460000	301.000000	0.000000	290.000000	63.000000	20.000000	92.000000
1.150000	56.020000	63.670000	317.000000	0.000000	290.000000	63.000000	18.000000	121.000000
1.160000	56.180000	64.930000	309.000000	0.000000	290.000000	63.000000	16.000000	126.000000
1.170000	56.180000	66.270000	312.000000	0.000000	292.000000	62.000000	0.000000	134.000000
1.180000	56.180000	67.570000	315.000000	0.000000	290.000000	63.000000	0.000000	130.000000
1.190000	56.090000	68.840000	317.000000	0.000000	290.000000	63.000000	-9.000000	127.000000
1.200000	55.980000	69.730000	319.000000	0.000000	288.000000	63.000000	-11.000000	89.000000
1.210000	55.880000	70.210000	307.000000	0.000000	286.000000	63.000000	-10.000000	48.000000
1.220000	55.760000	70.410000	322.000000	0.000000	284.000000	63.000000	-12.000000	20.000000
1.230000	55.630000	70.340000	329.000000	0.000000	282.000000	63.000000	-13.000000	-7.000000
1.240000	55.500000	69.860000	329.000000	0.000000	280.000000	63.000000	-13.000000	-48.000000
1.250000	55.430000	69.120000	373.000000	0.000000	280.000000	63.000000	-7.000000	-74.000000
1.260000	55.430000	67.910000	391.000000	0.000000	280.000000	63.000000	0.000000	-121.000000
1.270000	55.490000	66.660000	393.000000	0.000000	280.000000	63.000000	6.000000	-125.000000
1.280000	55.700000	65.390000	389.000000	0.000000	280.000000	63.000000	21.000000	-127.000000
1.290000	55.970000	64.270000	389.000000	0.000000	282.000000	63.000000	27.000000	-112.000000
1.300000	56.250000	63.210000	387.000000	0.000000	284.000000	63.000000	28.000000	-106.000000
1.310000	56.640000	62.510000	394.000000	0.000000	286.000000	63.000000	39.000000	-70.000000
1.320000	57.100000	62.030000	377.000000	0.000000	288.000000	63.000000	46.000000	-48.000000
1.330000	57.490000	61.900000	391.000000	0.000000	288.000000	63.000000	39.000000	-13.000000
1.340000	57.880000	62.200000	394.000000	0.000000	290.000000	63.000000	39.000000	30.000000
1.350000	58.280000	62.800000	396.000000	0.000000	290.000000	63.000000	40.000000	60.000000
1.360000	58.640000	63.860000	388.000000	0.000000	290.000000	63.000000	36.000000	106.000000
1.370000	58.940000	65.160000	388.000000	0.000000	290.000000	63.000000	30.000000	130.000000
1.380000	59.100000	66.620000	389.000000	0.000000	288.000000	63.000000	16.000000	146.000000
1.390000	59.170000	68.220000	389.000000	0.000000	287.000000	62.000000	7.000000	160.000000
1.400000	59.080000	69.650000	394.000000	0.000000	285.000000	62.000000	-9.000000	143.000000
1.410000	58.890000	70.970000	396.000000	0.000000	284.000000	62.000000	-19.000000	132.000000
1.420000	58.660000	71.830000	404.000000	0.000000	282.000000	63.000000	-23.000000	86.000000
1.430000	58.530000	72.380000	400.000000	0.000000	282.000000	63.000000	-13.000000	55.000000
1.440000	58.460000	72.730000	417.000000	0.000000	280.000000	63.000000	-7.000000	35.000000
1.450000	58.410000	72.730000	445.000000	0.000000	278.000000	63.000000	-5.000000	0.000000
1.460000	58.360000	72.440000	474.000000	0.000000	276.000000	63.000000	-5.000000	-29.000000
1.470000	58.360000	72.000000	488.000000	0.000000	276.000000	62.000000	0.000000	-44.000000
1.480000	58.360000	71.000000	499.000000	0.000000	276.000000	62.000000	0.000000	-100.000000
1.490000	58.430000	69.840000	512.000000	0.000000	276.000000	62.000000	7.000000	-116.000000
1.500000	58.600000	68.580000	530.000000	0.000000	276.000000	62.000000	17.000000	-126.000000
1.510000	58.760000	67.120000	527.000000	0.000000	276.000000	62.000000	16.000000	-146.000000
1.520000	59.070000	65.710000	526.000000	0.000000	277.000000	62.000000	31.000000	-141.000000
1.530000	59.470000	64.620000	518.000000	0.000000	279.000000	62.000000	40.000000	-109.000000
1.540000	59.860000	63.720000	526.000000	0.000000	281.000000	62.000000	39.000000	-90.000000
1.550000	60.210000	63.110000	513.000000	0.000000	281.000000	62.000000	35.000000	-61.000000
1.560000	60.510000	62.900000	490.000000	0.000000	283.000000	61.000000	30.000000	-21.000000
1.570000	60.780000	62.950000	471.000000	0.000000	285.000000	61.000000	27.000000	5.000000
1.580000	60.950000	63.360000	389.000000	0.000000	285.000000	61.000000	17.000000	41.000000
1.590000	61.060000	63.960000	246.000000	0.000000	287.000000	61.000000	11.000000	60.000000
1.600000	61.060000	63.960000	0.000000	1.000000	287.000000	61.000000	0.000000	0.000000
1.610000	60.920000	65.240000	0.000000	0.000000	287.000000	61.000000	-14.000000	128.000000
1.620000	60.830000	65.580000	0.000000	0.000000	287.000000	61.000000	-9.000000	34.000000
1.630000	60.720000	65.780000	0.000000	0.000000	287.000000	61.000000	-11.000000	20.000000
1.640000	60.590000	65.840000	0.000000	0.000000	287.000000	61.000000	-13.000000	6.000000
1.650000	60.540000	65.840000	0.000000	0.000000	287.000000	61.000000	-5.000000	0.000000
1.660000	60.540000	65.840000	0.000000	0.000000	287.000000	61.000000	0.000000	0.000000
1.670000	60.620000	65.840000	0.000000	0.000000	287.000000	61.000000	8.000000	0.000000
1.680000	60.700000	65.840000	0.000000	0.000000	287.000000	61.000000	8.000000	0.000000
1.690000	60.800000	65.770000	0.000000	0.000000	287.000000	61.000000	10.000000	-7.000000
1.700000	60.900000	65.770000	0.000000	0.000000	287.000000	61.000000	10.000000	0.000000
1.710000	61.000000	65.680000	0.000000	0.000000	287.000000	61.000000	10.000000	-9.000000
1.720000	61.160000	65.610000	0.000000	0.000000	287.000000	61.000000	16.000000	-7.000000
1.730000	61.350000	65.540000	0.000000	0.000000	286.000000	60.000000	19.000000	-7.000000
1.740000	61.490000	65.540000	0.000000	0.000000	286.000000	60.000000	14.000000	0.000000
1.750000	61.490000	65.540000	48.000000	1.000000	286.000000	60.000000	0.000000	0.000000
1.760000	61.780000	65.480000	91.000000	0.000000	286.000000	60.000000	29.000000	-6.000000
1.770000	61.940000	65.530000	137.000000	0.000000	286.000000	60.000000	16.000000	5.000000
1.780000	62.090000	65.640000	163.000000	0.000000	285.000000	59.000000	15.000000	11.000000
1.790000	62.250000	65.810000	181.000000	0.000000	285.000000	59.000000	16.000000	17.000000
1.800000	62.410000	66.050000	275.000000	0.000000	285.000000	59.000000	16.000000	24.000000
1.810000	62.570000	66.320000	304.000000	0.000000	285.000000	59.000000	16.000000	27.000000
1.820000	62.680000	66.760000	339.000000	0.000000	285.000000	59.000000	11.000000	44.000000
1.830000	62.680000	67.320000	341.000000	0.000000	285.000000	59.000000	0.000000	56.000000
1.840000	62.630000	67.890000	369.000000	0.000000	284.000000	59.000000	-5.000000	57.000000
1.850000	62.510000	68.460000	386.000000	0.000000	283.000000	58.000000	-12.000000	57.000000
1.860000	62.320000	68.830000	394.000000	0.000000	282.000000	58.000000	-19.000000	37.000000
1.870000	62.050000	69.080000	420.000000	0.000000	280.000000	59.000000	-27.000000	25.000000
1.880000	61.740000	69.000000	441.000000	0.000000	278.000000	59.000000	-31.000000	-8.000000
1.890000	61.370000	68.620000	474.000000	0.000000	278.000000	59.000000	-37.000000	-38.000000
1.900000	61.040000	68.040000	475.000000	0.000000	277.000000	60.000000	-33.000000	-58.000000
1.910000	60.870000	67.170000	512.000000	0.000000	277.000000	60.000000	-17.000000	-87.000000
1.920000	60.800000	66.340000	530.000000	0.000000	277.000000	60.000000	-7.000000	-83.000000
1.930000	60.800000	65.530000	532.000000	0.000000	279.000000	60.000000	0.000000	-81.000000
1.940000	60.980000	64.710000	537.000000	0.000000	279.000000	61.000000	18.000000	-82.000000
1.950000	61.260000	63.990000	530.000000	0.000000	281.000000	61.000000	28.000000	-72.000000
1.960000	61.610000	63.440000	524.000000	0.000000	282.000000	60.000000	35.000000	-55.000000
1.970000	61.950000	63.000000	512.000000	0.000000	282.000000	60.000000	34.000000	-44.000000
1.980000	62.300000	62.790000	504.000000	0.000000	284.000000	60.000000	35.000000	-21.000000
1.990000	62.650000	62.790000	473.000000	0.000000	284.000000	60.000000	35.000000	0.000000
2.000000	62.950000	62.790000	447.000000	0.000000	284.000000	60.000000	30.000000	0.000000
2.010000	63.210000	62.790000	449.000000	0.000000	284.000000	59.000000	26.000000	0.000000
2.020000	63.380000	62.530000	442.000000	0.000000	282.000000	59.000000	17.000000	-26.000000
2.030000	63.460000	62.120000	448.000000	0.000000	282.000000	59.000000	8.000000	-41.000000
2.040000	63.460000	61.560000	456.000000	0.000000	282.000000	58.000000	0.000000	-56.000000
2.050000	63.460000	60.940000	471.000000	0.000000	282.000000	58.000000	0.000000	-62.000000
2.060000	63.460000	60.270000	468.000000	0.000000	280.000000	59.000000	0.000000	-67.000000
2.070000	63.410000	59.640000	473.000000	0.000000	280.000000	59.000000	-5.000000	-63.000000
2.080000	63.360000	59.020000	477.000000	0.000000	280.000000	59.000000	-5.000000	-62.000000
2.090000	63.300000	58.650000	470.000000	0.000000	280.000000	59.000000	-6.000000	-37.000000
2.100000	63.300000	58.440000	469.000000	0.000000	280.000000	59.000000	0.000000	-21.000000
2.110000	63.250000	58.510000	461.000000	0.000000	280.000000	59.000000	-5.000000	7.000000
2.120000	63.250000	58.800000	460.000000	0.000000	282.000000	58.000000	0.000000	29.000000
2.130000	63.250000	59.250000	458.000000	0.000000	282.000000	58.000000	0.000000	45.000000
2.140000	63.350000	60.020000	453.000000	0.000000	282.000000	58.000000	10.000000	77.000000
2.150000	63.440000	60.840000	450.000000	0.000000	282.000000	58.000000	9.000000	82.000000
2.160000	63.440000	61.800000	440.000000	0.000000	282.000000	58.000000	0.000000	96.000000
2.170000	63.530000	62.840000	447.000000	0.000000	282.000000	58.000000	9.000000	104.000000
2.180000	63.590000	63.770000	445.000000	0.000000	282.000000	58.000000	6.000000	93.000000
2.190000	63.640000	64.630000	445.000000	0.000000	282.000000	58.000000	5.000000	86.000000
2.200000	63.700000	65.440000	447.000000	0.000000	282.000000	58.000000	6.000000	81.000000
2.210000	63.700000	66.010000	445.000000	0.000000	281.000000	58.000000	0.000000	57.000000
